##TITLE=<SNM>
##JCAMP-DX=4.24
##DATA TYPE=INFRARED SPECTRUM
##DATE=29/4/2025
##SAMPLING PROCEDURE=Instrument type and / or accessory
##ORIGIN=Admin
##XUNITS=1/CM
##YUNITS=ABSORBANCE
##RESOLUTION=4
##FIRSTX=4497.3318
##LASTX=599.83466
##DELTAX=-1.4281778
##MAXY=2.1905961
##MINY=0.59179324
##XFACTOR=1
##YFACTOR=2.0401516e-09
##NPOINTS=2730
##FIRSTY=0.59888607
##XYDATA=(X++(Y..Y))
4497+293549789+291069777+290073168+290882533+292226255+292644567+292145911
4487+292059082+293472250+296291662+299566109+302204061+303236986+302168330
4477+299954796+298566111+298710729+299196792+298957690+298417490+298278861
4467+298192850+297225194+295159141+293088997+292501585+293646318+295488519
4457+297349040+299205440+300314384+299556263+297447088+295995063+296337063
4447+297621039+298260631+297635822+296409080+295660893+296020247+297306793
4437+298781431+299578672+299099796+297573621+296033277+295407095+295816379
4427+296662994+297224609+297354328+297556910+298162027+298567104+297777372
4417+295926581+294589111+294970494+296324150+296866395+296031612+294905810
4407+294562905+295011689+295704074+296186251+296228526+295972537+295936690
4397+296433942+297101932+297343868+297094921+296818627+296780150+296762094
4387+296733872+297266914+298577768+299596815+299029298+297041982+294929008
4377+293626626+293283604+293651986+294205654+294326198+293983819+293899882
4367+294707727+296160395+297309569+297439199+296713538+295824793+295225986
4357+294963453+294997694+295208398+295209041+294668461+293837769+293393251
4347+293719649+294500792+295028195+294959889+294622476+294392285+294227595
4337+294151576+294639333+295866747+297009552+297048175+295852256+294065652
4327+292506697+291830323+292192306+293081635+293848725+294348636+294771418
4317+295066118+294838380+293807180+292390448+291676209+292506084+294593698
4307+296784240+298104823+298197057+297153557+295520102+294202499+293904176
4297+294476631+294963190+294584145+293662532+293123589+293249509+293503803
4287+293323629+292586427+291696310+291531854+292714480+294714096+296286140
4277+296841737+296686133+296131296+295276559+294545609+294654438+295776412
4267+296999326+297028455+295620429+293913408+292999217+292950514+293456970
4257+294414401+295474408+295811646+295045111+293951652+293722922+294697473
4247+296075611+296968124+297365693+297659516+297734250+297238925+296252805
4237+295022294+293662708+292562821+292338969+292980753+293714390+293992437
4227+293991853+294121396+294575497+295232881+295728440+295851818+295862336
4217+296172666+296911504+297953602+299056147+299784643+299611423+298441447
4207+297052937+296675557+297785202+299394437+299973728+299135965+297872587
4197+297120689+296821373+296545430+296321812+296431138+296759173+296885180
4187+296685753+296389038+296263176+296341679+296209740+295337152+293926789
4177+292987618+293368096+294901603+296530822+297391081+297652036+297876355
4167+297893505+297295078+296653412+296782691+297214647+296808898+295493398
4157+294223446+293562468+293383083+293675738+294748892+296559570+298290255
4147+299023397+298669038+297783683+296756163+295589168+294382176+293597294
4137+293671794+294483672+295452087+296182248+296695658+297096615+297394587
4127+297603772+297733052+297714471+297439871+296855147+296145758+295780853
4117+296061091+296685578+297050922+296866511+296299141+295706002+295349715
4107+295214855+295145088+295280240+296022906+297357395+298676664+299548755
4097+300100524+300426397+300257326+299452986+298277459+297088639+296152887
4087+295561121+295059807+294352463+293628204+293294910+293392111+293750384
4077+294322955+294953929+295286755+295197004+294890180+294472540+293903271
4067+293465706+293764875+294972218+296367155+296984426+296611428+295882787
4057+295540787+295766800+296124226+296192036+296182774+296534270+297070876
4047+297236471+296938616+296456760+295838145+295028429+294227157+293617686
4037+293168143+292921678+293018646+293447884+294181200+295281759+296514169
4027+297294932+297339048+296970140+296645582+296493630+296382873+296160074
4017+295711231+294985716+294156016+293688622+293999157+294945223+295895554
4007+296386934+296459389+296405019+296500233+296866073+297311819+297508120
3997+297524188+297858563+298689256+299419826+299320404+298440512+297571138
3987+297497047+298475075+299982522+300771436+299896481+297941974+296503330
3977+296438179+297254205+298033215+298377465+298452257+298488601+298379393
3967+297806150+296876299+296382435+297046481+298549516+299632487+299373373
3957+298098278+296804399+296111575+296053699+296497837+297265745+297882987
3947+297780703+297126678+296960791+297911794+299118669+299255691+298389385
3937+297792827+298387690+299996341+301613260+302121702+301258346+299903201
3927+299084604+299016706+299215432+299285813+299448778+300274066+301919529
3917+303569345+303889988+302380262+299982142+298136288+297548905+298032192
3907+299295220+301277483+303557950+305221994+305820567+305618949+304707709
3897+303099116+301613581+301408019+302501595+303371554+302841024+301967793
3887+302395191+304015236+305341487+305838185+306167037+305920778+304042757
3878+301505687+300563624+301894929+304220711+306391911+308062354+308584089
3868+307880310+307287171+307665399+308062792+307318607+305841311+304688864
3858+304602853+306513654+311257042+316533268+317127079+312916616+307795993
3848+304110976+302230151+301661816+301841406+302717470+305006586+309123530
3838+313320115+314728258+313200652+310872942+309018966+307490454+306078134
3828+305023824+304437375+304465831+305800555+308552916+310907855+311493135
3818+311651046+312328327+311934790+309424569+306410902+304985931+306068347
3808+308959424+311562289+312685869+313411327+314585626+314999410+313797823
3798+311890207+310058756+308631243+308176120+308881243+309935290+310641962
3788+311444344+312943524+314843427+316760158+319184134+322671330+326619465
3778+329804892+332045743+334499373+338649301+345018723+352010121+356660691
3768+357929474+357435640+356630452+356056917+356507688+358784328+362517376
3758+366219163+369100220+372090018+376859963+384034777+391470576+396579951
3748+400709983+406274744+412663770+416716643+418345745+420551683+424924557
3738+431207355+437957868+443390807+446600367+447960683+448599720+449636530
3728+451618968+454250113+456473230+456918128+454698838+450492378+446563935
3718+444749634+444940150+446225470+448484552+451666706+454269541+454588432
3708+452997515+451291371+450898039+452000468+453550190+454409894+454732582
3698+455584252+457557048+460282648+463094054+465918403+469026788+471833608
3688+473210402+473261851+472869658+472111275+470471246+468067313+466222335
3678+466851789+470460699+474026136+474449444+473439191+473708882+474008022
3668+471608354+467414632+464085843+462584414+462205164+462491566+463734669
3658+465651809+467206148+468251401+469808457+472373428+474935858+475289398
3648+472499611+468477064+465487032+464227043+464011927+463958345+464054173
3638+464922817+466701387+468686512+470540955+473409157+478482859+483864583
3628+485471393+483502191+481296749+480032611+479337742+479348698+480529367
3618+482852578+485909397+488921837+490872459+491593504+492064463+492672736
3608+492610389+491688981+490981317+491510590+493202827+494800639+495127622
3598+494638433+495108222+497570237+500970196+503581679+505149749+506344090
3588+506822236+505678963+503470425+501359233+499541427+498157182+498090804
3578+499650109+501518109+502198895+501966396+502348655+504410998+507775956
3568+510551398+511047365+509968660+509470823+510290910+510799557+509172646
3558+506122050+504063798+504086878+505003553+505042877+503750371+502331067
3548+502441445+504432092+506919232+508438512+508810487+508741538+508849169
3538+508935414+508166863+506515295+505290393+505260827+505571917+505350870
3528+504793725+504124450+503238977+502538558+502551880+502644378+501591148
3518+499436717+497590980+497414751+498899380+500676869+501439810+500863909
3508+499402535+497756926+496369702+495342767+494993112+495953318+498084727
3498+499853218+499655193+497665189+495625693+494966351+495822081+497467222
3488+499190896+500661210+501506422+501079580+498853161+495062471+491061602
3478+488699592+489124945+491740986+494286967+494795847+493498841+492038578
3468+491124123+489917161+487696322+485043762+482984925+481899149+481531469
3458+481380218+481074154+480786817+481067726+482048033+483235480+484094482
3448+484237435+483323799+481505437+479682693+478707266+478516048+478432988
3438+478201511+478209429+478564108+478811800+479017596+479924863+481367013
3428+481810742+480529367+478947566+478565978+478908592+478697069+477912742
3418+477457765+477664233+478023324+477721379+476318612+474614016+474288173
3408+475743849+477143081+476743351+475182264+474083925+473652583+472994673
3398+471959323+471522956+472500926+474391772+475613547+475032416+473206283
3388+471791975+471795920+472632835+472966830+472568122+472748793+474486694
3378+476996535+478861730+479750357+480006112+479477043+478021367+476473835
3368+476170342+477685648+480597644+484223645+487702399+489835765+489883650
3358+488323731+486320112+484917404+484779505+485761974+486738862+486739534
3348+486057229+485546127+485580193+486163691+487333637+488987865+490383912
3338+490414413+488957977+487287564+486674471+487130383+487849004+488374245
3328+488678615+488610835+488093423+487541858+487420671+487607827+487634852
3318+487237284+486314035+484854882+483269662+482211934+481797508+481602726
3308+481486944+481574591+481562058+481028723+480189441+479600685+479476664
3298+479762686+480468803+481686166+483326282+484734279+484975485+484086068
3288+483403441+483997223+485524654+486979805+487816545+488115072+488424175
3278+489616822+491906289+494046813+494506143+493407571+492271252+491877190
3268+491503169+490358962+488747389+487470542+486852687+486730945+486789931
3258+486684901+486361599+486134037+486139880+486084166+485664714+485157236
3248+485434289+486943519+488693165+488954033+487346668+485386522+484433736
3238+484042712+483025915+481313899+479739869+478602323+477675744+477279227
3228+478010440+479453145+480306129+480018295+479447477+479628206+480588091
3218+481613974+482137959+482074970+481561590+480752926+479786000+478647373
3208+477203178+475602533+474424494+474072794+474223577+474227900+473855019
3198+473270119+472596461+471873838+471133159+470300305+469323212+468352079
3188+467572864+467125132+467205710+467844279+468612245+469048963+469087440
3178+468633398+467414456+465644739+464011868+462874819+462064928+461187695
3168+459814114+457853705+455936185+454871211+454650223+454518898+453939987
3158+453004585+452116659+451637315+451563341+451430175+450909550+450392606
3148+450396228+450583911+450070560+448574828+446704024+445219687+444457213
3138+444348881+444642003+445054588+445466589+446049678+446959370+447857288
3128+448118361+447494049+446171099+444423323+442645717+441354876+440812280
3118+440983163+441772340+442722671+442922332+441981087+440597632+439640814
3108+439300129+439309595+439332091+439034704+438272551+437256426+436384072
3098+435870283+435492026+434775509+433565157+432259883+431409966+431339176
3088+432065861+433167413+433749275+433189325+432012893+431397024+431746883
3078+432306161+432218338+431439766+430513275+430005242+430185065+430767453
3068+431024756+430479356+429449996+428647759+428384057+428375643+428047521
3058+427010477+425504432+424270883+423846816+424110021+424498474+424487372
3048+423916992+423069530+422434583+422325988+422668192+423014224+422843896
3038+422089836+421310096+421071316+421268201+421333878+420976130+420358947
3028+419672785+418892402+417965239+417033342+416386008+416221640+416481076
3018+416914989+417299907+417508128+417396173+416846507+415999834+415222518
3008+414761376+414579976+414469715+414150270+413432730+412512783+411892561
2998+411845261+412136571+412256882+411800473+410821072+409935921+409819905
2988+410483805+411230064+411340967+410629036+409376234+408033564+406981386
2978+406386757+406201442+406205970+406075025+405631471+405097435+404863008
2968+404983464+405169277+405240593+405271357+405305013+405247254+405057702
2958+404807615+404554869+404294761+403956529+403405140+402647428+402074127
2948+402123384+402557531+402538278+401706358+400765931+400604689+401126600
2938+401367893+400751732+399781388+399212381+398990926+398550877+397910146
2928+397749196+398351626+399073636+399048948+398058007+396556374+395141190
2918+394150220+393621764+393503090+393878162+394854554+396136601+396984444
2908+396862555+395940651+394810350+393938347+393418744+393011388+392442235
2898+391763523+391275298+391112917+391132988+391136056+391031872+390900255
2888+390951149+391317836+391847957+392103536+391710993+390875275+390290755
2878+390235800+390146312+389469061+388445340+387685817+387541753+388066089
2868+389007013+389770597+389810126+389090804+388058961+387280243+387088558
2858+387378496+387695341+387598520+387006666+386245478+385725174+385591921
2848+385750972+386019786+386052449+385429160+384213578+383156463+382973134
2838+383548013+384093501+384045412+383541586+382972258+382426273+381833952
2828+381365477+381323406+381776338+382491599+383064667+383094087+382488152
2818+381604433+380889990+380448714+380129912+379880000+379768162+379811985
2808+379979421+380189483+380169704+379607153+378610924+377677947+377030321
2798+376428767+375771003+375354444+375347491+375464237+375395551+375205385
2788+375086010+375006338+374819445+374531815+374268406+374048498+373772906
2778+373444725+373217806+373111723+372878552+372364442+371801950+371515752
2768+371535005+371651051+371600215+371117775+370176646+369237592+368898017
2758+369250330+369851007+370255850+370309403+370045409+369633379+369309405
2748+369092916+368719246+368059875+367382565+366996624+366867490+366738999
2738+366463232+366133385+366014010+366283175+366712734+366740139+366036710
2728+364909039+364005219+363685190+363721388+363622346+363216159+362754228
2718+362445797+362209500+361967768+361809244+361726329+361557608+361285317
2708+361055885+360908024+360785902+360722562+360785581+360971481+361216543
2698+361345092+361114317+360519834+359860433+359327070+358820848+358334785
2688+358167261+358521474+359102488+359373903+359172080+358806474+358539734
2678+358307906+358029889+357802122+357640179+357386031+356997110+356645645
2668+356484315+356514845+356660106+356834320+356973942+357014202+356806857
2658+356211118+355362750+354635627+354210479+353933455+353732684+353823837
2648+354278990+354722252+354749277+354434097+354193300+354284600+354536673
2638+354510525+353986365+353283929+352919871+353003662+353199817+353210773
2628+353034047+352781389+352474564+352090377+351727721+351597360+351770201
2618+352042346+352168061+352091487+351877627+351622866+351479387+351533962
2608+351681122+351809438+351954319+352055435+351867460+351389431+351012197
2598+350963027+351043867+351142909+351468460+352019879+352334796+352043515
2588+351354256+350802223+350692372+350889111+351113313+351329977+351666660
2578+352030221+352122485+351852823+351464078+351262985+351435213+351999574
2568+352679718+352928286+352403687+351427733+350695352+350510211+350557629
2558+350454146+350221968+350079395+350028910+349888382+349607502+349361885
2548+349355545+349602564+349912894+350098590+350137944+350061340+349830477
2538+349521607+349409711+349596429+349775347+349654919+349405007+349401852
2528+349716564+350072530+350211538+350162310+350131136+350206338+350293167
2518+350325947+350366090+350468053+350608756+350767223+350968227+351240519
2508+351545385+351748435+351716181+351449295+351075216+350743704+350540450
2498+350429313+350292992+350082784+349862117+349678087+349526019+349477112
2488+349689014+350210399+350843213+351267748+351323199+351131690+350916515
2478+350773621+350694651+350698215+350793371+350886891+350867696+350734209
2468+350565517+350455081+350478220+350572792+350520671+350269707+350116090
2458+350285600+350550851+350559294+350312946+350063297+349948187+349928992
2448+349956514+350057571+350249899+350440327+350530020+350592074+350749576
2438+350909708+350837662+350490345+350121028+350053276+350396854+350941962
2428+351333133+351402549+351305699+351301258+351459666+351654594+351794012
2418+351912920+352022947+352067822+352085176+352217232+352502202+352818668
2408+353047983+353175802+353268124+353418439+353676940+354013944+354372364
2398+354733237+355133435+355665016+356441192+357568893+359269018+362020386
2388+366406319+372809720+381472027+392844098+407568069+425973521+447734202
2378+472091817+498358129+526151345+555019528+583604375+609603450+631494609
2368+649664553+664810429+675976178+681458697+680894599+674918625+663885515
2358+647590057+626151275+600542815+572447916+545229783+523945845+512602814
2348+512606437+523117986+540594055+558905579+573191283+582505569+587832426
2338+590683128+592683183+594726769+596675053+597691120+596994207+594758848
2328+591881326+588672848+584418094+578164921+569650679+559526940+548854061
2318+538502438+528881853+520004284+511484200+502529150+492511581+481698787
2308+471134679+461785362+453888859+446952096+440286834+433657888+427328111
2298+421482995+415990397+410809941+406216429+402478006+399543542+397046615
2288+394519127+391748535+389005260+386761224+385161601+383935035+382812710
2278+381813997+381041824+380442170+379949212+379656236+379630877+379727961
2268+379743065+379599090+379279498+378720980+377900221+376984802+376269921
2258+375906769+375779271+375698694+375586944+375410217+375128723+374818481
2248+374679180+374824645+375153323+375462046+375631322+375675730+375645521
2238+375512882+375190894+374695365+374247487+374095507+374202583+374242111
2228+373946944+373332858+372592179+371934473+371472600+371135888+370766338
2218+370328481+369894305+369476665+369072260+368792315+368731137+368783784
2208+368811451+368895709+369181673+369561712+369800610+369908241+370108398
2198+370502140+370995770+371496733+372024224+372652042+373361314+373955271
2188+374254061+374364789+374566670+374974288+375502159+376058574+376577885
2178+376957544+377144671+377226066+377298668+377318973+377221976+377121240
2168+377210144+377498270+377799894+377950355+377950823+377968294+378202926
2158+378638095+378982052+379014686+378900014+378990174+379402146+379935364
2148+380367085+380687699+381029700+381506618+382182087+383074980+384143606
2138+385355419+386754592+388372592+390178537+392201555+394514687+397016376
2128+399455574+401755324+404080521+406526555+408973465+411304535+413515936
2118+415510820+417034599+417981307+418550285+418929740+419067054+418907945
2108+418547918+417953202+416871575+415242502+413378155+411569668+409853211
2098+408259869+406914511+405745266+404420944+402764759+401042663+399700782
2088+398924518+398565924+398421101+398405324+398432583+398322994+397962384
2078+397445323+396979126+396719924+396709815+396879968+397085209+397184922
2068+397156028+397137973+397303246+397657926+398044188+398343767+398569546
2058+398805259+399179777+399786150+400532789+401223684+401809841+402366898
2048+402874902+403298765+403838936+404777814+406049256+407217187+407948458
2038+408321924+408640843+409177041+410108645+411420843+412824253+414011319
2028+414998696+416027472+417207644+418465793+419767064+421195629+422789672
2018+424402588+425844007+427144168+428492039+429885749+431114273+432169080
2008+433393835+435071114+437077012+439089133+440948718+442650450+444145072
1998+445374414+446434655+447532964+448762978+449994774+451005962+451728030
1988+452359471+453204392+454416906+455948602+457705289+459621728+461578807
1978+463419460+465124610+466857019+468759435+470820433+472973608+475165231
1968+477277912+479183512+480959891+482876359+485080983+487439603+489749754
1958+491976582+494172791+496322957+498426844+500593254+502888037+505218114
1948+507507930+509870845+512506636+515466780+518527601+521315664+523628912
1938+525616170+527597060+529753185+532040431+534367819+536716360+539051695
1928+541373825+543941250+547036897+550314792+552922418+554611325+556070011
1918+557855037+559696216+561192299+562522786+564067074+565867468+567661610
1908+569128885+570124560+570940790+572113804+573665923+574939264+575573772
1898+576111635+577169889+578611163+579980974+581184548+582240232+582920375
1888+583118049+583114018+583205521+583526837+584178232+585073754+585826762
1878+586129555+586057041+585920779+586214573+587536061+589877707+591975752
1868+592232325+590669104+588733909+587372511+586519293+585827113+585079714
1858+584060901+582632833+581078553+579963211+579486117+579190629+578528541
1848+577646341+577209973+577236092+576582769+574463864+571715944+569498933
1838+568084947+567115625+566337726+565966510+566287416+566896215+566717648
1828+565290164+563274099+561291340+559439819+557860179+556801516+556133467
1818+555350718+554172854+552937786+552218376+552127573+552165379+551778678
1808+550970570+550288030+550301820+551033793+551883680+552296908+552378128
1798+552610510+553348852+554805084+556885248+558737296+559269491+558617043
1788+557990014+558317815+559721576+561705036+563641692+565106280+565975742
1778+566589040+567644957+569765147+573080789+576746027+579178417+579715987
1768+579032513+578107366+577978933+579482845+582170289+584207915+584769384
1758+585101568+586266343+588031386+590148713+592979372+596477554+599559002
1748+601140687+601280514+600824397+600614686+601181239+602724943+604917120
1738+607163289+609632140+612991313+616462792+617863806+617074162+615813500
1728+615253784+615774001+617156959+618857552+620858074+623925674+628454648
1718+633208583+635751935+635217870+633151495+631366586+630938165+632133208
1708+634508160+637215879+639447148+641263085+643759340+647581233+651302624
1698+653150757+653484401+652845393+651307941+649911076+649937838+651676937
1688+654768084+659166405+664305288+667346476+666555137+664594407+663947277
1678+665006291+667214187+669507802+671146107+672919389+675917279+679221936
1668+680493875+679663854+679053419+680289364+682914462+685176114+686366132
1658+687362975+689244764+692632101+697138929+700392692+701607426+703398530
1648+706811168+709474071+708433871+705077503+702523575+701834316+702851493
1638+705417984+708976292+711594553+711887061+711460686+712543131+715968332
1628+721402002+728050172+735043206+741163388+745397691+748643741+753225070
1618+760312762+767587378+770568031+769433290+768297789+769186884+771268509
1608+773286736+775068081+776436958+776514029+775017421+773063118+772118630
1598+772957766+775609625+779477971+783608149+787354549+790548068+793067930
1588+794986473+796796391+798551968+799300418+798377667+796746316+796242460
1578+798146161+802212824+806158884+808316704+810135855+813651332+818732017
1568+823229730+825893100+827156157+827793178+829157964+833304620+840665364
1558+846227700+845801325+843126619+841864497+842430640+843680726+844771760
1548+846008056+847954470+850272100+852199232+853599370+853805809+850756732
1538+845345558+841240798+839784040+840093435+840555454+840330083+839923341
1528+840041139+840840016+842356666+844990236+848660090+852085934+854612691
1518+857166268+859766941+861410796+862665381+865147847+868802041+872234663
1508+875010748+877430692+878650568+878247799+877789520+879071626+882713374
1498+887166328+889609294+889832912+890562664+893201201+896720827+899645854
1488+901711703+903344573+904732674+905999529+907153377+908003908+908545568
1478+909323760+911257729+915197537+920771793+925323847+926275289+924518309
1468+923101110+923278157+923594506+922541043+921107482+921442237+924695649
1458+929571181+931233910+926842426+920521297+916246559+914250536+912884815
1448+910691877+907376586+903806358+901411072+901022210+902240508+904169802
1438+906109088+907146483+906913341+907008467+908904163+911449618+911990519
1428+910023245+907775674+907147417+908621413+911887913+915479878+916566764
1418+913931032+910293725+908234362+907582148+907294957+907067366+907591322
1408+909929170+914037495+917671121+918219092+916053443+913740428+912699703
1398+912372837+912056605+912323696+913783434+915361496+915426004+914060341
1388+912700229+912093943+912264856+914130868+918485774+923806729+927611794
1378+929605889+931320856+933463133+935578006+937634798+940111245+943078634
1368+945977075+947965502+949099308+950866221+954889761+960337279+964095073
1358+964482182+963012861+962708550+965435318+970259605+974091723+974886627
1348+974313939+975619768+979450250+983582941+986333082+988419674+990992533
1338+993638666+995764874+997882435+1000524945+1003863609+1008130750+1012810419
1328+1016113440+1016906824+1016646803+1018098361+1022668879+1029362334
1320+1035294308+1038087338+1038579566+1039804759+1043126595+1046666614
1311+1048006450+1047072129+1046268461+1049039403+1057022560+1067216651
1302+1073741823+1073138225+1066231144+1056685293+1048650717+1045305742
1294+1047304687+1051379588+1052747238+1049474602+1044048996+1039929102
1285+1037294071+1033941267+1029637313+1026728238+1025933569+1024778142
1277+1021405121+1017426514+1015172341+1014398940+1013070907+1009635481
1268+1003957800+997197967+991088712+986841437+984775763+984756831+986125182
1258+986989853+985019774+979855765+973366062+967456233+962812441+958870004
1248+954514572+949189585+943159153+936595533+928862698+919271153+908297234
1238+897618570+888676493+881543808+875443375+869783692+864275288+858546539
1228+852542576+847059123+843032369+840455477+838395414+836177993+834304326
1218+833457711+832873979+831206459+828911792+827890408+828944397+831262086
1208+833929488+836566797+838809752+840199080+840745357+841445542+843953543
1198+849036389+855275889+860222415+863065579+865216387+868028465+870935846
1188+872425384+872315415+872351760+874578412+879494612+885960242+892373985
1178+897681676+901497492+903989599+906057493+909232432+914689182+922302642
1168+930755881+938336444+944269178+949378845+954217447+957194361+956302052
1158+952475719+949457786+950717395+956526254+963586893+968323942+970267435
1148+971065143+971876757+973159331+974108376+973118954+971583606+973340469
1138+978701157+983210498+983696882+981991031+981887958+985323150+991198096
1128+997076663+1001166173+1002580217+1001401886+999152270+997472362+996295083
1118+995374785+995613770+997058667+997472012+994725376+990569605+989237833
1108+992628150+999166177+1006834504+1014991436+1021187872+1021062478+1016274360
1098+1014015746+1015480275+1014487055+1009344842+1006624969+1011317025
1090+1019969106+1023928197+1019951694+1013759699+1010479934+1009823163
1081+1010447095+1011766480+1011276006+1006301608+998306064+990850194+985614841
1071+982291019+980251347+979676848+980917993+982455328+981694549+979123209
1061+977956564+979597089+981527552+979915307+974106098+967097521+962062004
1051+959728773+959779433+962499189+967424446+972167396+974444942+975667390
1041+978033693+979404849+976675451+971451784+968586241+969407731+970166407
1031+967903877+964431931+962934680+963999362+966021679+967443728+967436132
1021+965440109+962252550+960159180+959811629+960030572+960861352+963302857
1011+966215964+966846441+964726426+961400500+956957655+950816437+943711565
1001+937661676+933686283+929726550+923163398+914643839+906866712+900836339
991+895620268+890898178+887737497+886585109+886018732+883827665+879297347
981+873865313+869070067+865037528+861296855+857827246+854868563+852683221
971+851460599+850712616+849177034+845933205+841547505+837770780+835713521
961+834781771+833741279+832474307+832076388+833215454+835202186+836903947
951+838010642+839056918+840625104+843147537+847115393+852643254+858616598
941+863259981+866116233+868341483+871411946+876523658+883901522+891703132
931+897135691+899649243+901464303+904769895+910605866+918818542+926270965
921+927659299+921638217+914065016+912049360+916676791+922538881+924284992
911+922571077+921167550+921154987+920917638+919733814+918682221+918210386
901+916760289+913348586+910305645+911017224+915743405+921168310+924028594
891+924745900+926122139+928717028+930324130+929861644+928890277+928915169
881+929951044+932071702+936004556+941627369+947589319+952270974+954003646
871+951616891+946008511+940240846+937639647+939635378+944542755+948530535
861+948940958+947042283+946479995+949054783+952389999+952998564+951433182
851+951003652+952871651+954588838+954396131+954771963+958364103+964173079
841+969671433+973711568+975567997+974890483+973651208+974237686+976309494
831+977988234+978302712+977005823+974461479+973174114+975649743+981432308
821+988250456+993767566+995264583+991285275+984585977+979969649+980535851
811+986511766+993286908+994554289+991858840+992692191+999393242+1007553213
801+1011514290+1009844315+1005905091+1002360515+1000215608+998691479+996138837
791+993102965+991078661+990703881+991253255+990491307+986418392+979756841
781+973139522+967935138+963600858+959998025+957667715+955779265+952794112
771+950469236+952385909+958744084+966730454+972914269+973509803+966750730
761+956798779+951268581+953074058+958307015+963595132+969537624+974679078
751+975345315+972932616+973184573+977850569+982111750+980865288+974816158
741+967885237+962866607+963663263+971882016+982163053+987224865+985761621
731+981666034+977997933+975705312+975178726+976359921+979048007+983306326
721+988634001+993179744+994099808+991811627+990007143+991165841+994509998
711+995644272+990439303+980769226+973243355+971261122+972311372+973077585
701+973779582+976320713+979252752+979195372+977262104+975845431+974419174
691+971057897+965019753+959929953+958785862+958889345+956054536+950673689
681+949899178+959710776+975646588+983773895+977461590+966781231+961358371
671+957721356+946482157+928952741+921394265+927980731+935821782+935718417
661+929502699+926170112+931961675+943899014+952130505+949778458+941207480
651+936362976+940095468+947609186+949327600+944646354+942975444+947844081
641+952605846+953569499+950918283+943427471+933806652+926588365+925538992
631+930421418+936077946+938737927+935539149+922906883+903087299+885550987
621+876590913+875292037+880366703+891694075+902895643+903878229+893631257
611+881218227+876625563+881868103+887826956+887524397+887850562+897073403
601+913565952+929434392
##END=
