##TITLE=<SNM>
##JCAMP-DX=4.24
##DATA TYPE=INFRARED SPECTRUM
##DATE=29/4/2025
##SAMPLING PROCEDURE=Instrument type and / or accessory
##ORIGIN=Admin
##XUNITS=1/CM
##YUNITS=ABSORBANCE
##RESOLUTION=4
##FIRSTX=4497.3318
##LASTX=599.83466
##DELTAX=-1.4281778
##MAXY=2.245733
##MINY=0.68509096
##XFACTOR=1
##YFACTOR=2.0915019e-09
##NPOINTS=2730
##FIRSTY=0.69699359
##XYDATA=(X++(Y..Y))
4497+333250284+334119345+334677916+335506395+336096457+335334977+333658667
4487+332712318+332803627+332941303+333154301+334344056+336041340+336592017
4477+335614633+334550869+334668169+335769408+336825334+337048050+336431599
4467+335636377+335196702+334725907+333392890+331521109+330989784+333202349
4457+337074838+340096305+341181898+340852142+339408266+337183816+335393826
4447+334678657+333962974+332035450+329316181+327559335+328257348+330983058
4437+333434441+334050692+333598507+333111154+332342949+331338149+331347440
4427+332917336+334727646+335261308+334492134+333248232+331932343+330679720
4417+330022203+330383307+331408255+332675925+334414276+336672497+338508426
4407+338890135+337908448+336524846+335643815+335684796+336427865+337122288
4397+337406048+337874990+338825415+339144570+337834779+335849318+334948452
4387+335643815+337229728+338852004+339810294+339560989+338065902+335854191
4377+333745160+332580455+332660080+333419764+334019002+334089308+333790444
4367+333381519+332892941+332297237+331829093+331836616+332386067+333182400
4357+333813585+333978962+333656672+333106680+332613172+332438447+332825229
4347+333420733+333232216+332128754+331679134+333185250+335498302+336228262
4337+334895160+333321388+332903030+333102776+332801461+331870586+330958150
4327+330494993+330337966+330274700+330633581+331868107+333456784+334153914
4317+333639659+332882710+332768574+333209930+333540085+333261997+332450445
4307+331711451+331647329+332414965+333649320+334553862+334495668+333706146
4297+333023464+332858914+332872907+332735345+332683135+333152591+334176000
4287+335253215+335793632+335629195+334985984+334222082+333596484+333194199
4277+333264562+334083637+335194964+335585678+335000462+334281103+333906262
4267+333412070+332743809+332697926+333564964+334485380+334546281+333891699
4257+333330051+333210158+333052134+332240326+330937346+330158682+330802036
4247+332683620+334689486+335875508+336128660+335730906+334713567+332984820
4237+331008849+329908123+330465782+332203848+333748437+334008743+333057492
4227+332078967+332321376+333828290+335316453+335583142+334911005+334688888
4217+335658549+337011230+337440075+336636474+335256806+333979047+333199984
4207+333189696+334043767+335518479+336902308+337219896+336192268+334834315
4197+334409203+335084361+336010505+336302871+335892835+335624921+336111190
4187+336669932+336297912+335290035+334694815+334675265+334426588+333437775
4177+332127985+331225010+331045954+331556134+332729730+334483100+336410595
4167+338007537+338985947+339193159+338660608+337752846+336918752+336362518
4157+336113100+336107571+336078901+335831649+335578639+335538884+335408560
4147+334756173+333706260+332741073+332161157+332068451+332509779+333377330
4137+334339924+335011462+335281001+335530591+336223218+337187094+337770942
4127+337748828+337546260+337468174+337286810+336741691+336011161+335510955
4117+335313347+335034403+334501083+334072038+333889932+333432560+332438960
4107+331726071+332282162+333895518+335416027+336143137+336224899+335946725
4097+335408361+334766917+334254799+334037526+334240150+334728700+334922974
4087+334342431+333211212+332248476+332116471+333028851+334511570+335694428
4077+336236042+336591418+336976860+336862040+335887420+334380220+332811521
4067+331667934+331697857+333198702+335243411+336583952+336962697+336801680
4057+336368959+335857696+335446976+335180857+335255979+335650341+335453274
4047+333936613+332005128+331100700+331438236+332383075+333452994+334215243
4037+334280191+333949409+333952686+334464491+335141159+335792207+336251659
4027+336008254+334929757+333949979+334006092+334846000+335691522+336220510
4017+336290617+335681832+334557738+333335295+332176176+331254934+331009077
4007+331530201+332304504+332874332+333151736+333243615+333475165+334115897
3997+334790000+334698919+333628145+332296354+331626639+332055200+333421303
3987+335107245+336375742+336913337+336967285+336757337+336101586+334987580
3977+334079248+334056307+334688859+335148027+335090460+334840443+334693020
3967+334702481+335034517+335838203+336775490+337198607+336778311+335769750
3957+334804848+334455542+334802739+335423607+335937777+336309340+336639125
3947+336958165+337291455+337731728+338235924+338590388+338717662+338737583
3937+338610964+338157952+337536685+337148820+336950043+336575402+336261035
3927+336651066+337787443+338885490+339191222+338725756+337972427+337298010
3917+336923825+336954546+337146512+337187179+337138846+337183588+337268086
3907+337457373+338281265+340132840+342425430+343899742+343809231+342449824
3897+340723756+339421774+338851178+338903957+339217583+339389543+339363951
3887+339453721+339837909+340157235+340182713+340503207+341332940+341570617
3878+340507681+339256369+339099057+339762730+340191462+340101777+339799807
3868+339445257+339268994+339597895+340262166+340597337+340253987+339261413
3858+338075506+338232931+341924711+348385746+351728762+349559998+345284227
3848+341603248+339341266+338852517+340181003+342320470+343857251+344397896
3838+344371307+344064520+343802619+344120548+345002263+345479841+344674873
3828+342971717+341636990+341615161+342946582+344834977+346155654+346971623
3818+348290048+349670344+349300234+347009583+344621894+343484861+343950583
3808+345645503+347208360+347744274+348366225+350260406+352449546+353380363
3798+353100223+352100952+350719003+349684879+349675845+350449664+351255601
3788+351921953+352825669+353959624+354940570+356054405+358254631+361703803
3778+365212252+367807724+369899997+372571987+376481895+381124242+385010495
3768+387309383+388715014+390248119+392260027+394484847+396273554+397092316
3758+397116426+396946090+397076955+398370416+402222358+408378060+413788527
3748+417257107+420721383+424934315+427776555+428323241+428766364+431066249
3738+435420904+440700449+445866513+450703162+454870810+457957082+460208777
3728+462079275+463498329+464600109+466582549+470097895+473389813+473983465
3718+471839951+469239236+468349142+469651210+471523304+471600393+469794728
3708+468185418+468169003+469501650+471134328+472314593+473098102+473650260
3698+473723758+473448605+473734502+475287442+477827455+480460146+482452817
3688+483636359+484245258+484658030+485370891+486712885+488350408+489675075
3678+490464540+490595121+489536573+487667300+487097843+489012143+491691514
3668+492332787+490648698+488275856+486362696+484978752+483829807+482976961
3658+482748859+483065193+483267817+483274998+484295073+487239309+489974993
3648+489138677+485911736+483615384+482905544+482367606+481172095+479929561
3638+479403194+479690401+480589130+481858737+483499396+486260272+490627552
3628+494345693+494225771+490760868+487214402+486117723+487183224+487963114
3618+487226884+486408065+487051162+489101857+491709468+494321868+496400890
3608+497322189+497386254+497481040+497818006+497909486+497344361+496470255
3598+496309410+497648326+500074801+502359354+504175734+506451053+509658102
3588+512584840+513583712+512677745+511097219+509668875+508600466+507963183
3578+507748875+507744657+507666856+507284634+506523668+505993596+507205066
3568+510816053+514525075+515539507+514738186+514751182+516015774+516862806
3558+516300929+515098635+514175284+513600812+513360056+514064596+515969036
3548+517799665+517867377+516236979+514544340+513750315+513525120+513537032
3538+513942736+514568392+514563605+513279919+511107935+509241455+508582740
3528+508835009+508981719+508428507+507224958+505728047+504655250+504942457
3518+506824669+509209707+510605107+510443407+509077930+507128234+505191819
3508+503813974+503130466+502687771+502127262+501787275+502296145+503886531
3498+506097330+507817214+508135257+507355367+506446152+505774955+505177741
3488+504673660+504343704+504092062+503906423+503727966+503482024+503600805
3478+504825443+506795657+507796752+506872432+504896860+503124254+502015719
3468+501523664+501456921+501139904+499683802+497409907+495929468+496122460
3458+497032188+497109647+495921716+494456267+494047371+494739656+494957213
3448+493703565+492259831+492117966+492639659+492353192+491245741+490595178
3438+491232119+492485881+492982097+492056979+489857808+486817361+483953832
3428+482963738+484561933+487094594+488261265+487951943+487781237+488281271
3418+488355652+487263932+485656788+484544093+484313654+485037174+486681594
3408+488721231+490217972+490463230+489457518+487963399+486938593+486621405
3398+486381676+485394032+483376396+481105750+480126656+481285690+483501903
3388+484704426+484148078+483073343+483003978+484313654+486364463+488112389
3378+488809177+488871646+489703403+491980090+494551680+495622311+494724210
3368+493078878+492256184+492669469+493460986+493921863+494377953+495376711
3358+496793998+498147277+499187985+499885115+500164628+499684144+498115872
3348+495887746+494106135+493422741+493546652+493805133+493762158+493529439
3338+493608665+494302546+495191642+495351974+494350139+492900591+492192803
3328+492608368+493709208+495178362+496803973+497735075+497193946+495780649
3318+494509901+493123621+491045226+489226908+489166662+490641573+492036859
3308+492432589+491952732+490889909+489907623+490045898+491441127+493069017
3298+494305111+495443341+496343551+496139901+494721246+493200680+492727891
3288+493611230+495324331+497253166+499218422+501102514+502572979+503308924
3278+503200288+502535988+502130283+502673693+503787129+504293832+503500719
3268+501808763+500129518+499005823+498339186+497761978+497202723+496973539
3258+497167898+497266617+496698984+495582527+494567240+494157546+494392088
3248+494745698+494268177+492562884+490679362+490194831+491464894+493300482
3238+494207703+493843093+493112848+492911364+493278196+493649589+493532802
3228+492786939+491643238+490615240+490066189+489842304+489535604+489084131
3218+488940954+489542215+490587027+490985949+489780577+487318592+485055812
3208+483900996+483348354+482513918+481452007+480792438+480648179+480786567
3198+481294695+482236798+483074996+483053394+481991084+480455187+479271075
3188+478915584+479115131+478949099+477771826+476180641+475383225+475474819
3178+475296504+474235363+472997018+472251897+471761466+471049032+470033004
3168+468929828+468029503+467447080+466928835+466219023+465605878+465673476
3158+466465107+467228838+467204016+466477532+465629446+464654513+462999121
3148+460728105+458710355+457495065+456910532+456802894+457178732+457558047
3138+457251802+456419760+455905961+456050106+456430447+456611640+456446150
3128+455842779+454877764+454000210+453740075+454088783+454306055+453637709
3118+452244788+451112885+451000459+451780348+452766510+453257140+452753629
3108+451177805+449099923+447430510+446681740+446714029+447144983+447627776
3098+447830486+447598508+447221901+447122128+447181632+446877354+446142235
3088+445523305+445380015+445539521+445840693+446377462+447024777+447223383
3078+446506218+445014778+443442175+442579611+442722759+443394839+443825422
3068+443653491+442962687+441952302+440867820+439957892+439304992+438806439
3058+438318574+437756327+437070910+436243883+435400442+434797044+434552071
3048+434597953+434981058+435712330+436285178+436135646+435664139+435857700
3038+436804905+437459658+436950675+435526292+434236450+433966854+434561874
3028+434962278+434523971+433728464+433269012+433166018+433108451+432908335
3018+432345347+431314072+430210953+429507040+429131145+428842028+428778704
3008+429055225+429284552+429020257+428319422+427540787+426843514+426103864
2998+425277095+424627358+424349440+424153513+423636892+422862760+422183470
2988+421802388+421759782+422004300+422346310+422563725+422541439+422244114
2978+421787483+421513783+421614839+421755593+421453766+420737570+420091794
2968+419789511+419680305+419682186+419980679+420524002+420762079+420311717
2958+419533395+418987592+418632529+418021835+417157333+416650060+416843023
2948+417169388+416847669+416002546+415481451+415703996+416265445+416561230
2938+416363280+415814086+415174266+414623960+414161857+413732784+413419158
2928+413310750+413214767+412768737+411937835+411127480+410747082+410873986
2918+411234663+411328480+410839617+410092529+409734617+409854652+409831369
2908+409184026+408238503+407723108+407867880+408128613+407868222+407180724
2898+406732643+406829452+407089871+407104292+406952737+406895113+406975165
2888+407112756+407227405+407166732+406816400+406298525+405808693+405356422
2878+404875852+404442333+404150965+403922378+403701999+403727562+404260940
2868+405059040+405462949+405109597+404288299+403563981+403283698+403367969
2858+403358051+402845107+402019591+401501745+401560651+401847432+401897817
2848+401572393+401004218+400442656+400122560+400052654+400034244+399974710
2838+399965876+400004349+399937064+399774822+399764163+399996255+400158497
2828+399845527+399041157+398126070+397391750+396746601+395995067+395213924
2818+394734522+394868978+395659412+396723375+397395169+397288015+396743780
2808+396466489+396627278+396586553+395732197+394358399+393337725+393099621
2798+393300563+393379020+393154737+392877446+392785254+392708849+392294852
2788+391617129+391185035+391243428+391425733+391267054+390817519+390522844
2778+390614980+390837467+390788251+390350571+389721353+389201198+388988514
2768+388987317+388860812+388449579+387983885+387696392+387459997+387033973
2758+386465286+386028832+385910107+386074201+386310425+386356992+386108656
2748+385687306+385243670+384843266+384592479+384581792+384643406+384509378
2738+384203133+383930345+383697285+383375964+383002007+382749454+382723862
2728+382896563+383160516+383406686+383509736+383263082+382571138+381735563
2718+381207315+381066390+381089815+381175282+381296857+381242453+380800727
2708+380101801+379505385+379222651+379184663+379223706+379281358+379385919
2698+379473894+379363149+378922021+378201180+377453209+377033340+377125020
2688+377534287+377870484+377873419+377489459+376851777+376288960+376064449
2678+376020077+375765813+375262758+374928869+375165036+375921871+376651689
2668+376742684+376186052+375603001+375427137+375458628+375388123+375222860
2658+375022088+374732800+374401020+374167105+374058640+374015094+374018713
2648+374100162+374272863+374456934+374483011+374260722+373912072+373640339
2638+373528511+373511668+373487644+373440165+373406309+373316938+373050391
2628+372691139+372490539+372457765+372261696+371715551+371142817+371028937
2618+371400614+371785115+371801189+371574597+371454533+371497537+371433900
2608+371099755+370675099+370404164+370290512+370268483+370464068+370987272
2598+371625353+372026213+372035589+371664367+370975302+370241010+369957023
2588+370362129+371060769+371427288+371342648+371230364+371375792+371537692
2578+371327059+370761193+370302795+370384757+370940819+371432019+371352708
2568+370690574+369897604+369472435+369546673+369787770+369760811+369466421
2558+369385343+369874805+370681625+371205200+371121329+370597213+370041179
2548+369789537+369888228+370072242+370081818+369980962+369962837+369953261
2538+369758046+369527779+369620541+369974834+370097235+369796662+369467105
2528+369488622+369818549+370298463+370851818+371209389+370959571+370141209
2518+369390245+369241825+369566850+369880875+369972298+370002563+370139014
2508+370346939+370494561+370470623+370226847+369847275+369561378+369584234
2498+369921628+370358225+370626139+370597583+370354463+370080165+369910314
2488+369879279+369919006+369884694+369697060+369501503+369550007+369872468
2478+370226277+370459052+370734490+371234753+371794292+372025785+371755192
2468+371198845+370735801+370580655+370652757+370728790+370710238+370673446
2458+370668345+370643694+370608555+370655720+370755807+370734547+370542695
2448+370384728+370466034+370695675+370780743+370596529+370287206+370001509
2438+369797460+369817722+370201369+370764385+371115144+371126316+370994852
2428+370884364+370780772+370640417+370487095+370420323+370618672+371200782
2418+371998769+372637762+372924143+372971793+372910863+372753779+372608209
2408+372699461+373074216+373519990+373849005+374064282+374216008+374327694
2398+374524504+374994815+375747603+376653313+377851675+379898693+383396968
2388+388684321+395921798+405239094+416702440+430268862+445809772+463158399
2378+482088663+501969951+521303440+538290079+552518919+565314513+577933987
2368+590474234+602276200+611682069+616057557+613971467+606803185+597230371
2358+586447569+573700194+558174274+540511936+523092747+509120507+501015308
2348+499757898+504951634+514423107+524541382+532522840+537629541+540275170
2338+541676726+543328555+545944888+549462399+553445291+556822419+558262505
2328+557531975+555737368+553787957+551488471+548271162+544017079+538989147
2318+533454969+527679009+522176691+517565920+513769637+509674860+504171003
2308+497260233+489727741+482225456+475051930+468368407+462260297+456636719
2298+451199464+445719175+440378900+435535240+431195604+427146681+423453248
2288+420371251+417894333+415716507+413558174+411414004+409535925+408117840
2278+407015889+405951784+404891184+404004397+403373383+402896375+402406372
2268+401829250+401221947+400659814+400196828+399913097+399808878+399727685
2258+399562109+399359969+399120269+398759278+398325788+397970867+397712985
2248+397438715+397113348+396856064+396763101+396741072+396660051+396598694
2238+396710721+396934178+397068890+397052162+396966638+396869686+396740844
2228+396551586+396332831+396125733+395875003+395513585+395148406+394949515
2218+394877328+394740849+394489207+394235542+394009976+393698260+393290845
2208+393010107+393044277+393285288+393476143+393484920+393323505+393036582
2198+392667412+392306793+392166238+392479294+393202272+393964322+394464641
2188+394756266+395060402+395508199+396084524+396631438+396934206+396947886
2178+396877209+396943582+397158262+397395112+397599874+397845873+398235846
2168+398789572+399372110+399770348+399926662+400009079+400174855+400408144
2158+400654969+400931747+401207811+401340187+401259365+401150216+401291540
2148+401705595+402130564+402348606+402344844+402191807+402033755+402099387
2138+402488049+403050068+403598578+404076070+404456440+404649489+404578328
2128+404317966+404099297+404106165+404348374+404817459+405549414+406398384
2118+407040170+407341655+407491387+407744026+408227104+408926200+409710906
2108+410435252+411034889+411470916+411710730+411854106+412114127+412591647
2098+413201600+413837031+414443650+414924192+415148760+415140666+415145796
2088+415434286+416056437+416785514+417280304+417369590+417218149+417142685
2078+417268164+417462096+417601197+417767714+418116763+418662453+419289847
2068+419889056+420363784+420614628+420672081+420766354+421113095+421680728
2058+422267483+422747198+423138340+423473340+423743391+424019713+424500568
2048+425316821+426323958+427176576+427642241+427810297+427956352+428263879
2038+428795461+429641467+430865962+432349223+433873550+435288985+436481190
2028+437350850+437953935+438524304+439303823+440431651+441895419+443443172
2018+444684823+445497486+446256001+447441197+449070427+450719520+452062369
2008+453168624+454269720+455503220+456952197+458672651+460560847+462366084
1998+463962284+465523204+467299258+469225186+470893288+472007778+472733065
1988+473477674+474531348+475965962+477600978+479070160+480222696+481366797
1978+482806825+484359993+485720625+487066666+488872558+491260503+493856089
1968+496196613+498123681+499862259+501765674+503932072+506109755+508047140
1958+509797061+511526691+513249995+514989258+516957535+519300681+521877856
1948+524530210+527322036+530258920+532951685+534889184+536103219+537309674
1938+539254012+542065103+545203243+547940922+549964144+551577101+553346060
1928+555599891+558301548+561179895+563783745+565748944+567380255+569527103
1918+572463702+575319592+577232183+578508402+579861454+581278797+582428199
1908+583663665+585639864+588166768+590346618+591744868+592771497+593917479
1898+595150665+596146517+596822843+597546248+598781145+600512485+602127723
1888+603090345+603601494+604123130+604623449+604846137+604981675+605480399
1878+606347551+607124534+607565007+607975271+608821619+610195930+611594750
1868+612162896+611560210+610520243+610096299+610516823+611019366+610843017
1858+610061531+609235303+608697537+608412438+608192771+607832493+607214418
1848+606488961+606006310+605822666+605475212+604735164+603957155+603100661
1838+601533073+599155615+596865249+595507694+595179335+595570676+596150107
1828+596234862+595524338+594240424+592693868+591101942+589683002+588559991
1818+587553367+586352270+585013012+583969340+583384608+582845701+581971938
1808+581006523+580460777+580559097+581223510+582163448+582811617+582627745
1798+581804367+581319208+582040049+583800515+585233590+585145758+584150419
1788+583652266+584172420+585360066+586761337+588148016+589260256+589871662
1778+590301191+591342412+593542724+596666158+599571237+601075216+601315573
1768+601225859+601351310+601956732+603333551+605256971+606748069+607310173
1758+607578401+608238939+609474975+611457501+614403162+617874677+620568868
1748+621533769+621210369+620775767+621045818+622143067+623925990+626239953
1738+628802879+631442808+634188524+636610953+637921028+638324339+638578431
1728+638998328+639626150+640551496+641872458+643635887+645933151+648825576
1718+651825441+653715689+653955589+653314544+652514877+651929461+652126727
1708+653539512+655572936+656913277+657271446+657754666+659432714+662235769
1698+665280262+667978385+669718617+669960284+669300601+668961526+669716451
1688+671552210+673966773+676268083+677532960+677681038+677858470+678889260
1678+681060047+684450969+688367516+691131870+691945330+691833787+692087595
1668+692869195+693732243+694774547+696167154+697351665+697814366+698193510
1658+699425728+701812135+705369544+709494986+711686120+711084118+710480235
1648+711885895+714919730+717101859+717264415+717137426+718341031+720649295
1638+722808910+724157972+725051684+726141467+727991303+730926534+734426718
1628+737356477+739778165+743405681+749326869+756416951+762833728+768409629
1618+774090689+779676678+783549281+785597923+787706184+791108448+795107584
1608+798042302+799086942+798632448+797613342+797056710+797409749+798009984
1598+798032213+797793396+798209702+799486890+801296829+803522105+805987054
1588+808175054+809870144+811345169+812573055+813116293+812965935+812742735
1578+813228634+815171319+818814566+823223795+827205661+830129948+831848635
1568+833040727+834758559+836929916+838337001+838421356+838613778+841594378
1558+847430470+851811600+853102866+853103094+853432651+854405475+855539487
1548+856795472+858353029+859299122+858438809+856883818+857415258+859409924
1538+858763065+855349459+852130498+850890300+851305979+851592674+850597279
1528+848742483+847320808+847539961+850021666+854813004+860889908+866176035
1518+869276899+870259071+870185089+870508547+872231908+875554261+880215133
1508+886100413+892698725+897628109+899041919+897645664+895234407+894109400
1498+896361465+902000632+908071152+911337706+911307555+910215664+911320322
1488+915454541+919652996+921699244+922923710+925041604+927457706+928587443
1478+928167205+927174716+927066878+929713191+935385017+940445779+941599797
1468+939937252+938468839+939171156+941390789+942754271+942449394+941915959
1458+942586586+943348521+941726957+938450657+936466136+937708328+941227094
1448+943129482+940741479+936028570+931807146+927975923+923698698+920497064
1438+921246631+926445611+932257992+934952524+934463262+931949410+928478408
1428+925306412+923141610+922044589+922099819+922904104+923787386+925585925
1418+929878767+935232892+937715510+935652732+931449205+929412418+931315718
1408+934172178+934027064+930935263+928054921+927183380+927642034+928486331
1398+929503328+930411632+931161142+932489115+934789399+936805838+936616494
1388+934355652+932769141+933881038+936400019+937948627+938562257+940418933
1378+944777891+950294629+954316678+955580301+955388620+956055713+958806729
1368+963082985+967262231+970217297+972102073+973649769+975694934+978708137
1358+981692954+983331048+984149182+985792975+988435697+990324919+989965382
1348+988108535+986735933+986622851+987230667+988606802+991736278+996874442
1338+1002874286+1007982925+1010910746+1012429944+1015275005+1021006621
1330+1027551585+1031163825+1030529335+1027738877+1026351570+1028868443
1321+1034675637+1040688932+1044695364+1047082740+1048754347+1048980169
1312+1047074646+1044950825+1045440999+1049105904+1054179662+1058804510
1304+1062351547+1065450244+1069263228+1073122494+1073741823+1070212114
1295+1066893636+1067478425+1069663119+1068311151+1061856471+1053119404
1287+1045750036+1041865806+1040898453+1039776411+1036076167+1031284545
1278+1029145106+1030863451+1034486749+1037651677+1038801876+1037443980
1270+1034680425+1032326791+1030536174+1028039251+1025409752+1024589793
1261+1024529035+1021574881+1014965625+1008028523+1003590966+1001138842
1253+999335914+998019853+996632889+993748500+988849153+983072509+977916677
1243+973652732+968694907+961246656+951541837+941312133+931957219+924365962
1233+918935803+914925894+910957651+906315190+901085147+895672200+890675161
1223+886777252+884147924+881853568+878843614+875387887+872638524+871034914
1213+869815977+868406897+867550119+868235051+869943080+870901826+870288254
1203+869330647+869832050+872076249+874310815+874683747+873864529+874732365
1193+879003833+885462616+892146937+898295201+903395348+906580624+907618311
1183+907249313+907219276+910161688+917177617+925466346+930597385+931626636
1173+931656959+934049065+939766147+947380203+954416822+959117249+961785733
1163+963924374+966473165+969626352+972744087+974133217+972790482+970624825
1153+971509646+977024788+984764864+991061092+993419057+991883330+989562071
1143+989947485+993988115+999535061+1003997469+1007244815+1010801084+1014474311
1133+1016596879+1016241788+1013467745+1009295224+1005826160+1004799074
1124+1005898774+1008296409+1013471279+1023278977+1035731905+1045414096
1115+1048726760+1047178039+1044493139+1043419886+1044760227+1046245910
1107+1043467991+1035298842+1027290652+1026167584+1032432350+1038646617
1098+1037518646+1031161659+1025167059+1020170248+1014518997+1008738021
1090+1006481625+1012360863+1026924846+1042868155+1049011631+1043362661
1081+1034771962+1030246858+1029543857+1029884813+1030066177+1028461826
1073+1023497959+1017091271+1011634608+1007369296+1004861315+1005350805
1064+1007549178+1008111283+1006830446+1008470592+1015362096+1020904369
1055+1016919938+1005800511+996492220+993753857+996907044+1003941612+1012048634
1045+1016636549+1015342147+1011884597+1011533039+1015191789+1020058306
1037+1022679027+1020239100+1012319598+1002348318+994585215+990756158+989784588
1027+990354557+992759032+996860649+1000874148+1002717772+1001535997+997781492
1017+992340446+986956512+984457194+986354851+990248543+991463833+988352596
1007+984498460+983662200+985016562+983807314+976761918+966835666+959902211
997+957971723+957395256+953138550+943998401+933488728+925774699+922025438
987+919900021+916233519+910690962+905672891+902682430+900802271+898970787
977+897600807+897475756+898358696+898742742+897167345+894002702+891132847
967+889487173+887726650+884399794+880291679+877094263+875241690+874240139
957+873442067+871630532+867842513+863854206+863876777+870234562+879973351
947+886776454+887464122+884949701+883780294+886126403+892064520+900574625
937+909333180+915803534+919647410+922373291+925595102+930243377+936018767
927+941075596+943142705+942662050+943164364+946426757+950092689+952132896
917+954271308+957767674+959442359+956209434+950357383+945075188+940169515
907+934350636+928620388+925598807+926512126+930502314+935984397+941647104
897+946580421+949922838+951760534+952773941+952718312+952020042+951801002
887+951978206+952157917+952963399+954224058+953993562+951630638+948831859
877+946873385+946326841+948424786+953592816+959963198+964746156+966100405
867+963976811+960500223+958821206+959732132+961156145+961701606+962055443
857+963365348+966308900+970349416+972576174+969941545+964381034+961838740
847+965041515+971065184+976662515+982063321+987964902+993461691+997426401
837+997939032+993489733+985802551+978422696+973268231+970696641+971459945
827+975743610+981229341+984321883+984024473+982895477+983481862+987936062
817+998578196+1012349008+1020864357+1020276718+1013954841+1007516462+1004977817
807+1006248735+1008230520+1009160255+1009734215+1011107614+1014816407
798+1023280573+1037763619+1054114001+1063349564+1059813129+1047268892
790+1036405837+1034354288+1037599012+1034948425+1021552424+1006491086+999995825
780+1001657059+1003265627+999517848+993267103+989454917+988754310+989212566
770+989719839+987973794+981690903+976210415+979124215+988652970+995032414
760+991687831+982818645+976835672+977492619+983800475+990954394+993906951
750+993658102+995116541+998279874+999960145+1002920454+1010918270+1018480743
740+1017548273+1010254141+1004453672+1001146480+996541808+991212590+988284997
730+988247607+989853098+992670231+997386959+1003690369+1007275137+1001873875
720+987804969+976259432+978332754+993455877+1009161965+1012806922+1005488168
710+996040804+990118932+990491578+998107971+1010018516+1018549254+1015887267
700+1003965094+993637812+991988547+998922913+1009831337+1015972648+1007171516
690+985780550+968053919+964319135+970672930+976633675+978439453+978846753
680+977237729+971327028+963788151+960204751+962141736+966146344+966279147
670+957411899+942926345+934510285+934822742+938257266+940166665+940769237
660+943503382+949502599+957450315+968242123+983276901+997036199+999359396
650+989102790+975765155+966595252+960663463+953731205+947122975+948448668
640+956267400+956629900+944630554+928181340+915044505+907577559+904817309
630+906307039+909946353+914213375+918564980+918113963+905124466+883337085
620+869618653+875310314+897723864+921928999+931796145+927061349+916637856
610+900896601+883778584+871774564+868598977+872836588+883110522+899976384
600+917274170
##END=
