##TITLE=<SNM>
##JCAMP-DX=4.24
##DATA TYPE=INFRARED SPECTRUM
##DATE=29/4/2025
##SAMPLING PROCEDURE=Instrument type and / or accessory
##ORIGIN=Admin
##XUNITS=1/CM
##YUNITS=ABSORBANCE
##RESOLUTION=4
##FIRSTX=4497.3318
##LASTX=599.83466
##DELTAX=-1.4281778
##MAXY=2.2154596
##MINY=0.65035915
##XFACTOR=1
##YFACTOR=2.0633075e-09
##NPOINTS=2730
##FIRSTY=0.66488403
##XYDATA=(X++(Y..Y))
4497+322241848+323155371+323989018+324864177+325706520+325901658+324948559
4487+323165164+321676021+321606285+322853261+323703374+322539538+319882630
4477+317594361+316582504+316517622+317175197+318767759+321055162+323064431
4467+323763230+322907166+321560816+321308422+322637035+324419737+325313471
4457+325226056+324756714+324022528+322914590+321910013+321817543+322907512
4447+324394662+324807586+323452858+321381624+320270826+320722777+322050784
4437+323162390+323347793+322814435+322425344+322576890+322841677+322833415
4427+322758537+322947464+323345106+323615093+323356950+322381146+321083934
4417+320125924+319676833+319578412+320040416+321236693+322468878+322888129
4407+322757555+322837979+323057961+322855283+322309244+322049541+322353760
4397+322839308+322865307+322103533+320950183+320357750+321019398+322564873
4387+323728362+323668247+322862303+322336023+322344574+322183350+321261826
4377+319998615+319136947+318361017+316851046+315330820+315789791+318794047
4367+322557680+325006508+325615407+324912998+323335458+321031040+318351369
4357+316132113+315202240+315651822+316857402+318180988+319429090+320679763
4347+321901433+322837806+323128360+322602485+321624889+320896423+320679648
4337+320620861+320456749+320299743+320196006+320125375+320306300+320793871
4327+321071772+320762787+320282352+320137393+320255429+320419772+320719195
4317+321247555+321717619+321601259+320640129+319255243+318358446+318372601
4307+318561413+317954189+316835360+316571816+317891069+319925298+321200410
4297+321193073+320558145+320039521+319737902+319562581+319688706+320138519
4287+320573774+320906678+321336472+321553420+320869124+319358719+317995325
4277+317622700+318351022+319705461+320996721+321733883+321910764+321790128
4267+321394190+320401399+318759237+317204056+316662813+317210990+318097791
4257+318841914+319817632+321451822+323221293+323952908+323173137+321703840
4247+320701718+320510393+320723528+321023963+321528663+322337236+323009718
4237+322770844+321442866+319836381+318796994+318336029+318139851+318540065
4227+320136064+322579028+324513045+324852940+323699590+322043648+321086678
4217+321440815+322532143+323133936+322621146+321357243+319959010+318628230
4207+317242968+315916378+315281768+315904360+317434813+318840326+319515725
4197+319717767+319921716+320267995+320661997+320938310+320976269+320929470
4187+321051637+321129750+320661131+319801311+319282802+319256860+319211420
4177+319102599+319524709+320694641+322002136+322483062+321664870+320253724
4167+319661060+320499127+321942252+322722427+322357746+321374142+320608930
4157+320256238+319641416+318202365+316543505+315946190+316891403+318649665
4147+320292405+321495067+322225527+322365893+322142069+322349600+323361457
4137+324260189+323812917+322294655+321349183+321767913+322442417+322047606
4127+320840640+319835110+319257034+318970783+319275551+320131933+320633023
4117+320224230+319547328+319417535+319864633+320369969+320324153+319404189
4107+318150916+317860476+319134491+320831165+321325553+320557914+319870093
4097+320157672+321071079+321832449+322133663+322016927+321474643+320759812
4087+320598415+321316973+322219460+322447819+321895251+320932504+319961003
4077+319507636+320084095+321605072+323051461+322951335+320844771+318306564
4067+317521072+318833248+320587495+321265495+320843124+320143748+319873155
4057+320205799+320699811+320755854+320276084+319538026+318726940+318051108
4047+317878676+318399785+319401647+320432714+321003915+320910578+320500832
4037+320197768+319938413+319690497+319943006+320892465+321808905+321932285
4027+321444686+321131426+321529848+322484391+323260725+323240330+322578797
4017+321921192+321604725+321490965+321383444+321226207+320898734+320187629
4007+319284535+319079373+320354428+322638768+324294537+324062335+322508455
3997+321353545+321452399+322129416+322453943+322407087+322435282+322610573
3987+322653674+322298786+321467046+320363556+319400693+318949493+319312383
3977+320749903+323088986+325322571+326143478+325253788+323717645+322608811
3967+321939681+321346410+321018705+321336934+322234800+323365992+324432419
3957+325166865+325310669+324803830+324114825+324146602+325303996+326824193
3947+327627537+327560430+327195229+326943471+326821998+326602045+326073512
3937+325503467+325623236+326832513+328555157+329522353+328848080+326892917
3927+324866893+323718569+323530451+323902210+324682328+325906944+327138869
3917+327570397+326919090+325769669+324966469+324865853+325167500+325566760
3907+326393214+328037312+330061488+331773819+333168874+333951592+333010857
3897+330322230+327705621+326946562+328277428+330219043+330977726+330751100
3887+331051419+332023613+332443845+332431799+333246062+334259422+333506891
3878+331295320+329727515+329771222+331210996+333830869+336808953+338124884
3868+337147953+335843519+335766273+335983192+334735754+332124316+329626378
3858+328479297+329764751+334674916+341675122+344684693+341550846+336032302
3848+331658701+330036673+331121905+333691745+336381903+338698309+340584690
3838+341324307+340300028+338408737+336885188+335760755+334469003+333095585
3828+332088091+331540058+331860714+334061510+337814368+340266229+339933643
3818+338993168+338821660+337927435+335350142+332419926+330746276+331079614
3808+332969432+335047513+336937042+339593488+342812728+344409391+343883227
3798+343003648+342236558+340798778+338774920+337038699+336027073+335985099
3788+337355195+340005718+342878043+345344377+348055104+351360574+354019533
3778+354926122+355140528+356649459+360473410+366200352+372135604+376578074
3768+379699702+382554434+384892939+386169814+387383799+389950519+393576010
3758+396480371+397908821+399267564+402863878+409624140+416851866+420611830
3748+421722166+424002953+428937789+433591776+435082103+435338541+437818395
3738+444383230+454018418+462835557+467209678+467298479+466181673+466404456
3728+468272031+470278007+470920706+470471932+470221156+470565789+470758269
3718+470209399+469575424+470312413+472967212+475889426+476616651+474940747
3708+472509367+470773955+470855274+472787674+474546254+474272685+473300116
3698+474146734+477286041+481494230+485620059+488965742+490547412+489260456
3688+485830190+482836016+481898112+483001197+485108685+487056366+488997692
3678+492105511+495564029+496049231+493790312+492686678+493592025+493308288
3668+489865022+485224064+481557552+479539154+479372037+481214508+484496319
3658+487369164+487829176+486456306+486382238+489963068+496373931+500521426
3648+497840108+490885690+484676869+481167797+479844037+479586299+479526443
3638+479403727+479805616+481515260+484603118+488679405+493404889+497557642
3628+498647236+496240295+492837011+490842878+491199586+493461221+496183675
3618+498012222+498739042+498811897+498612860+498898561+500673608+503645943
3608+505962811+506442581+505993085+506182128+507666851+509821658+511370397
3598+511778872+511788058+512169379+512620492+512787233+513635960+516465127
3588+520406535+521978153+519344038+514940711+512320925+512676881+514335799
3578+515416900+516210220+517702454+519239810+519702075+519699937+520529482
3568+521581407+520670629+517684485+515265989+515139114+516183643+516319705
3558+515267780+514626815+515709708+518007452+519706061+519731656+519190932
3548+519803356+521212739+521848100+521713656+521805577+522056151+521973358
3538+521636525+520826508+519037191+516698599+514920028+514372428+514768019
3528+515327636+516115236+518178122+521407501+523468596+522446831+519196999
3518+515735996+513233436+512206644+513078886+515680646+518390564+518851499
3508+516412493+512865924+510478107+510252203+511462029+512200289+511289915
3498+509918952+510296864+512884065+515891181+517287103+516535729+514691120
3488+513338126+513051500+512900994+512025863+511129472+511358495+512312894
3478+512286490+510314717+507335275+505495231+506308888+509089234+511381721
3468+511394200+509803228+508255875+507050210+505610436+503991962+502697206
3458+501597559+500062282+498110672+496585506+496096665+496561240+497755004
3448+499490070+501156787+501857608+501237384+499926797+498932475+498587265
3438+498398165+497914234+497292855+496540672+495022670+492482151+489588738
3428+487110964+485516929+485403978+487096520+489635421+491277526+491219345
3418+490082317+488882544+488246548+488341416+488854292+489265829+489434361
3408+489670087+490152977+490584678+490634885+490344735+489753573+488648206
3398+486997435+485187665+483751820+483194601+483862172+485613588+487753027
3388+489465965+490252525+489992014+489051596+488392085+488792067+490085495
3378+491582062+492602498+492489893+491205595+490160488+491039374+493498139
3368+495370134+495617819+495679177+497154944+499679343+501921508+503602668
3358+505257830+506649130+506923161+506156649+505406661+505356454+505830331
3348+506386885+506651730+506307732+505369106+504378829+504001437+504420254
3338+505103453+505140661+504160032+502933336+502463445+502501404+501734372
3328+499547615+496913441+495453273+496153458+498595180+501000214+501737145
3318+500952723+499963196+499495559+499315182+499108403+498952697+499032543
3308+499303338+499511505+499503589+499327142+498928027+498127427+497078507
3298+496385313+496673499+498015573+499511678+499874799+499070040+498573976
3288+499403117+500905346+502078542+502850485+503742313+505026554+506263938
3278+506711181+506173750+505203463+504433196+504179791+504600804+505492573
3268+506321136+506799000+506970652+506839790+506490246+506246663+506017813
3258+505220449+503968447+503256418+503397507+503421483+502421788+500509062
3248+498357837+496780730+496475732+497429033+498955008+500485027+501595363
3238+501498011+499699796+497185739+495762316+496080834+497055281+497269341
3228+496529637+495854295+496204879+497433077+498351539+497769159+495564376
3218+492814536+490954848+490800239+491969680+493163617+493377157+492842499
3208+492491511+492735267+493177888+493274951+492869249+492180966+491515793
3198+490970274+490323185+489293619+488033471+487154354+486953872+486905745
3188+486366118+485447887+484666931+484076231+483294727+482081637+480610115
3178+479384055+478723302+478298100+477554988+476547608+475773788+475277118
3168+474636558+473886136+473588013+473806030+473939059+473612741+472915416
3158+471982192+470915015+469884785+469085081+468665369+468565359+468359850
3148+467658278+466601038+465420274+463909927+462041342+460530417+460097387
3138+460643167+461555794+462416104+463090002+463417908+463166092+462351887
3128+461350718+460402704+459398098+458461118+458084824+458299982+458401147
3118+457900751+457117339+456465541+455869959+455254936+454929831+454981338
3108+454804544+453797338+452275177+451230965+451189453+451571900+451443118
3098+450768412+450285031+450185945+449923643+449492173+449729256+450847247
3088+451686788+451098890+449431855+447953343+447292734+447057124+446673955
3078+446131267+445820519+445901232+446025364+445768897+445315328+445362733
3068+446157988+446956565+446786618+445623013+444354949+443570642+443033847
3058+442540730+442363936+442445891+442168770+441302132+440355187+439968320
3048+440497633+441699081+442460595+441714016+439843639+438324829+438075439
3038+438746881+439307364+439095789+438548623+438613708+439324004+439612825
3028+438694189+436981107+435469634+434688707+434381831+434024054+433465102
3018+432927816+432549442+432259465+432043355+431915901+431689680+431191999
3008+430660548+430515560+430741608+430847453+430458390+429730560+429205522
2998+429309114+429884908+430236791+429772678+428592491+427419324+427017320
2988+427513470+428129534+427873847+426688576+425486550+424928118+424739277
2978+424437139+424134913+424229781+424705016+425126202+425111411+424581694
2968+423695095+422650479+421486932+420134111+418734781+417758196+417688836
2958+418579681+419832319+420529731+420277568+419621466+419326203+419469169
2948+419602227+419542689+419521803+419654514+419807389+419985483+420294843
2938+420501767+420157972+419201089+418027431+416998906+416160550+415402791
2928+414734411+414319032+414185743+414010018+413418567+412480143+411710367
2918+411533342+411739111+411703116+411301834+411116056+411437232+411726891
2908+411420217+410687677+410138114+410110497+410287204+409925556+408709000
2898+407328129+406848936+407547041+408656135+409277052+409282858+409114037
2888+408959891+408628374+408081265+407563739+407211422+406862542+406269445
2878+405438542+404774668+404716777+405190337+405668692+405754662+405400641
2868+404686271+403802619+403155414+403073835+403444669+403861493+404027569
2858+403892056+403597833+403384784+403320595+403104514+402424492+401479424
2848+400816938+400723399+400987261+401114917+400800703+400375848+400568820
2838+401561293+402569712+402680555+401833244+400700000+399846651+399262566
2828+398629805+397853616+397175010+396809318+396692466+396655374+396667016
2818+396754749+396794007+396587459+396154169+395765858+395662959+395793995
2808+395832011+395480676+394805277+394170581+393852554+393848249+393940748
2798+393778485+393156239+392353473+391875003+391867868+392094031+392316641
2788+392407118+392265943+391896929+391452662+391148010+391166469+391500789
2778+391793337+391505209+390414488+388933722+387829280+387560795+387937147
2768+388412960+388571641+388291631+387655115+386829267+386023785+385529773
2758+385598931+386099414+386493416+386391268+385929293+385441694+385027152
2748+384613275+384235017+384027197+383972541+383846648+383500946+383054975
2738+382703120+382511044+382515897+382789090+383223333+383451663+383192770
2728+382608368+382110427+381815654+381442943+380786609+379997796+379319132
2718+378842135+378625851+378747787+379062174+379134336+378691629+378061526
2708+377863441+378270674+378843666+379065727+378771706+378081603+377214446
2698+376378054+375681653+375190905+375026735+375192783+375390838+375328354
2688+375130212+375108112+375236981+375254401+375132754+375004636+374801410
2678+374447937+374197277+374311904+374648824+374888478+374880591+374607745
2668+374128610+373568387+372966883+372317338+371827717+371772252+372032041
2658+372183789+372068729+371906812+371830346+371659531+371255967+370819153
2648+370614540+370578604+370469032+370277331+370175097+370137745+369937379
2638+369524079+369194381+369278243+369757436+370297120+370586981+370543678
2628+370268983+369945207+369684320+369415201+369056644+368757423+368714842
2618+368815777+368766032+368544635+368430181+368596979+368935864+369211079
2608+369210212+368860611+368345626+367959654+367786905+367716765+367723409
2598+367821368+367830670+367535551+367028944+366635664+366581441+366872342
2588+367311236+367537429+367294077+366765399+366452976+366638610+367109570
2578+367488926+367695301+367901387+368124200+368116978+367738344+367220153
2568+366919747+366955511+367220413+367578652+367883621+367949601+367701339
2558+367289108+366936878+366718861+366532794+366277338+366028295+365950558
2548+366020524+366036673+365986494+366117674+366503877+366837041+366815809
2538+366500150+366160573+365967891+365911357+365904077+365909595+365950356
2528+365987708+365906533+365725897+365715670+366136105+366891351+367561319
2518+367770323+367496928+367079353+366930898+367155184+367422541+367341540
2508+366917465+366455230+366101815+365780004+365495978+365371442+365410672
2498+365527639+365737885+366072580+366388008+366479929+366335287+366136712
2488+366058772+366122961+366246312+366392341+366593978+366810898+366900306
2478+366820720+366730792+366753237+366785332+366689626+366509828+366345802
2468+366193245+366058165+366024915+366074978+366086909+366109644+366322519
2458+366646179+366756993+366595481+366505784+366729838+367071178+367213711
2448+367129445+366994134+366912496+366910850+367022617+367195107+367238439
2438+367018168+366642799+366376770+366387603+366608740+366842530+366962646
2428+366983590+366978245+366989425+366997023+366977061+367032526+367343446
2418+367873511+368313156+368492145+368628843+368954207+369316317+369422827
2408+369312100+369295894+369518764+369846151+370137601+370388492+370650997
2398+371011258+371548082+372201642+372899574+373935119+375973017+379570659
2388+384911167+392086318+401463045+413606396+428825848+446869584+467101117
2378+488839617+511346131+533614493+554593934+573731366+591002582+606478356
2368+620110157+631712755+640725495+646099917+647129598+644354799+638943226
2358+630738308+617906529+598960450+574809521+549651906+529285755+517757167
2348+516524982+525357172+541673585+559300237+571418773+575986010+575983468
2338+575354636+575964806+577752217+580279100+583111213+585349044+585867871
2328+584193643+580928269+577171743+573105885+567465694+559408913+550324763
2318+542453963+536366182+530867195+524885837+518455619+511843870+504707284
2308+496541770+487538737+478652959+470854986+464353241+458531258+452660801
2298+446587869+440665587+435223105+430266806+425625096+421284225+417479745
2288+414354738+411667989+409097802+406731911+404914226+403679874+402693497
2278+401740745+400956784+400481607+400156589+399694354+398959734+397995918
2268+396958495+396100178+395637827+395539521+395546310+395437662+395180560
2258+394800250+394213653+393323183+392299366+391589532+391459681+391638844
2248+391640809+391367847+391132930+391128597+391204746+391232391+391351785
2238+391673625+392018431+392171826+392162293+392106511+391995234+391764507
2228+391414067+390982251+390505600+390038858+389690297+389572925+389614639
2218+389507234+389036217+388358824+387780835+387419389+387215238+387084058
2208+386971395+386895074+386939908+387122075+387305571+387345523+387314555
2198+387493920+388051283+388796909+389416988+389861949+390280101+390677194
2188+390926237+391068626+391336734+391804372+392203603+392259848+392084556
2178+392002543+392129968+392397903+392805136+393346235+393866102+394229223
2168+394472546+394691228+394963496+395358914+395808207+396095036+396167891
2158+396266861+396573188+396933709+397070176+396900604+396574604+396332956
2148+396364184+396677387+397093922+397412931+397549340+397544284+397582099
2138+397913847+398561139+399203693+399556067+399687421+399796588+399916040
2128+400032227+400295309+400908282+401848988+402788162+403353268+403520009
2118+403643562+404055475+404764558+405600256+406467356+407318191+407997173
2108+408304598+408233043+408041140+408054429+408425292+409059786+409707973
2098+410135658+410299597+410370344+410527407+410767408+410997211+411235479
2088+411551772+411852438+411933931+411738879+411404040+411123220+411092657
2078+411453265+412128346+412837660+413371538+413742863+414070105+414449548
2068+414902684+415353710+415738960+416125538+416551403+416829363+416800995
2058+416707745+416969671+417636462+418379835+418981166+419516199+420093379
2048+420695490+421272988+421806692+422303102+422836517+423569721+424650014
2038+426044895+427494982+428690624+429498936+429971109+430231014+430499787
2028+431087829+432137067+433436474+434675650+435854103+437255340+438969520
2018+440640859+441854903+442634905+443373627+444444964+446005749+447944532
2008+449943229+451725237+453211000+454457254+455687648+457282780+459376085
1998+461559780+463333585+464722082+466122337+467640310+468900921+469605959
1988+470015156+470665510+471818224+473332875+474896462+476271440+477511887
1978+478977457+480974681+483409094+485875602+488052652+489984560+491914273
1968+493771188+495089170+495743654+496442915+498034292+500554474+503323207
1958+505877129+508369289+510928354+513178260+514815511+516231886+518105729
1948+520725400+524020991+527793752+531490076+534211548+535605448+536435802
1938+537759561+539931355+542616428+545351420+547831274+549910337+551706703
1928+553714181+556528673+560186807+563831999+566549889+568587238+570826802
1918+573129920+574453969+574749261+575279181+576929085+579257682+581186874
1908+582287503+583184069+584662667+586709376+588626320+589895597+590754377
1898+591915671+593676851+595438956+596606374+597646744+599234423+600787553
1888+601189384+600686561+600559165+601340005+602429253+603160290+603636710
1878+604330020+605162974+605544294+605448213+605795850+607302528+609288687
1868+610117828+609123217+607294439+605849119+605189320+605037080+604913440
1858+604519582+603861111+603014175+601947229+600822507+600141619+600216901
1848+600935401+602152391+603407802+603274224+600785242+597230411+594622873
1838+593617169+593335050+592667912+591680408+591290999+591703749+591942074
1828+591337624+590299161+588951713+586746699+583833353+581304794+579876461
1818+579270046+578815350+578216503+577619275+577150944+576639166+575822562
1808+574754923+573892908+573807630+574803512+576600456+578254751+578674781
1798+577684041+576505241+576826764+579186328+581899597+582431712+580798852
1788+579310893+579509295+581144351+583133746+584882447+586377743+587537650
1778+588426936+589816733+592635962+596690669+600140695+601345321+601027207
1768+600618212+600476257+600811530+602246161+604597291+606425780+607002845
1758+607175075+607628037+608453307+610291271+614079921+619349423+623651988
1748+624990596+623860212+621911087+620472816+620383610+621903981+624425837
1738+627207974+630610624+635115000+638954261+639516189+637688913+635766827
1728+634715596+634899323+636291316+638142973+640020110+642810451+647555290
1718+653355001+656989562+656639094+654264334+652437983+652335951+654136765
1708+657428369+660953677+663185383+664541267+667184568+671568713+674746730
1698+674842811+673671118+672180848+670194111+669029697+670170480+673306552
1688+677323878+682438772+688857608+692999037+691314120+686929744+683920086
1678+683372371+684747725+686956437+689212063+691855884+695180479+697664550
1668+697563327+696288445+696710151+699745577+703505801+705214290+704815232
1658+704719556+707048095+712623808+719766864+722991968+721278338+720005190
1648+721196700+722386420+720752751+717751759+716229886+717043312+720197756
1638+725885613+733087889+737657668+736782422+734081402+733753582+736554323
1628+741025536+745826476+750852394+755558409+758162076+758711293+760350451
1618+765995553+774856804+782061738+784942036+785622809+786302021+787532762
1608+789000788+790233724+791132311+791968732+792789495+793210623+792962014
1598+792280952+791814644+792216070+793533995+795178641+796691154+798131101
1588+799485020+800344031+800693054+801559865+804032728+807926876+812186572
1578+815903926+817849065+816903853+815069701+815513766+818321960+820567186
1568+820083949+818428152+817823759+818651802+821038810+826503190+836036027
1558+844705925+846813818+844964472+843023378+842591503+843286431+843626210
1548+843475531+844913860+849753163+857588258+866612033+873352391+871880379
1538+862680792+853399973+847801669+845647786+845658764+846549725+847772781
1528+849511487+851910281+854659024+857371887+859750229+861586634+863191357
1518+864881011+866415537+867767029+869556462+872429422+876950669+883905318
1508+893076248+900282222+900219477+895970008+892842487+891856543+892380454
1498+893888692+896186841+899486476+904060645+909618506+914885639+918351322
1488+919605924+919447040+918708203+917858667+917368902+917945735+920579735
1478+925347165+930200565+932521131+932480457+932793544+934558942+936619921
1468+938724868+941740766+945519824+948260305+948967134+948776879+948651794
1458+947829124+945474413+942575626+940132113+938196103+937094203+936646151
1448+935085164+931420502+928151430+928178180+930932007+934155840+937494243
1438+941479908+943754946+941023941+935705099+932809837+933864072+936969523
1428+939253574+939367913+938193792+937639260+938735556+940847089+942615665
1418+943156736+942354749+940747599+939126583+937764749+936519045+936041585
1408+937414108+939668405+939631255+936021479+931310381+927712103+925302215
1398+924600990+927298197+932864031+937216457+937838587+937262908+938364231
1388+940317747+941147292+942125957+945529704+949955390+952269080+952360597
1378+952814426+955409081+959554612+962751926+962815075+960590937+959330615
1368+961213240+965426773+969074565+970147115+969995512+971282873+974077374
1358+976602061+978593247+980935248+983146098+984542771+986348149+989824752
1348+994183360+997878008+1000248088+1001576007+1003033345+1006039999+1010391789
1338+1013902017+1015494203+1016538559+1017397223+1016847313+1016138519
1330+1019186194+1026948491+1034893707+1038177338+1036928918+1034481534
1321+1033356639+1034224663+1036940011+1041296654+1046513811+1051323879
1312+1055797346+1061459723+1068186215+1073060762+1073741823+1070614071
1304+1064665703+1056834884+1049696335+1046361861+1047713699+1051985990
1295+1056450675+1059450742+1060768493+1059477781+1054674184+1048417178
1287+1044265869+1043394032+1044013042+1043715728+1041318378+1037821785
1278+1035613824+1035283231+1034814438+1032701807+1029820527+1027679240
1270+1026844726+1026643666+1025283392+1021407790+1016144874+1012038631
1261+1009938364+1008542154+1006327953+1002974760+999484292+997030552+995537741
1251+993528644+989823250+984965458+979971316+974679282+968883674+963814885
1241+960256299+956091009+948181845+936397946+923648267+912518332+903873163
1231+897687568+893588200+890672947+887588296+883551846+879138062+875487439
1221+873123252+871573069+869653352+866196047+861215020+856345153+853492241
1211+853279568+855278496+858940906+863286745+866475682+867256117+866709500
1201+866710656+867379642+867957458+869014987+871898058+876584660+881498551
1191+885159863+887147698+888049405+889412394+892575389+897191447+902051664
1181+907159163+913446790+920486774+926335998+929810694+931333202+932415517
1171+935327649+941756770+950986111+960110646+966805997+971674477+976373154
1161+980665435+983243277+983615931+982357458+981255211+983688959+992141447
1151+1003935225+1011590869+1010404384+1003756814+998293185+997219133+998851184
1141+999837648+999108749+997663313+996156982+995434322+997269398+1001348140
1131+1003724113+1001913880+999062875+1000120981+1007038827+1017779237
1123+1028707071+1037556479+1043414832+1045446923+1043752820+1039430264
1114+1034807389+1032467469+1032209095+1032071127+1030899086+1030074510
1105+1031390181+1035118108+1040677875+1046187493+1048936582+1047523964
1097+1042247067+1034823798+1028672406+1026218436+1025654428+1023788616
1088+1020468932+1017593314+1015182560+1011553545+1007521948+1005343915
1080+1006210784+1009811604+1012848648+1012271237+1008821442+1006317438
1071+1009652027+1020139957+1032026524+1036687646+1031824308+1022918512
1063+1015504256+1009710612+1003366596+998032038+998332935+1005624013+1014618322
1053+1018047317+1014998949+1011265244+1011179158+1013287282+1014237579
1044+1013738627+1013283122+1012557805+1010959610+1009958702+1010292184
1035+1009937671+1007449151+1004153040+1001169728+998182949+995189584+992137056
1025+988751161+985438874+982714859+980578771+979337516+980635392+986298000
1015+995262266+1003170736+1006628965+1006006604+1003536457+1000995129+999063452
1005+997486404+994419085+987086524+974119203+958137949+945049183+939198225
995+939927240+942386757+941625445+936751246+930477254+924357118+917419167
985+909546055+902773515+898285258+895197545+892914534+891964237+892219606
975+892286857+891121114+889055282+886796883+884198704+880691481+876490889
965+872497829+869449923+867688569+866833545+865712347+863960758+863132021
955+864823293+868177988+870684246+871715371+872786708+874128840+874586540
945+874794302+877096900+882133161+888074595+893043027+896592774+899521834
935+903314008+908637646+914345724+919324555+924152014+929223056+933479170
925+936381654+938834122+941467370+943816131+945839614+948472573+951478129
915+952812115+951296367+948206458+945916744+945117820+944471655+942768193
905+940577969+939895290+941979784+945808992+948152784+946214463+940993955
895+936535106+936193305+939938969+945178947+949401262+951737138+952735562
885+953146926+954056607+957344224+963389077+968508593+968268015+963618505
875+959759716+959764338+962487197+965789894+969761520+975468038+982056215
865+986438395+985118911+976548908+963261451+951566873+947900766+953851734
855+964614156+974177326+981036934+986476758+990797234+992226839+990396155
845+988391218+987955357+988819337+992347129+999142490+1003938923+1001139222
835+995737529+997490101+1008363396+1020445707+1024511853+1019432319+1010755661
825+1003671999+998717144+993868597+990059784+991355464+999052475+1008660017
815+1014788760+1017950831+1022508650+1029036278+1032898823+1031664269
807+1028182236+1025626811+1024296234+1023980547+1026273438+1032663791
798+1041320458+1046628438+1043433782+1033590284+1025120811+1023608586
790+1027082531+1029218965+1025173040+1014370694+1002352399+995590779+995241813
780+996573777+994055675+988103841+983355246+982116764+982402061+981818872
770+980249218+977439580+973465065+970290746+970333154+974109150+979032459
760+981282250+978675520+972301460+967058709+969294287+980860486+995514515
750+1004763846+1007639580+1008265754+1007372309+1003542696+997709418+991742562
740+987916301+988692923+994747830+1004985474+1017173746+1028216901+1034802999
730+1034423180+1026008016+1011241325+996460074+988059238+987890533+993396569
720+999326448+1002217550+1002436983+1000312219+995947718+992924425+995024691
710+999474354+1000072796+996878717+996492775+1003674888+1014923262+1022805040
700+1024820030+1022409853+1015548975+1004993216+997977036+1002695934+1016687620
690+1025658010+1018951624+1004147494+993704398+989887612+989276344+991403187
680+998301274+1008698264+1016168562+1015825952+1007297432+993272466+974252319
670+950906784+934380704+939825613+962500890+981471754+980587207+961459076
660+940470160+931030746+936174874+952667387+975274951+994173422+995907968
650+978651139+955222523+937703276+932388189+941269084+957914761+966672420
640+958529669+944184452+936109761+933144763+926908499+919555774+918803822
630+926266378+938220369+949103023+955226509+955828938+951959113+945657793
620+938675585+932156970+928033105+927975272+930995676+933574846+927224648
610+910014733+892581283+882897015+881546101+886279616+893881123+896566312
600+889452202
##END=
