##TITLE=<SNM>
##JCAMP-DX=4.24
##DATA TYPE=INFRARED SPECTRUM
##DATE=29/4/2025
##SAMPLING PROCEDURE=Instrument type and / or accessory
##ORIGIN=Admin
##XUNITS=1/CM
##YUNITS=ABSORBANCE
##RESOLUTION=4
##FIRSTX=4497.3318
##LASTX=599.83466
##DELTAX=-1.4281778
##MAXY=2.2104611
##MINY=0.65462929
##XFACTOR=1
##YFACTOR=2.0586524e-09
##NPOINTS=2730
##FIRSTY=0.66122562
##XYDATA=(X++(Y..Y))
4497+321193432+319954002+320979989+323201049+325042851+325586101+325140713
4487+325015635+325870711+326583337+326080130+325181103+324911259+324772312
4477+324248432+324181406+325176181+326303765+326625174+326499286+326518221
4467+326344299+325369762+324048655+323700753+324954891+327034284+328663366
4457+329288293+329207398+328930605+328688411+328451747+328299366+328388484
4447+328479803+327926738+326373484+324407328+323067227+322773641+323027185
4437+323126176+322862094+322553684+322819677+323869492+325005473+325523475
4427+325622379+325570669+324839976+323105214+321324879+320760842+321574341
4417+323045773+324493087+325452163+325598203+325152816+324915978+325279718
4407+325616675+325289649+324829726+325281686+326555484+327164921+325862083
4397+323284840+321496456+321821804+323674579+325663493+326897074+326776484
4387+325052261+322835457+321926093+322654962+323708686+324045586+323627038
4377+322529566+320938991+319813665+320122278+321555608+322988793+323849080
4367+324098339+323615370+322796138+322828624+324305441+326290330+327398313
4357+327210261+326206945+325039058+324109370+323362666+322551454+321919289
4347+322107399+323248938+324694399+325722673+326189341+326462312+326813023
4337+326879760+326043707+324322784+322387087+320819761+319853853+319657202
4327+320248630+321180142+321927541+322564975+323497501+324604036+325167408
4317+324780911+323963127+323473760+323543740+323823167+323742504+323238862
4307+322892118+322979962+323022089+322714374+322651372+323453521+324534317
4297+324401971+322443575+319914249+318486652+318687211+319975543+321487568
4287+322457791+322637648+322529305+322606437+322571432+321885877+320646129
4277+319538378+319287962+320104588+321301688+321949372+322146717+322715127
4267+323672408+324280165+324322379+324096833+323579207+322713940+322005281
4257+321966107+322487062+323257392+324190294+325098615+325553036+325265531
4247+324244408+322643033+320860730+319610645+319522743+320678325+322424668
4237+323577499+323373900+322314154+321370075+320677572+319786218+318707797
4227+317989235+318163736+319358144+320934590+321778924+321516145+321104169
4217+321752548+323579873+325505205+326276404+325770099+324978372+324517408
4207+324036958+323368283+323062305+323210343+322948403+321757007+320284069
4197+319467906+319548135+320094077+320514623+320603365+320754559+321333681
4187+321945811+321803621+320843966+320021723+320253986+321371668+322428200
4177+322867682+322832822+322450726+321714301+321161902+321574543+322690430
4167+323295292+322841884+322108209+322061624+322832098+324038464+325372426
4157+326399629+326341143+324787831+322531824+320912180+320482254+321015051
4147+322290817+323960058+325022902+324594800+323141434+321976588+321756717
4137+322298635+323387508+324733775+325538531+325191584+324299390+324203584
4127+325222159+325933250+324873822+322606639+321001211+320879695+321632594
4117+322711421+324108617+325452539+325906179+325215499+324084007+323303254
4107+322884272+322339256+321625762+321282897+321657900+322605452+323854958
4097+324928312+325007152+323747657+322019468+321111581+321416748+322396149
4087+323560793+324964649+326553197+327415685+326555339+324428782+322702503
4077+322370583+322887051+323131996+322571027+321449349+320509412+320545487
4067+321759033+323424307+324313259+323702751+322225528+321469327+322217016
4057+323428940+323602746+322589615+321306986+320385000+319836133+319571385
4047+319709086+320419715+321539018+322487236+322875615+322931060+323038853
4037+323294887+323658916+324010292+324029083+323536704+322811889+322260851
4027+322130243+322632379+323782430+324988738+325402972+324906250+324263633
4017+324106996+324268613+324409094+324638114+325002288+325182116+325108141
4007+325020847+324780969+324034584+323130751+322975532+323791985+324731865
3997+325007586+324796980+324505827+323891149+322859662+322284766+322868145
3987+323979515+324612288+324682470+324730880+325087034+325564299+325650782
3977+325128900+324460428+324150455+324134328+324348060+324991836+325659989
3967+325363943+324050855+323025013+323379748+324794375+326032357+326198317
3957+325417593+324450729+323891786+323907624+324412916+324982194+324893742
3947+324043212+323476307+324122399+325377580+325771836+324990649+324172025
3937+324192900+324863283+325743809+326857148+328228286+329234469+329107364
3927+327894311+326478237+325830148+326164934+326778511+326930689+326784504
3917+327082085+327808117+328004941+327278041+326419693+326305154+326959382
3907+328000974+329378048+331024329+332205650+332120498+330944939+329464358
3897+328124489+327085907+326644139+326966388+327529558+327471362+326823330
3887+326471375+326898146+327732346+328608529+329495859+329728672+328371836
3878+326031517+324442709+324529858+326081983+328637135+331394699+332763752
3868+332179592+331079514+330752777+330905042+330579723+329677830+328862246
3858+328806569+330294215+334168882+338938030+340111273+337050887+332945550
3848+329998168+328756393+328878084+329727658+330706364+331462652+331999126
3838+332443674+332685115+332585343+332294594+332017685+331765126+331537843
3828+331459380+331480835+331496151+331899991+333065069+334118214+334192971
3818+334262546+335131345+335514397+334154318+332105124+331076271+331609445
3808+332892218+333550933+333382078+333749465+335340851+336454276+335499688
3798+333716488+333066574+333853494+335069154+336023800+336837530+337785025
3788+338937045+340318607+341948240+343756080+345876441+348684818+351979464
3778+354654830+355976690+356675563+358427668+362551853+368669788+374583515
3768+378572431+380918106+382371501+383272641+384184465+385607806+387145571
3758+388053110+388513756+389432471+391726465+395963423+401495517+406599944
3748+411071829+416250086+421961082+425621408+426548896+427536433+430787476
3738+436109080+441521714+445200049+447092722+448297118+449918326+452851839
3728+457431111+462626103+466220995+466719106+464474217+460785054+457154521
3718+454931491+454620852+455718382+457463944+459367040+460977332+461838865
3708+462019388+462259439+463168426+464315177+464655783+464210887+464141515
3698+464844181+465796772+467068890+469388884+472913158+476825841+479660102
3688+479986607+478195213+476451215+476190867+477064705+477781297+477794471
3678+478003311+479323086+480932481+481492697+481648581+482442247+483225779
3668+482827180+481670875+480905583+480631541+479917033+478015500+475498972
3658+474006375+474450836+475707580+476144339+475780571+475983996+477476738
3648+478884879+478857923+477834919+476651368+475632012+475140039+475759522
3638+477245865+478183950+477513219+476003048+475715918+478218636+482444216
3628+484322354+482522882+480545144+481231683+484511766+488549179+491273157
3618+491900979+491669990+491956859+492360525+492070240+492233420+494496752
3608+497899047+499952353+500112753+499419497+498515288+497862219+498170397
3598+499458063+500735016+501112103+500536976+499687141+499871226+502163743
3588+505648264+507702033+507516385+506827124+506755726+506880340+506752772
3578+506352523+505781913+505693316+506610033+507633240+507556514+506950176
3568+507266808+508089717+507928621+507233338+507451472+508556559+509463838
3558+509843241+510221023+511203464+513144373+515380894+516232351+515139308
3548+513707571+513486021+513795473+512724030+509932243+507349441+506992100
3538+508614813+509986212+509823784+509189245+509103312+508775214+507295588
3528+505457984+504715218+505420518+506736037+507515227+506967548+504839369
3518+501445992+497876232+495694027+495881991+498139822+501086451+503148558
3508+503817609+503881191+504200776+504460197+503560736+501628919+500403502
3498+501011288+502545810+503166104+502175729+500536108+499629061+500171297
3488+501982611+504058269+504846260+503165293+499421176+495534842+493121705
3478+492467247+493452004+495947946+498692945+499684246+498771292+497996504
3468+498717150+499964513+500011359+498550089+496713933+495417929+494407866
3458+493052333+491416534+490043861+489094253+488315700+487535179+486621531
3448+485504631+484819626+485819584+488560008+490714707+489858676+486626047
3438+483550577+481684309+480428318+479487859+479113580+479201656+479422106
3428+479774091+480441868+481223692+481410585+480436338+478781979+477862772
3418+478546155+480227614+481653242+482026942+481212719+479674318+478333754
3408+477891320+478135395+478336418+478186845+477836801+477297547+476426402
3398+475371780+474555386+474297818+474633704+475317927+476043901+476702037
3388+477250585+477509600+477380063+477047217+476824827+477088012+478180505
3378+480001692+482049496+484079958+486049704+487492270+487744395+486756453
3368+485243009+484277216+484639392+486000657+487103428+487232675+486951771
3358+487169557+488188422+489669438+491011478+491797558+492006658+491904511
3348+491952921+492630659+493933844+495163082+495617532+495158623+493899795
3338+492177540+490934926+491076507+492326186+493307701+492856957+491127928
3328+489432021+489013821+489948083+491253469+491987781+492091260+492111643
3318+492259131+491968440+490580133+488415010+486750894+486545673+487466791
3308+488285820+488021825+486852519+486142934+487098101+489215856+490745108
3298+490704979+489864003+489583678+490287821+491325968+491905554+491875964
3288+491601255+491367487+491384511+492157273+494055563+496419768+497761345
3278+497127328+494998222+492873808+492127973+492998596+494561144+495726512
3268+496015987+495433679+494259799+493127612+492705937+492949781+493056792
3258+492377434+490954093+489259981+488095134+488311357+489845184+491443750
3248+491944235+491419487+490707701+490329282+490089317+489525250+488801362
3238+488905014+490399754+492307772+493014347+492098903+490529986+489238671
3228+488306030+487505531+486946096+486886626+487196773+487335807+486733869
3218+484988684+482265111+479780460+479088246+480473832+482630646+484128570
3208+484466947+483500893+481120271+478097467+475990974+475594373+476322373
3198+477246213+477939035+478247155+477959707+476924253+475371751+473954433
3188+473164849+472832784+472486532+471942241+471157695+470055329+468927427
3178+468384062+468620031+469209692+469577862+469276372+468146153+466536180
3168+464963150+463480687+461778671+459848677+458240412+457626574+458190265
3158+459446690+460568802+460906078+460305588+459026463+457521242+456332017
3148+455870792+455995610+456039821+455540754+454625253+453622516+452854155
3138+452647950+452886409+452854242+452101110+451089976+450627448+450998166
3128+451692522+451743451+450640304+448921263+447436773+446428534+445775639
3118+445468445+445280770+444587833+443200480+441915652+441637208+442239609
3108+442727616+442460320+441891012+441824304+442190678+442226580+441737445
3098+441303957+441289017+441333518+440818006+439521653+437908958+436859809
3088+436881495+437611319+438307500+438675437+438960048+439299119+439366985
3078+438922293+438329678+438071618+437969615+437336698+435873720+433992715
3068+432333318+431350008+431180516+431533601+431728138+431149276+429853618
3058+428628983+428279576+428916779+430017638+430904186+431050516+430331897
3048+429202692+428428193+428540242+429513621+430702904+431116993+430250162
3038+428646876+427217224+426256034+425566571+425162876+425263778+425728217
3028+426085442+426170709+426222709+426301520+426113063+425552615+424894653
3018+424243900+423394818+422411421+421736637+421571661+421660200+421724071
3008+421685592+421541289+421339775+421124305+420750345+419998314+418936454
2998+417927665+417219614+416726193+416272322+415858262+415550141+415326188
2988+415205019+415292660+415550286+415746444+415651622+415072413+413987043
2978+412872836+412363375+412498297+412955845+413767809+414911172+415682689
2968+415500081+414738380+413971437+413155709+412170720+411414317+411327978
2958+411729791+412004731+411867551+411558793+411231795+410681742+409906982
2948+409275570+408864434+408341915+407672777+407237291+407208946+407386516
2938+407557369+407601755+407403338+406956821+406387919+405763832+405176168
2928+404978881+405435734+406086516+406059213+405160997+404088975+403439930
2918+403056473+402496749+401776653+401434542+401935462+403035598+403888358
2908+403960770+403600794+403490193+403771618+403911115+403346556+402111324
2898+400742010+399735219+399274833+399267219+399366094+399152795+398529403
2888+397849552+397621285+398049127+398745800+399017526+398593969+397872657
2878+397343334+397130759+397173755+397394697+397585412+397499537+397137448
2868+396752225+396596630+396742352+397048156+397203866+396917200+396250784
2858+395697487+395626320+395714367+395375556+394672109+394182046+394092610
2848+394088238+393984180+393875431+393815006+393822910+394024743+394391002
2838+394553603+394229906+393618037+393064712+392591298+392079607+391646525
2828+391437569+391292919+390971364+390546562+390307119+390355645+390513237
2818+390593582+390592540+390532115+390301242+389816391+389208141+388695090
2808+388362822+388167185+388083192+388160439+388389344+388539843+388314210
2798+387741515+387199858+386945591+386815417+386469802+385810074+385114443
2788+384771579+384843383+384983343+384907804+384764341+384803051+384902158
2778+384735996+384233309+383584323+382987249+382624349+382618472+382809013
2768+382875808+382776817+382706084+382634425+382300363+381622278+380809850
2758+380154754+379872576+379941745+380002373+379661188+378943467+378213961
2748+377697291+377358740+377184210+377215248+377300110+377171239+376824756
2738+376499524+376254319+375908531+375437519+375097087+375073722+375232299
2728+375269359+375007390+374566432+374276118+374279245+374248815+373788372
2718+373057129+372571410+372451920+372368679+372181815+372074399+372060704
2708+371927750+371715060+371798880+372396677+373182034+373463691+372819915
2698+371566356+370423659+369759616+369410064+369153683+368985262+368935086
2688+368961434+369035786+369134285+369192915+369174385+369072817+368861574
2678+368586605+368419516+368474324+368650505+368737683+368560663+368027287
2668+367251021+366608491+366437320+366682003+366993511+367109382+367028226
2658+366908389+366849295+366728647+366342150+365736333+365218591+364998257
2648+365007985+365083727+365123625+365025097+364654351+364043466+363535945
2638+363507281+363921776+364372404+364575424+364593230+364561700+364477273
2628+364293564+364024270+363721246+363463417+363352439+363448564+363714210
2618+363994101+364036952+363675152+363093279+362750502+362879836+363228172
2608+363438141+363464373+363437938+363399286+363367582+363407451+363491531
2598+363535598+363566143+363574250+363328929+362718827+362130845+362051426
2588+362412212+362727107+362772622+362779571+362997936+363355393+363586845
2578+363552564+363330985+363038644+362700181+362335486+362031303+361868152
2568+361855094+361888709+361771245+361478528+361361933+361725094+362288321
2558+362512130+362335804+362129657+362064571+361984283+361786967+361571092
2548+361463907+361528415+361761343+362044361+362193847+362137388+361948294
2538+361683227+361332141+360984615+360881628+361162185+361632907+361922150
2528+361850288+361545526+361228054+360994517+360789499+360506771+360159071
2518+359948958+360058314+360411862+360777599+360998281+361015103+360842165
2508+360639319+360652087+360981285+361449285+361714526+361579227+361199564
2498+360956878+361127702+361675294+362294228+362669954+362759622+362772159
2488+362841531+362844050+362616043+362245441+362019317+362080929+362243357
2478+362241359+362072764+361905386+361754134+361517760+361274495+361255675
2468+361498332+361737602+361724138+361521118+361396185+361475807+361589506
2458+361502849+361276695+361248842+361562261+361883642+361817513+361477746
2448+361370880+361774285+362458074+362977524+363072548+362784580+362307228
2438+361794205+361314045+360962929+360904270+361186216+361629259+362069290
2428+362583268+363233413+363761867+363865983+363645967+363468860+363485566
2418+363543791+363532992+363568662+363746753+363903941+363837030+363665337
2408+363711807+364064399+364478402+364674415+364568881+364266059+363959531
2398+363834742+364020709+364655393+365905854+367808226+370251764+373405842
2388+378038939+385044319+394731057+406885394+421344350+438091624+456897879
2378+477260747+498616624+520359113+541884164+562788979+582608915+600335881
2368+614791999+625280656+631467499+633274875+630900942+624850353+616168378
2358+605728652+593106663+576851043+556460728+534710132+516920338+507230790
2348+506934715+515021237+528081578+540806061+549529208+554564870+558128087
2338+561774341+565524017+568777202+571584971+574211840+575974687+575622036
2328+572854628+568763247+564588248+560458185+555637530+549820130+543462000
2318+536850471+529811244+522422900+515255237+508642782+502070224+494637639
2308+486169455+477504591+469504494+462204486+455238743+448624811+442589133
2298+436977127+431469527+426195059+421629742+417982995+414975478+412134644
2288+409152808+406042623+403075756+400593827+398827419+397782352+397224886
2278+396825477+396353423+395724443+394939839+394079060+393278647+392602763
2268+391960465+391241614+390529943+390037912+389773656+389469328+388958362
2258+388399275+387989528+387703876+387438143+387180836+386953292+386757076
2248+386617000+386568706+386618332+386766862+387003121+387233212+387314368
2238+387210339+387039110+386916435+386813795+386633475+386374864+386148798
2228+386045029+385996996+385782568+385238132+384466065+383716147+383109895
2218+382639463+382333340+382205222+382105015+381834389+381417376+381124166
2208+381199705+381590835+381940126+381904746+381519668+381178512+381232886
2198+381706648+382402481+383120116+383695098+383996240+384037933+384002784
2188+384046445+384187650+384466991+385004971+385742584+386370724+386728644
2178+387003497+387349343+387650689+387836308+388052965+388353326+388547255
2168+388520994+388465433+388660607+389153159+389730544+390153985+390318613
2158+390227990+389978210+389765751+389746092+389884431+390047930+390172747
2148+390263284+390340705+390447484+390634435+390935404+391353084+391823255
2138+392229006+392522389+392788788+393138514+393579443+394020111+394394650
2128+394770608+395267156+395885220+396534844+397184294+397830328+398384840
2118+398762448+399033190+399370263+399894780+400597562+401347740+401971219
2108+402343037+402434731+402367097+402406444+402728375+403206132+403630616
2098+404033761+404548260+405084184+405391610+405351422+405062295+404712251
2088+404427206+404225923+404103712+404089467+404205193+404486560+405021471
2078+405803701+406610077+407205414+407577550+407819107+407923396+407876405
2068+407843138+408054294+408522728+409026601+409373751+409562873+409711693
2058+409949630+410352312+410877002+411373956+411730544+412033482+412558838
2048+413508678+414725380+415799052+416495754+416902113+417160057+417334500
2038+417571425+418127761+419145496+420510496+421991310+423421831+424659553
2028+425513471+425969397+426396486+427220756+428462184+429864331+431336429
2018+432958187+434698392+436428811+438096112+439639580+440896845+441854155
2008+442872324+444370220+446314459+448258263+449870640+451197972+452428513
1998+453682073+455070525+456733280+458652619+460509737+461926506+462873335
1988+463608689+464284515+464956201+465868373+467298663+469172053+471151470
1978+473010673+474732261+476422985+478212729+480093532+481972886+483937247
1968+486112996+488266943+490054921+491641384+493547781+495980027+498674762
1958+501291498+503729534+506116265+508551058+510870675+512810426+514393647
1948+515967081+517900521+520387082+523339154+526276981+528623698+530380060
1938+532148986+534374448+536931018+539536288+542174912+544877697+547466869
1928+549823315+552092611+554388777+556588817+558654515+560811936+563143424
1918+565326498+567056917+568533011+570217742+572320847+574656562+576802749
1908+578450246+579720830+580946884+582140741+583035512+583679780+584498114
1898+585642172+586785361+587705495+588636515+589832921+591125393+592115826
1888+592700681+593207131+593943064+594820637+595524200+595997991+596569933
1878+597458740+598400009+599012023+599324544+599708464+600465302+601481328
1868+602094732+601705137+600611400+599667292+599326745+599386504+599399591
1858+599031016+598155876+596884539+595451007+594047296+592821011+591938053
1848+591539251+591589861+591690155+591158574+589757411+588045348+586606315
1838+585501807+584453236+583300087+582286260+581789191+581739392+581489757
1828+580498167+578871284+577027137+575293186+573780205+572375974+570965777
1818+569675216+568798280+568516971+568721844+569007381+568836846+567929104
1808+566563843+565362226+564763184+564760173+565120003+565750257+566621692
1798+567397581+567699563+567759091+568234792+569251977+570168637+570739421
1788+571449412+572502557+573576490+574543355+575658749+576838188+577560513
1778+577823525+578527667+580559026+583736933+586629477+588029714+588587642
1768+589457282+590565843+591356730+592018890+593075336+594445055+595765670
1758+597062659+598328669+599385635+600566927+602556709+605275129+607560523
1748+608635383+609126430+610010314+611605174+613735032+616110993+618234944
1738+619766744+621332245+623930103+627135979+629049324+629216385+628691347
1728+628269093+628486010+629542051+630889650+631955882+633169891+635410640
1718+638630471+641415251+642539273+642341928+641710979+641256703+641496725
1708+642812187+644876321+646690588+648058107+650129769+653526968+656690978
1698+658036550+658323013+658313111+657879971+657563744+658243913+659819085
1688+661645108+664138444+668268913+672527065+673630647+671955586+670129158
1678+669828044+671721644+675238709+678583271+680943712+683144448+685245005
1668+685999468+685565286+685808667+687814489+690634881+692452681+693124570
1658+694066650+696447822+700709217+705924390+708448243+707100991+705544291
1648+705924216+707512243+708376381+708356635+708821856+710444742+713026502
1638+716218596+719723675+722759769+724303092+724596504+724943190+726476032
1628+729520407+733668595+738563950+743949078+749039462+753331374+757647143
1618+763000885+768884820+773631181+777071636+780360666+783873388+787088008
1608+789285500+789839781+788586859+786390930+784773312+784409602+784436007
1598+784069054+784331370+786709241+790527884+793618294+795533898+797679796
1588+800561627+803293075+805328082+806802786+807571263+807581860+807827499
1578+809524564+812269736+814027834+814610952+816443171+821016682+826651618
1568+829715044+829485387+828794853+830137240+833942680+839981340+847819791
1558+853568224+853454091+850617542+848986028+849342384+850116883+850191930
1548+850829712+854182207+860515958+867261020+870728865+868851595+863196449
1538+858180127+855720955+854519686+853018113+851007600+849662433+850108313
1528+852323062+854882296+856035040+856132265+857380149+860503335+863398195
1518+864272235+863600694+863169291+864779959+868880200+874462210+880175610
1508+885001883+887728293+887885393+887529268+888462952+891437666+896741030
1498+902904942+906887227+907433980+906406719+905812947+905795227+905721570
1488+905885677+907305428+910228431+913717874+916398886+917770343+918877688
1478+920835448+922951466+923826259+924366353+927274300+932483334+936795108
1468+938548111+938368195+936936458+934329451+930860100+927429895+925024923
1458+924094945+923820585+922595573+920025510+917405127+916600053+917666922
1448+917538370+913800275+909236493+908361468+911691380+915777086+917558579
1438+917077897+915973853+915635505+916919234+919620049+921953622+921935787
1428+919899853+918118940+918121488+919858856+922319243+924011213+923980638
1418+923077413+922668246+922791818+923134103+923679235+923881792+922852620
1408+920785822+918794303+917400147+916239933+914999113+914044583+914092240
1398+915275501+916945292+918574606+919838415+920257136+920042998+920144798
1388+920738455+921080566+921414107+923253796+927375463+932750515+937432311
1378+940162659+941611942+944012802+948440852+953148590+956545962+959717905
1368+963539385+966455091+967102196+966111995+964250013+961712841+959777549
1358+960261299+963344935+967493238+971357684+975075801+979485494+984201629
1348+986961567+986169059+983659740+982510297+983551339+985601923+988167874
1338+992384392+998291547+1002962282+1003799726+1002678425+1003672100+1007860706
1328+1012946748+1017260548+1021858206+1027697031+1032588390+1033222119
1320+1030097138+1027921245+1030425120+1036756730+1043642967+1049317801
1311+1053636465+1055955967+1055652074+1054512706+1055668982+1059878319
1302+1064865572+1068730250+1071767328+1073741823+1071657538+1062974926
1294+1050937676+1042043822+1039739144+1043032864+1048175422+1050870389
1285+1048522398+1041408125+1032711847+1027128737+1027252888+1030833940
1277+1032579125+1030540123+1028540149+1029400523+1030499472+1028119401
1268+1022923801+1018151497+1014901091+1012012253+1008421704+1003633187
1260+998046486+993314717+991124000+991315207+991741514+990627046+988019171
1250+984651562+980899570+976772113+971765404+964856757+955798969+945903969
1240+936686186+928561156+921308776+914758512+908520306+901899743+894584477
1230+886996876+880046826+874702754+871060032+867644940+862819767+857255129
1220+853449806+852372051+852154959+850652750+847955987+845627510+844735982
1210+845231893+846649270+849019961+852828122+857834252+862446097+865292721
1200+867039238+869240900+871833720+873195912+872588299+871439724+871850687
1190+874656545+879233993+884412511+889175549+893052272+896406967+900016856
1180+903975980+907528715+910428729+913861367+919365434+927182866+936145861
1170+944953029+952694545+958370248+961405936+962589545+963853353+966825113
1160+971530419+976738064+981536657+985650564+987896641+986251286+980970564
1150+976158999+975749601+979220283+983046974+984989852+985349567+984878208
1140+983610288+981720568+979863624+979410679+982301949+989117541+998073239
1130+1005612198+1008418346+1006940573+1004979512+1005876252+1009705259
1121+1013117803+1013727095+1013946445+1017007265+1020885261+1019923087
1113+1013032912+1006748207+1007972582+1016595434+1026248906+1031274029
1104+1032121548+1031972960+1031009512+1027966991+1024709868+1024338340
1095+1026175365+1026764389+1025089271+1024119337+1025987053+1027886385
1087+1025622937+1020603025+1017538383+1016444067+1013271950+1007166524
1078+1000630968+996845622+997938896+1002766674+1007398960+1008295352+1005672537
1068+1001842140+997202789+990948196+985069299+983997103+989501229+998074629
1058+1002207182+997224446+987886217+983101869+987010324+996063074+1002632563
1048+1003319565+1001812260+1002013774+1002325311+999110460+993143546+989393870
1038+990640944+993583635+993319813+989440311+983809370+976593182+969691368
1028+967733492+972451364+979238465+981307695+978075703+975177137+976168843
1018+978978928+980003294+979483989+980460987+983108007+983436568+979677396
1008+975720531+975038741+975611436+972797876+965211781+955102759+945118700
998+937395830+933590911+933318519+933501388+931122474+926145182+920434677
988+915143300+910074863+904753142+899241026+893781951+888162939+882898083
978+880130443+881135004+883995063+885206408+882891366+877496567+870650922
968+864492801+860847878+860080502+860948578+861361161+859263384+854372082
958+849490567+848216161+851219538+855904924+859558707+862079838+864924957
948+868415212+871726246+874387453+876331837+877713080+879158309+881579205
938+885659758+891206445+897097328+902546153+908200778+914710739+920789818
928+925091226+928789828+933614190+938993180+942712165+942950276+939502988
918+933872395+928213775+924188348+922603564+923400705+925611979+927687694
908+928051984+925953511+922927319+922777921+927650924+934753500+939238471
898+940311536+941770374+945794468+949894767+950905930+949331743+948133310
888+948567377+949525324+950658496+953056866+955953579+956446826+954396358
878+953894020+957626381+962896275+964926476+963074917+960604511+960232288
868+962739291+966972427+970061738+969098000+964104088+958782426+956744292
858+957812319+959265482+959385522+958912136+959208039+960409945+961897389
848+963274289+965105812+969099332+975339044+980831356+983695758+984875197
838+984586591+982364256+980378180+981891856+986440640+990410360+991387474
828+988952970+984879714+982448800+983322377+986004836+987796115+988510565
818+989538173+991304552+994265773+999193614+1007002417+1015136191+1016110062
808+1007778132+997900794+993491216+993939296+995804464+998796375+1003246951
798+1006224617+1003822425+997860375+995031412+996978460+996696108+989917808
788+983674332+985213486+993347956+1001511725+1004147628+1001067583+995975520
778+991438084+987620427+983774395+979939597+977022964+975113672+974640807
768+976068086+976588549+972181288+964393737+960876324+966699978+977647427
758+984783936+985987580+986264952+987292097+986302707+983220462+981485005
748+982223312+983423250+984535749+986220943+985757228+980915089+975916255
738+976910046+985274983+997035671+1007405793+1013974124+1017604744+1021391132
728+1025906447+1026555115+1020469261+1013879737+1013068351+1012812984
720+1004337098+991713256+984345468+983495865+984754520+986205887+990555474
710+997371297+1001091556+999320313+997022468+997383689+996437382+991334895
700+985381068+982334493+980863321+976853414+971531230+969483020+970418905
690+969205185+963313028+956289147+953317966+955477588+959414765+962714738
680+965845799+968503590+971447324+975433779+976724051+971356584+958806515
670+940219291+922972139+920068824+931336091+943095100+946938758+947941988
660+954629316+964478512+964665376+949705124+928338679+913140605+909866168
650+917376637+930932020+943187808+948414041+947116994+942888027+937867652
640+934773999+935335286+936763839+936855794+940828004+954651610+972621030
630+984442635+985716346+974045876+953110082+931551967+916250588+908714350
620+902834411+893602151+884144635+882256190+894956989+921138415+946597689
610+953877227+942296512+922406451+904493490+894690677+890106338+882622448
600+870432615
##END=
