##TITLE=<SNM>
##JCAMP-DX=4.24
##DATA TYPE=INFRARED SPECTRUM
##DATE=29/4/2025
##SAMPLING PROCEDURE=Instrument type and / or accessory
##ORIGIN=Admin
##XUNITS=1/CM
##YUNITS=ABSORBANCE
##RESOLUTION=4
##FIRSTX=4497.3318
##LASTX=599.83466
##DELTAX=-1.4281778
##MAXY=2.100951
##MINY=0.37842515
##XFACTOR=1
##YFACTOR=1.9566631e-09
##NPOINTS=2730
##FIRSTY=0.38692349
##XYDATA=(X++(Y..Y))
4497+197746613+199081765+200662032+201662051+201851558+201418428+200504587
4487+199060030+197311884+196180678+196634492+198577840+200862048+202288815
4477+202337113+201382026+200591755+200972642+202079721+202453556+201530667
4467+200140120+199194445+198983158+199533613+200671978+201881807+202723925
4457+203150292+203121718+202395967+200940443+199196653+197786823+197094779
4447+197113330+197522867+197889147+198007798+198124941+198548810+199094818
4437+199411185+199662119+200105225+200211798+199266976+197785270+197185039
4427+197936531+198900787+198707808+197295282+195855888+195565688+196490405
4417+197611527+197977198+197794500+197975446+198653981+198881946+198048252
4407+196883842+196477473+196840311+197088062+196778625+196423128+196570506
4397+196935491+196849922+196312626+196087875+196783895+198240058+199763620
4387+200615028+200387413+199189525+197526065+196061281+195347669+195431364
4377+195771416+195826355+195622196+195606279+196124231+197028355+197621458
4367+197198275+195914802+194852777+194899415+195694346+195996152+195158330
4357+193901984+193403330+194026241+195230708+196324095+196972944+197211419
4347+197224335+197136314+196965816+196674565+196259804+195926195+195955226
4337+196188355+196118489+195746086+195624542+195844724+195867769+195564287
4327+195516446+196125937+197113970+197955021+198369371+198433433+198491997
4317+198874498+199504202+199855327+199506685+198705173+198101439+197986398
4307+198117508+198300556+198747531+199628595+200568588+200930390+200514594
4297+199728588+199133109+199035370+199413576+200000099+200462701+200612652
4287+200494214+200267848+200016899+199716129+199377295+199111465+198979639
4277+198964058+199198542+199892064+200780911+201101741+200566837+199999871
4267+200409026+201663605+202639255+202596028+201846699+201070289+200626452
4257+200618821+201054585+201715163+202212415+202363920+202364072+202515257
4247+202871424+203171554+203141077+202827725+202552757+202525493+202638356
4237+202710003+202717985+202678048+202538058+202308144+202047797+201706922
4227+201317994+201280814+202011744+203308041+204500202+205243409+205681077
4217+205908266+205843015+205533502+205136775+204761021+204583060+204738525
4207+205012839+205138344+205272150+205665983+206134860+206276800+205976410
4197+205522825+205361054+205672807+206141196+206333155+206269961+206291087
4187+206479192+206596122+206569726+206698369+207221713+207927115+208415443
4177+208581554+208639661+208829838+209233998+209821526+210574313+211375321
4167+211779359+211346199+210316311+209439954+209096247+209033905+208826000
4157+208247473+207500840+207206512+207754256+208668296+209087062+208808484
4147+208377289+208251723+208378111+208534886+208693046+209015339+209679556
4137+210586376+211163242+210861664+210032707+209740785+210481722+211577318
4127+211994805+211358278+210062544+208857224+208404735+208892377+209938029
4117+210930327+211476578+211590706+211622295+211978721+212723115+213457015
4107+213770503+213760862+213939204+214645962+215678104+216504092+216747852
4097+216361010+215433887+214109306+212752755+211983396+212367771+214000388
4087+216215720+217835497+218102744+217302253+216305188+215791348+215939380
4077+216550776+217349789+218153661+218745074+218822981+218327190+217656850
4067+217305954+217324734+217312808+216989937+216588519+216476509+216591778
4057+216583888+216349526+216106010+216154704+216679891+217487129+218049891
4047+218171573+218360973+219064716+219839587+219868374+219142973+218531395
4037+218646558+219169598+219391409+219053125+218502776+218239413+218489144
4027+219127179+219816817+220219027+220199257+219911311+219675243+219700603
4017+219903848+220008791+219843121+219559333+219485645+219727410+220053114
4007+220236330+220354996+220609113+220945631+221082103+220925008+220691103
3997+220547138+220487599+220618831+221127888+221871460+222386625+222432638
3987+222274234+222342469+222744070+223209475+223539992+223876784+224331847
3977+224678585+224687922+224444969+224115944+223667203+223025969+222414726
3967+222302000+222903861+223866107+224604531+224853987+224782583+224750918
3957+225035193+225603438+226212778+226893384+228016380+229495771+230305659
3947+229580852+228017888+227177248+227551783+228156233+228028474+227298610
3937+226598751+226482994+227525661+229892224+232497398+233578966+232740732
3927+231440993+231086776+231411901+231126728+230024248+229468203+230562275
3917+232460036+232982253+231215434+228564627+226891663+226787375+227976383
3907+230558040+234877760+240261182+244901092+247499580+247751306+245316828
3897+240614043+235940487+233892850+235123059+237631439+238651792+238224923
3887+238605505+240451008+241974646+242286078+242753904+243252650+241622455
3878+238307918+236546567+237906911+241226428+245132058+248715746+250199904
3868+249103760+247601949+246935417+245757664+243007717+240074645+238848016
3858+240351411+245727171+255747624+265399908+264625006+254761633+244640212
3848+238993215+238536690+241762247+246243768+250266723+253713559+256748162
3838+258160124+256770399+253733085+251084867+249426052+248043364+246548194
3828+245523424+245754009+247900678+252506136+258369096+261572095+260532688
3818+258468343+257130130+254614956+250113117+245928558+244464109+246459305
3808+250348027+253092461+254317262+256758915+260872008+263018450+261479429
3798+258745764+256217720+253332322+250348637+248438721+247920464+248295106
3788+249411750+251339426+253376538+254711476+255967349+258221628+260694778
3778+261470594+260541430+259867267+261144281+264648279+269052776+272406686
3768+274224286+275448356+276658231+278398365+282053883+288230682+294775680
3758+298617080+300180471+303056030+310207260+321218685+331069310+335361279
3748+337079388+341197417+347459937+350199360+347709181+345407472+347872428
3738+356046281+367288307+376424132+379788064+378190006+375248009+374382968
3728+377312446+383449339+389980538+394195772+395972643+396759548+397550291
3718+398756175+401276999+407115392+417959395+431548213+440850850+442324804
3708+440234779+439928053+443821086+451297289+458897322+463064486+464287460
3698+465393275+467585258+470406320+473689130+478177064+483743000+487403575
3688+485960724+480828358+475705162+472840996+473042474+476054444+481078729
3678+487821428+495186291+499443167+499357354+498978463+500260046+499823368
3668+495653218+490932583+488709071+489242559+491506829+494855286+499138360
3658+503679237+506855643+508307145+510813073+517665528+528678172+537619738
3648+537766201+531963602+526848661+524505616+523330864+521734939+519965988
3638+519195411+520321301+523439371+527900467+533587370+541426989+550053940
3628+553632967+550093541+544622556+542723773+546956828+556311830+565764311
3618+569821354+569005571+568003236+569636082+573314051+576883025+578696086
3608+577915396+574854168+571265942+568765162+567632936+567293097+567855311
3598+570338849+574840034+579434860+581825305+582259029+583688872+588461416
3588+594591120+596681206+593007076+587334673+583688751+583761799+586877615
3578+590516348+592673634+594034938+596099984+598277070+599045088+598506818
3568+597861990+597504727+597172382+597404993+599037412+601760811+604062306
3558+604882597+605071281+606281979+608773011+610730220+610059194+607250439
3548+605340081+606708148+610504920+613512167+613664358+611855744+610354131
3538+610580710+612239997+614262395+616345353+618863618+621659091+623709211
3528+623719324+621299331+618010306+616271208+616833665+617823815+617311133
3518+616412431+617610639+620619715+622600136+622605254+622635289+623727671
3508+624326196+623380461+622283083+622756773+624354161+624722024+622443742
3498+619102931+617512124+618309690+619471221+619155448+617980026+617918370
3488+619798631+622460984+624662867+626999089+630361467+633871710+635735947
3478+635182019+633048494+631440140+632020449+633794823+634167682+632364004
3468+629867184+628228612+628346014+630161024+631735565+630700635+627593593
3458+625429849+625414678+625465672+623671986+621295614+620548615+621217752
3448+621359098+620306927+619306846+619298439+619684336+619564741+618972004
3438+618398275+617915994+617447604+617203661+617277137+617669919+618860938
3428+620935366+622649302+623184587+623800111+625586669+627132514+626401234
3418+623770257+621392302+620029841+618314808+615601400+614235223+617167411
3408+623837153+629976727+632244530+631627119+630569099+629244045+626941271
3398+624783437+624683337+626968809+630012246+631612679+630944273+629536667
3388+629167646+629333848+628388113+626422862+625221973+625697918+627344959
3378+629768851+632532034+633952313+632789868+630633923+630328872+632325560
3368+634737695+636893397+640164510+645083882+649756387+651464109+649347094
3358+645418054+642855923+643231525+645143527+645693617+644206626+643247670
3348+644610374+646266615+645028197+640686209+635686111+632653884+633338069
3338+637333274+641327381+641954297+639526140+637304030+637625956+639826072
3328+641195296+639926537+637329435+636086326+636674859+637125764+636123064
3318+634440930+633750348+635287480+639361886+644757934+648621663+648784149
3308+646157072+643216172+641270904+640422526+640540659+641143998+641525874
3298+641865652+643154881+645652310+648284079+649335579+648175998+646224029
3288+645632875+647117734+649299512+650310742+649751391+649232921+650980061
3278+655116794+658477040+657748379+653853275+650740383+650371423+651407693
3268+652248759+652794585+652959021+652118563+649825780+646210747+642720305
3258+641779991+644336457+647936259+648793958+646064466+642388143+640511964
3248+640944895+642404227+643627414+644353455+644505828+643769856+642755154
3238+642819734+644021780+645263732+646716179+649386817+652191734+652614674
3228+650678667+648733399+647461655+645479954+642340378+639561537+638502420
3218+638867177+639565192+639538812+638126697+635571633+633149812+632650046
3208+634888605+638605140+641681720+643370372+643960124+643076045+640687244
3198+638480061+637951295+638294362+637527197+634901704+631524460+629154547
3188+628848095+630382242+632452589+633493428+632713956+630639710+628626633
3178+627491848+626970759+626594000+626453385+626894054+627584637+627520056
3168+626109769+623599607+620344761+616671179+613374538+611197635+610225579
3158+610626221+612830845+616334447+619575646+621089688+620085160+616922250
3148+613547687+611733407+610866874+609293491+607289065+606447877+606947460
3138+607353219+606711620+605516459+604717186+604579374+604606486+604147113
3128+602734145+600387322+597925839+596291836+595575909+595388443+595564089
3118+595727977+595211457+594113957+593332170+593379509+593876838+593995032
3108+593221165+591896051+590963354+590889025+591138878+591100130+590862767
3098+590547664+589838255+588662590+587380488+586065244+584370255+582326716
3088+580749982+580528521+581736111+583611742+585160633+585666004+584900971
3078+583221092+581472977+580367740+579981538+579987509+580162241+580483315
3068+580785989+580599681+579778780+579084725+579139679+579086675+577486119
3058+574392968+571389193+569798629+569756774+570547151+571132699+570818937
3048+569894951+569296182+569416265+569493883+568361596+565836690+563263836
3038+562478150+564035388+566424370+567357190+566061015+563714497+561601077
3028+559877636+558334472+557308133+557223265+557886797+558564341+558383577
3018+556939721+554922013+553674213+553770900+554517351+555232547+556272960
3008+557866752+558793662+557638345+554947846+552709286+551831421+551203103
2998+549292075+546100835+543194783+542172831+543377070+545684597+547326398
2988+547108957+545041413+542053662+539385156+538001371+538079781+538841829
2978+539124276+538349800+536995564+536038740+535921703+536219991+536349578
2968+536280002+536278966+536219321+535647603+534500998+533210855+532032630
2958+530868418+529858590+529465990+529736009+530128608+530259719+530144693
2948+529664057+528556749+527016144+525572592+524305539+522810749+521041676
2938+519596601+519015195+519209241+519705961+520086436+520081928+519709860
2928+519367889+519499974+520147726+520839040+520875351+519895071+518350750
2918+517082174+516183655+514798408+512499106+510246930+509359895+510071649
2908+511434080+512257783+512063006+511304188+510648972+509991563+508474079
2898+505802679+503011897+501293514+500681737+500503959+500463200+500604150
2888+500783025+500836913+500936555+501339725+501990097+502568121+502782973
2878+502489620+501639506+500318930+498875043+497779189+497158274+496609646
2868+495718103+494601656+493719831+493340970+493344869+493336188+492886989
2858+491931506+490967401+490631310+491019431+491503753+491246315+489973017
2848+488246622+486855892+486020552+485386690+484674815+484043451+483812881
2838+484023407+484256596+483910848+482776855+481275759+480051415+479466506
2828+479506077+479910374+480208144+479762662+478257332+476345146+475278140
2818+475476999+475863871+475080013+473125789+471268741+470478241+470462492
2808+470337140+469881879+469633671+469821350+469904482+469373675+468433575
2798+467631013+467202315+466948838+466539088+465788830+464708359+463533424
2788+462805525+462992686+463793177+464214594+463537445+461915079+460019983
2778+458530433+457918382+458165798+458574238+458257672+456999971+455397680
2768+454074058+453107395+452391285+452071430+452190873+452256306+451660005
2758+450427314+449249698+448751303+448805435+448722912+448152625+447395239
2748+446698412+445881532+444917824+444240310+444156477+444410381+444508013
2738+444145785+443251165+441973176+440745054+440012251+439740892+439438827
2728+438761495+437889205+437277885+437194327+437412925+437345238+436678568
2718+435761437+435057146+434486585+433694990+432655034+431673871+430976556
2708+430451019+429842471+429158286+428631378+428289163+427954016+427613020
2698+427301359+426759951+425738973+424540491+423814115+423793431+423969870
2688+423667561+422874747+422208717+422069199+422197720+422063685+421378586
2678+420296470+419319694+418839302+418627222+418024920+416775322+415410332
2668+414620016+414470568+414516992+414505630+414542337+414651423+414640517
2658+414410008+414030447+413539332+412936512+412296040+411704978+411175663
2648+410692256+410268341+409941297+409724374+409515981+409105408+408384394
2638+407522704+406880130+406739394+407050507+407421660+407449046+407008804
2628+406165361+405072279+404115181+403762853+404040639+404422820+404389098
2618+403924060+403459660+403398675+403652030+403767696+403564573+403271433
2608+403027186+402754608+402480233+402319148+402268611+402277963+402292524
2598+402151026+401666887+400822165+399853217+399166138+399004322+399181247
2588+399363869+399490623+399641504+399731703+399572659+399042004+398182081
2578+397323163+396906468+397006324+397318289+397685209+398213244+398767873
2568+398831478+398143424+397149954+396496322+396322930+396335176+396314279
2558+396269499+396252227+396261031+396283177+396347026+396498150+396687748
2548+396772647+396663439+396352296+395874250+395378901+395058071+394924006
2538+394860979+394843311+394901646+395035498+395269510+395588147+395861303
2528+396025191+396178813+396408073+396688052+396902508+396862602+396495378
2518+395990129+395498526+394889431+394125860+393584818+393626186+394090433
2508+394550719+394862898+395172579+395534046+395830323+395982361+395960519
2498+395702076+395250715+394808766+394529182+394496039+394840691+395532736
2488+396228466+396645466+396878290+397123391+397339430+397372055+397251058
2478+397168688+397184742+397134997+396918348+396686834+396594015+396558374
2468+396443500+396298408+396300936+396541041+396885357+397085434+397061065
2458+396952375+396867019+396790528+396711844+396616862+396462966+396326068
2448+396394212+396665541+396832871+396639495+396266849+396180275+396531811
2438+396886789+396748673+396218231+395850641+395968257+396367710+396632398
2428+396565015+396337765+396287594+396551337+396908417+397055307+396999500
2418+397035567+397322615+397667388+397816197+397803007+397838434+397979536
2408+398144490+398383102+398845217+399459034+399924073+400121561+400298303
2398+400722614+401319890+401734270+401676574+401234931+400866793+400960221
2388+401385963+401598895+401161729+400044917+398437295+396418734+393919051
2378+390985065+387953935+385186061+382639313+379942416+376996886+374280645
2368+372360326+371310622+370896791+371099335+372001601+373309169+374542865
2358+375814792+377910605+381462612+386389173+391790491+396093944+397872034
2348+396772829+393764942+390683153+388979574+388589168+388513103+388096530
2338+387438420+387073938+387366742+388179326+389156652+390089502+390851579
2328+391252830+391187244+390821361+390595025+391049493+392393342+394136096
2318+395482808+396191363+396708645+397446932+398357514+399275346+400243623
2308+401369879+402668004+404078321+405431674+406459140+407028878+407324942
2298+407670599+408209448+408845107+409457584+410011665+410412733+410502231
2288+410350193+410316441+410599833+410924440+410889347+410479902+410049804
2278+409892283+409953329+409912601+409497155+408768129+408079283+407687750
2268+407513109+407413283+407520907+408028014+408751405+409252207+409374696
2258+409394558+409599965+409964083+410319183+410673338+411183431+411863504
2248+412487740+412831051+412896210+412825324+412656319+412269812+411579595
2238+410683330+409790630+409082348+408653316+408499390+408528268+408625565
2228+408715063+408746775+408683291+408516997+408252340+407899067+407566601
2218+407515454+407954722+408736813+409417770+409773571+410068386+410595324
2208+411212919+411637321+411922327+412311454+412855634+413478011+414205392
2198+415079633+415968739+416643572+417018138+417257877+417629701+418240685
2188+418957161+419583193+420065931+420529020+421124895+421844996+422493114
2178+422893603+423083444+423206482+423300885+423349716+423439032+423640541
2168+423823163+423847441+423877386+424201262+424798355+425378512+425824329
2158+426312672+426998746+427824520+428671405+429523256+430432406+431428039
2148+432512470+433701905+435016357+436438677+437925455+439457348+441021165
2138+442548093+443988386+445469924+447229341+449356286+451766532+454413531
2128+457341364+460540738+463883285+467200640+470370648+473277340+475685575
2118+477352629+478431242+479496786+480931748+482555515+484108305+485913994
2108+488877681+493863949+501090208+510039450+519816478+529448322+537980291
2098+544691096+549302067+551851404+552559045+551799009+549723179+545841295
2088+539436576+530591515+520475745+510441524+501098920+492422925+484456430
2078+477527118+471889808+467475593+463965076+461015494+458545055+456771016
2068+455807216+455336085+454843934+454075094+453154734+452338494+451738781
2058+451366225+451370033+451948606+452949052+453890675+454490693+454880398
2048+455308090+455963275+457115119+459146626+462337136+466719852+472260474
2038+479077989+487363273+497223920+508673090+521379565+534273200+545951386
2028+555677481+563470249+569370693+573302719+575430761+576068765+575351985
2018+573238321+569750499+565258879+560436804+555689057+550820191+545468192
2008+539590655+533445598+527437804+521972668+517200550+512965181+509066634
1998+505477189+502448282+500475964+499768505+499699934+499317296+498401536
1988+497437888+496827178+496742950+497343973+498595033+500142766+501654097
1978+503083332+504534987+506055274+507594478+509100630+510622714+512224031
1968+513762260+514958884+515827306+516848344+518504767+520737295+523075163
1958+525243537+527338619+529469219+531621327+533878529+536453516+539433652
1948+542668637+546002258+549439574+552734143+555071949+555989477+556353381
1938+557472021+559716185+562619130+565675056+568488381+570697879+572275100
1928+573676553+575557728+578201803+581081657+583415868+585282604+587242433
1918+588955029+589551848+589289384+589366819+590455363+592269094+594036583
1908+595165397+595755759+596278920+596753768+596830472+596654034+596942330
1898+598113975+599751938+601025814+601607707+601928780+602347882+602620399
1888+602550518+602463213+602535896+602455902+602090048+601775859+601717859
1878+601669424+601340612+600838348+600732827+601726327+603896468+605889136
1868+605410937+601756607+596905897+593198014+591329572+590519577+589672235
1858+588209675+586203909+584128628+582479576+581529028+581270036+581487294
1848+582110859+583340748+584739642+584634242+582131330+578756645+576246056
1838+574658112+573071875+571229387+570131400+570781773+572494247+573131520
1828+571781914+569499793+566832932+563447463+559926741+557473056+556271010
1818+555617714+555185330+555440118+556902983+559182850+560811369+560598072
1808+559086406+557841042+557933831+559616878+562387006+564896925+565871173
1798+565718374+566377885+569419007+574355073+578075689+577604984+574378529
1788+572112857+572374529+574385352+577040272+579969840+582810276+584970060
1778+586745165+589539785+594583200+601474160+607193657+608303402+605468389
1768+601975571+599814568+599662074+601752464+605159196+607799493+608897480
1758+609411929+609733795+610016607+611765697+616448011+622932846+627763268
1748+629132918+628679821+628773950+630448224+633276962+635899409+637143554
1738+637915776+640993391+647561510+653649969+653775474+649848749+646487711
1728+644907261+644644553+645434992+647153985+650049801+655201662+663471715
1718+673222850+679462219+679037634+674817496+671119178+670212861+672539761
1708+677476132+683401677+688150460+691625001+696562285+704627021+712632905
1698+716300638+715829324+712594705+708527853+706978536+709489795+714682232
1688+721129050+730054471+741879181+749878362+747717238+741268593+737729654
1678+739143780+744710600+751723043+757162896+760972219+764680101+767347693
1668+766823679+764615217+764270139+766830198+769963865+771077570+771268752
1658+773878892+781141919+793235795+806303310+811628929+809706813+809464149
1648+812686827+814114234+808970232+800799913+795242475+794049019+796955863
1638+803276810+810633540+813240877+807839224+799197347+792621003+789851910
1628+790276922+792343308+794863888+796414607+794965389+790971099+787819216
1618+787297090+786825593+782846108+776946212+772948936+771831027+771799285
1608+770810171+768855582+767202997+766274442+765742569+765736842+766414143
1598+767067805+767015227+766676059+766745513+767083097+767126902+766654248
1588+765822259+765080621+764819436+764586643+763576205+762585873+764076398
1578+769259513+774936425+775124195+770265869+766589484+766919392+768834076
1568+768493445+765940087+763972643+764853554+770558978+782701289+797327931
1558+800786997+791442230+782070718+777063126+774552720+772480424+770428599
1548+769739357+772324457+778691951+787696087+798406848+809121386+812899820
1538+806442280+798226510+794972395+796453112+798727251+799859112+802112842
1528+807332330+814070368+819856822+824914494+830928867+837076605+841076379
1518+843040594+843974632+844162524+844785846+848063599+855588725+867801100
1508+883197099+894358887+892642452+884029515+878425348+878285282+881732224
1498+885561712+887709677+889061232+891985622+897643647+905055087+911068912
1488+912719121+910678445+908063188+907337269+908815182+911061357+913364924
1478+917104183+923838566+933381155+943597024+950471107+950926642+947325743
1468+944411101+944102456+944869499+944635853+944492740+947400315+954611374
1458+963214624+966154185+961569716+955535420+952165182+952093900+953946136
1448+954655300+952668726+950465807+950665762+952832126+955671526+959268404
1438+963472824+965828603+964622231+962907198+964588052+970219209+977274726
1428+982957303+986727086+989004393+990503082+993400361+999294652+1005357582
1418+1005905723+1001045204+996023660+993252923+991641949+989607975+987350285
1408+986788010+989267223+993262001+995416118+994987208+994394410+995074391
1398+995948114+995891027+995275687+994431757+992822428+990357899+988190377
1388+987315436+987567482+988249718+989346852+992073663+997668813+1005018170
1378+1010485439+1011911018+1011292144+1011505259+1012559868+1013127991
1370+1013580053+1015316349+1018626758+1022615078+1026254725+1028771650
1361+1029840880+1029921788+1030174139+1032008462+1035963334+1040945886
1352+1044824723+1046403041+1047179101+1049077396+1051139456+1050613797
1344+1047542944+1045604683+1048076645+1055245909+1064310909+1070765403
1335+1072447780+1071613964+1070702651+1068689330+1063782447+1057923066
1327+1055489486+1058531339+1064832913+1069254103+1068666422+1066015828
1318+1065825865+1068034388+1069264704+1068304285+1067464985+1069058656
1310+1072348717+1073741823+1071044561+1066592177+1063664009+1062420413
1301+1061830417+1062628897+1065044322+1066160098+1062989694+1057115569
1293+1052744946+1051203062+1050136025+1047047138+1041496646+1034402807
1284+1027331753+1021567720+1016511998+1010411172+1003280778+997333970+994047748
1274+992423675+989820298+983882385+975056881+966825210+961760410+958344906
1264+953013073+944843972+936438422+930284470+926265261+922670394+918291912
1254+913172280+907811324+902407417+897151801+892166021+886532671+878622866
1244+868315061+857727429+848880357+841781096+835175264+828242023+821262540
1234+815302450+811376213+809431372+808278187+806942655+805722148+805363241
1224+805675115+805721661+805109976+804217306+803549509+803772190+805673165
1214+809180910+813124876+816576692+819862488+823763503+828310990+832887173
1204+837025489+840533356+843274119+845552767+848441699+852906816+858158106
1194+861740606+862281374+861390776+861870254+865108650+870560932+876431401
1184+880877266+883491732+885607528+888806932+893775288+900816184+910321304
1174+921801484+933018409+941238138+945397656+946968602+948836069+952937038
1164+958592748+963612707+966648955+967396807+966321911+965740444+968424913
1154+973667795+977254804+976312053+972003208+967284096+964266856+963861585
1144+966407693+971352653+975795838+975849269+971920351+968934427+969542517
1134+971606101+972829653+973953898+976730302+981311237+986399554+990014405
1124+991063164+991647920+994784267+999720455+1002267660+1001139637+1000502120
1114+1003455328+1006999566+1006462027+1001807495+996466401+993220633+992792758
1104+994120796+994736563+992814386+989677673+988838739+992138060+997041348
1094+998345809+993213017+984241781+977078243+975907513+980517570+986362207
1084+988491894+985699284+980154641+974577464+970525660+967983756+966611791
1074+966752710+968189682+969303326+968516300+965365087+959821540+952574780
1064+945707154+941341954+940288808+942417703+946578257+950061205+950168616
1054+947416704+944816860+943372151+941420730+938282859+935220048+933283432
1044+932915811+935096127+940666237+947820757+952462495+952826155+951780138
1034+952624982+954338552+953120300+948443591+944053046+942529987+943422962
1024+945499523+947863100+950026966+952320601+954934092+956330488+954736269
1014+951021015+947788711+946272841+945594931+944011922+939926488+932695690
1004+923192763+913167528+904093572+896803128+891386366+887346382+884423637
994+882544473+879932810+873803227+864624481+856286801+851053118+847399824
984+843281552+839301030+837464574+837898481+838030139+835681245+831945885
974+829110445+827293729+825091663+822027816+818404862+814096261+809226603
964+804926836+802497338+802293484+803368563+804348173+805253759+807707566
954+812633518+818606036+823207625+825607635+827187171+829801515+833809879
944+837860159+840837249+843612312+848125743+855240845+864352147+874447263
934+884597273+893784244+901136709+906436252+910086012+912642478+914450482
924+915224958+914078841+910903562+907137070+904158457+901814924+899356547
914+897074000+896179259+897565298+900947903+904567079+906117067+905064591
904+903628167+904154618+905906633+906125596+904158091+902435382+903319218
894+906527395+910113307+913209261+916439250+919780243+921705711+921213621
884+919607095+918999919+919991043+922044513+925199260+930005312+936090541
874+941197867+941902462+936854234+929052144+923213599+921915962+924907430
864+930327300+935900578+940151910+942558074+942825290+941490123+939883475
854+939444390+940675132+943096100+947024897+953419441+961190154+966905692
844+968922790+969789872+972136024+974567045+974259924+971056924+966713474
834+963482450+963662422+968653624+976899795+983416067+984117799+980677802
824+978073755+978197615+978998045+979312356+980446532+982789455+985869143
814+990500402+996348085+1000450517+1001219022+1001010720+1001972113+1002703333
804+1001346599+998997461+998366889+1000690560+1004562087+1006285589+1002134722
794+992477777+981551342+972566275+966043058+962325610+961404000+960431641
784+956283515+950264451+945633374+942545036+938877241+933316636+925967339
774+918854613+915702608+918437278+924715517+930630949+934820138+937884350
764+939323394+938104167+935999520+936727693+941450644+947378260+950263659
754+948232974+944057250+942686442+945939460+951286464+955790390+958650322
744+959423153+957144931+953829099+954637937+961649040+970085540+973092726
734+969994152+966062310+965470365+968589714+973059218+974736599+971274304
724+965312204+960548494+958012134+957947554+961145557+966768002+971657826
714+973416542+972638106+971588981+971740683+972933347+975191281+979735478
704+985624408+986860755+978800344+966195248+957467040+955013782+955732999
694+957122328+958997106+961502333+961596157+955656721+947162282+941194881
684+939503305+941238747+942977845+941186474+936605478+933287270+934268585
674+937797593+936780271+924910294+903939493+887439658+891556651+911931546
664+931258474+939804943+938617397+934533060+930586169+924424540+915455680
654+907313386+902424050+900363512+900338594+903526362+911228230+919227107
644+920361100+915156417+912575521+917716660+926298161+930809641+926418792
634+913839041+899448178+889587744+885761424+886618209+890160986+891820516
624+886121306+874797703+865248046+860325384+859291247+865896530+884018853
614+906350348+918456226+917621800+912407552+905848449+895791350+884020559
604+876674796+878012887+887827932+903100071
##END=
