##TITLE=<SNM>
##JCAMP-DX=4.24
##DATA TYPE=INFRARED SPECTRUM
##DATE=29/4/2025
##SAMPLING PROCEDURE=Instrument type and / or accessory
##ORIGIN=Admin
##XUNITS=1/CM
##YUNITS=ABSORBANCE
##RESOLUTION=4
##FIRSTX=4497.3318
##LASTX=599.83466
##DELTAX=-1.4281778
##MAXY=2.1964858
##MINY=0.64444894
##XFACTOR=1
##YFACTOR=2.0456368e-09
##NPOINTS=2730
##FIRSTY=0.65650898
##XYDATA=(X++(Y..Y))
4497+320931355+319651114+318573611+318840073+320629025+322405332+322623338
4487+321588580+320827364+321257549+322465617+323444548+323696995+323543208
4477+323525871+323854337+324548158+325771844+327531892+329139988+329489783
4467+327977316+324905150+321170603+317883170+315846404+315035858+315052554
4457+316215837+319219705+323433505+326649872+327264526+325930789+324377558
4447+323636331+323901307+324770652+325089299+323998772+322576660+322870045
4437+324911852+326420123+325866482+324022082+322286917+321211891+320810056
4427+320957259+321279461+321529198+321931732+322471823+322328962+320872177
4417+318785644+317415077+317366971+318275447+319567664+320961046+322278642
4407+323189158+323419228+323110342+322664917+322493385+323018908+324248829
4397+325328226+325361122+324480355+323227532+321603352+319604698+317909743
4387+317450828+318612539+320882026+323279543+325078635+325834431+325025138
4377+322729369+320383688+319420083+319578096+319706504+319342577+318592259
4367+317755956+317668485+318936052+320687213+321377333+320708250+319764750
4357+319698870+320835989+322483041+323530941+323567479+322915295+321753702
4347+320214166+319139635+319492111+320952771+322175146+322453321+322135606
4337+321531674+320577539+319597268+319359040+320021189+320647178+320418216
4327+319953794+320450296+321815386+322692977+322244522+320844817+319268044
4317+318308868+318691181+320344294+322256527+323583155+324234406+324225315
4307+323472724+322353088+321484734+320900382+320195955+319340829+318699543
4297+318480954+318708401+319474483+320736338+322099010+323078174+323400143
4287+323100843+322374796+321242573+319547938+317467699+315744452+315112315
4277+315690751+316955229+318047534+318476583+318648174+319160876+319769004
4267+319816790+319550298+319926288+320894118+321235783+320529055+320040798
4257+320920720+322504399+323333301+323087148+322635255+322710168+323104077
4247+322911682+321606383+319842809+318716297+318571280+319201232+320602131
4237+322555914+324081522+324162845+322752184+320888319+319903707+320274947
4227+321222846+321590270+320940213+319762390+319005137+319392461+320784473
4217+322371153+323586244+324217099+323897635+322510809+320796828+319722413
4207+319670316+320633775+322476806+324471002+325167125+323494927+320065012
4197+316988883+316090372+317333696+319141616+320172529+320262389+319727250
4187+318911227+318500563+319029962+319903736+319992080+319312012+319041034
4177+319723025+320398198+319924686+318660441+318212132+319638818+322185752
4167+323804454+323175609+321176897+319715974+319475677+319773754+320045081
4157+320090186+319385526+317711813+316088011+315818082+316961407+318473611
4147+319440275+319711866+319671190+319752337+320113584+320537330+320551112
4137+319837011+318625476+317508054+316891331+316895585+317563445+318718016
4127+319726580+319902862+319225445+318463297+318613267+319995256+321763463
4117+322689626+322572668+322417336+322998191+323712001+323288371+321464950
4107+319467665+318755574+319668596+321316640+322460110+322514189+321908684
4097+321301139+320648984+319520374+317977196+316675160+316319829+317321662
4087+319545287+322020601+323362089+322913227+321228237+319418772+318351117
4077+318159801+318315278+318413734+318642055+319077689+319130632+318451379
4067+317795991+318126730+319341936+320614544+321634180+322739247+323902997
4057+324351859+323449298+321687443+320379113+320318886+321024479+321432898
4047+321092719+320389399+319908573+319877162+320142517+320625208+321472176
4037+322461829+322683711+321567222+319951638+319290334+320070227+321564687
4027+322743239+323153960+323149444+323306757+323757892+324241457+324594720
4017+324738863+324394983+323402852+322075845+320779462+319592519+318830312
4007+319159973+320551461+321888142+322236626+321922058+321819669+322133304
3997+322453612+322513344+322287908+321767950+321067835+320388641+319742780
3987+319026320+318339929+318000448+318252021+319079612+320225297+321404285
3977+322567919+323680678+324251393+323680183+322157401+320622761+319858398
3967+320181357+321628178+323710748+325378721+325965142+325906401+325967210
3957+326101330+325609752+324302442+323064013+322998541+324119313+325163687
3947+324929393+323734204+323124298+324082425+325766599+326390607+325472107
3937+324444779+324962551+327115925+329267348+329582702+327966302+326087461
3927+325381606+325802584+326423037+326664353+326680117+326814061+327141654
3917+327380872+327023851+325840375+324247751+322879165+322037384+321946796
3907+323301483+326792325+331741875+335928431+337906486+338127697+336831051
3897+333661858+329768949+327580435+328206511+329933313+330161984+329335733
3887+330075416+332702012+334465731+334074590+333466579+333390093+332200702
3878+329990248+329129411+330616907+333342599+336157656+338076037+337461061
3868+334645305+332758859+333625903+335363077+335056843+332637531+330095084
3858+329161404+331288729+337426883+344261248+344639335+338988476+333027623
3848+329806012+329683780+331910726+335338194+338796810+341637216+343642426
3838+344386830+343552042+341711196+339735822+337874668+335957481+334200639
3828+333132809+332930887+333777942+336460073+340748436+343681441+343347730
3818+341927396+340981827+338688593+334073337+329586956+327896838+329772183
3808+333883915+337507128+339299868+340385733+341469617+341639256+340902952
3798+340321427+339518807+337543200+335201365+334101659+334480591+335538164
3788+337026389+339265078+342004290+344631963+347224643+350164699+353042402
3778+355029489+356228495+357826072+361302141+367300261+374371250+379661359
3768+381935945+382122483+381340608+380894252+382323094+385525329+388180946
3758+388795513+389218298+392408237+399697204+409663640+417872389+421322322
3748+422597930+425361501+430305398+434550609+436079684+437039093+440286957
3738+447314853+457354249+466601865+470852524+469972136+467233332+465425440
3728+465427684+466661976+467865061+468173277+467464625+465864921+463819734
3718+462146836+461664465+463073990+466528613+470438801+471877580+469894018
3708+466409092+463713265+463056478+464162769+465286571+465212183+465068798
3698+466443008+469004073+471331689+473326439+476595924+481898853+486487098
3688+486494004+482660856+478737964+477067018+478295628+482115839+487500528
3678+492906633+495730926+493590139+488956410+486838496+488382752+489693180
3668+487056473+482093374+478402562+477406673+477984294+478492102+478896734
3658+480016632+481255148+481358207+481394425+484364872+491570040+498687096
3648+499024682+493544452+488113434+485293745+483884191+482368199+481080236
3638+481083237+482343257+483853131+485011753+486421539+489023368+492008791
3628+492113220+488089542+483077609+480833792+483116478+488685432+493794742
3618+495890949+496445668+497767518+499807023+501405678+502596992+504104447
3608+505578511+505736028+503916045+500930097+498641932+498681326+500945773
3598+503711674+505512486+506326703+507082004+508675997+511347319+514350982
3588+516095442+515577086+513834550+512787583+513236358+514474234+515001039
3578+513625168+510488521+507037598+504977289+505477695+509085378+515321201
3568+521708597+524840116+523966983+521284530+518616997+515984544+513200402
3558+511162121+510884092+512111186+513361474+513547896+513364913+514432625
3548+517003481+518969327+517988735+514836645+512608854+512575870+513122314
3538+512473015+510842542+509594818+509349713+509628034+509750586+509522848
3528+509344643+509911309+511298135+512209263+511202214+508768829+506826760
3518+506414756+506965920+507379497+507151875+506643427+506288474+505591623
3508+503808702+501612146+500676659+501657892+503524670+505262952+507018775
3498+509109329+511111538+512223016+512003378+510615386+508847558+507751466
3488+507592433+507504497+506682879+505312428+503998562+503061152+502684812
3478+502975313+503567386+503764821+503227993+502291107+501507368+500986215
3468+500501135+500177068+500426427+501022113+501062730+500010052+498032494
3458+495552372+493079476+491072372+489604077+488633713+488527390+489536770
3448+490945333+491568408+491005705+489745452+488334471+487155308+486523375
3438+486168626+485195289+483289088+481324029+480267039+480327791+481307217
3428+482586089+483066944+482392004+481556138+481373359+481406954+480996291
3418+480378315+480301683+480954275+481524524+481017853+479598014+478473600
3408+478281671+478573978+479123452+480455646+482502639+483954762+483994593
3398+483657677+484309890+485482905+485370347+483330259+480873943+479917914
3388+480855266+482565955+483854471+484283404+483711727+482203164+480686385
3378+480682073+482692295+485395639+487101607+487593681+487863377+488449855
3368+488864860+488547116+487729956+486993391+486465653+486178708+486814924
3358+489080710+492287345+494371781+493919509+491805587+490306989+490917710
3348+493336002+496263151+498605219+499678585+499170719+497811515+497177426
3338+497739895+498027074+496719094+494441594+492546844+491453723+490859319
3328+490436768+489865499+489071328+488580566+488856119+489524474+489918121
3318+489777678+488786976+486447122+483264554+481059490+481121436+482740517
3308+484308520+485450184+487127015+489699415+491953547+492650923+492314735
3298+492432217+493523997+494881161+495604936+495398701+494828306+494827956
3288+495504936+495927021+495592465+495304296+495978478+497351435+498413203
3278+498778471+499001663+499436744+499575904+498915883+497694907+496309946
3268+494883667+493722831+493317413+493727085+494566652+495330985+495237513
3258+493489732+490650520+488819668+489236887+490749645+491530937+491281229
3248+490798072+490453026+490196092+490269402+490882163+491553956+491591193
3238+491209376+491487289+492883556+494351326+494410708+492823416+490701918
3228+489136130+488298428+487725702+487029579+486316295+486005952+486334389
3218+487146596+487991145+488174011+487110290+485114171+483412573+482902580
3208+483305376+483795002+483954704+483792846+483397858+482905989+482304854
3198+481211355+479383999+477451225+476518447+476872030+477674184+478202709
3188+478612469+478946238+478380972+476361455+473652895+471449987+470177205
3178+469637667+469610103+469831489+469781431+468895390+467167714+465353675
3168+464190624+463606506+463144968+462851088+463051437+463453155+463184945
3158+461854733+460165489+459170911+459024904+458918639+458340232+457789388
3148+457912115+458486035+458676041+457976771+456623045+455246708+454333715
3138+453965097+453885698+453680337+453060001+452299805+452185469+453027746
3128+454019177+454101927+453136399+451715366+450360998+449472947+449327085
3118+449493897+449015169+447720970+446624645+446462320+446605123+446035864
3108+444786567+443678673+443137941+442897469+442495110+441730776+440905545
3098+440592201+440888442+441218365+441125970+440703244+440068514+439235999
3088+438540225+438359806+438557271+438864467+439423119+440279440+440810616
3078+440337453+439045818+437830233+437307099+437317647+437420648+437536411
3068+437799551+437984836+437594394+436561734+435410368+434669956+434447899
3058+434464158+434292480+433730943+432990094+432379606+432011076+431955452
3048+432257142+432588318+432405335+431566759+430364343+429140046+428236960
3038+427902433+428005200+428240806+428503509+428676848+428436056+427713564
3028+426990809+426732943+426775571+426578573+426006546+425524059+425492940
3018+425609810+425365872+424856316+424669924+424970826+425122137+424485746
3008+423391984+422809701+422994258+423066461+422246125+420978937+420321596
2998+420555832+420954374+420805161+420143129+419352251+418568133+417815192
2988+417343136+417354150+417527664+417224663+416264176+415252845+414895678
2978+415139383+415290549+414881896+414130179+413589009+413554189+413753111
2968+413637406+413141574+412852909+413113456+413449790+413335047+412904162
2958+412446150+411943442+411552913+411786245+412729745+413557074+413268934
2948+411822143+410193796+409305891+409232668+409588466+410198895+410903089
2938+411157139+410543650+409424276+408494879+407936926+407476641+406998263
2928+406620437+406349371+406129355+406061348+406096604+405788883+404930552
2918+404110887+403984663+404367704+404640372+404631660+404594044+404615547
2908+404547511+404394394+404342209+404361148+404148649+403683761+403470475
2898+403808673+404123241+403580323+402252209+401049706+400524678+400368822
2888+400164568+400016579+400185751+400573716+400850522+400821880+400542394
2878+400271007+400308886+400630156+400720773+400062121+398750848+397401085
2868+396529263+396275884+396533517+397022910+397378882+397406912+397137595
2858+396622124+395967784+395444097+395204267+395127227+395173119+395539173
2848+396229264+396806710+396792549+396138064+395214756+394425685+393890138
2838+393498764+393148619+392866918+392846551+393279825+393903891+393952230
2828+392989675+391592942+390796906+391021177+391740319+392059811+391534987
2818+390496732+389633535+389352097+389546822+389804456+389757428+389352505
2808+388818007+388384005+388114687+387929402+387632696+387069702+386412769
2798+386076231+386216936+386544441+386676929+386440041+385862537+385155692
2788+384610122+384323963+384131539+383851674+383438651+382938885+382507767
2778+382365577+382533350+382706485+382575017+382210216+381946580+381934779
2768+382027699+382051213+381922862+381559780+380960947+380312785+379780123
2758+379326832+378901367+378605854+378522842+378515995+378361362+378038403
2748+377740064+377553876+377321884+376922613+376496915+376269264+376282755
2738+376362008+376289748+376050412+375837855+375744965+375646130+375522267
2728+375606853+375993740+376341496+376220867+375664254+375122385+374882117
2718+374772065+374512246+374110179+373773554+373584539+373358928+372814757
2708+371955581+371227552+371075047+371420209+371814847+371972131+371891099
2698+371628425+371263916+370980408+370924960+371020181+371001708+370673707
2688+370159315+369836851+369927934+370170183+370103633+369704334+369395768
2678+369357336+369236153+368690030+367852182+367137994+366895250+367245220
2668+367948074+368449995+368318731+367627649+366817715+366310199+366314832
2658+366773368+367314392+367429660+366889248+365941232+365093419+364758484
2648+364930716+365079666+364651171+363810439+363290656+363423435+363797647
2638+363943247+363870753+363849978+364050240+364448462+364833426+364931415
2628+364661194+364170170+363614868+363110441+362847096+362958955+363279991
2618+363491355+363520842+363571220+363761284+363945170+363914081+363650911
2608+363350912+363238820+363342520+363413179+363174048+362714113+362470611
2598+362683052+363062335+363197824+363077370+362965482+362977020+363010994
2588+362959713+362789987+362480839+362023118+361487630+361018779+360739934
2578+360717440+360998237+361543836+362149983+362607616+362926729+363222969
2568+363400620+363155458+362363415+361358551+360729474+360823384+361472362
2558+362203770+362677225+362884625+362956216+362875185+362501060+361857501
2548+361231512+360944362+361136524+361709949+362324837+362575797+362351876
2538+361923847+361593749+361403452+361220469+360969654+360746082+360717119
2528+360882270+361042119+361123558+361336115+361788678+362178392+362143864
2518+361731190+361255813+360947130+360948034+361350364+362009395+362570232
2508+362788909+362679964+362413822+362195262+362130490+362156189+362151585
2498+362053334+361863212+361666330+361573994+361573236+361590544+361675567
2488+361888474+362109365+362181072+362082442+361859774+361635998+361674226
2478+362097273+362572155+362611229+362171574+361655753+361360474+361235737
2468+361170586+361205725+361420119+361822186+362326323+362696601+362679061
2458+362349924+362108666+362165484+362269417+362110298+361777927+361595410
2448+361630287+361649838+361530666+361389845+361269973+361077054+360931571
2438+361172946+361836114+362461171+362602546+362279586+361812746+361459775
2428+361354355+361601237+362203450+362931770+363452543+363641791+363658749
2418+363685585+363765247+363942111+364321626+364868332+365366845+365663056
2408+365717368+365486804+365081094+364889719+365184124+365763289+366268707
2398+366619697+366936392+367322085+367912089+368955064+370785828+373807091
2388+378457137+385155692+394332969+406456306+421888696+440668571+462412657
2378+486346131+511355302+536146147+559769919+582246550+604234604+625576681
2368+644381119+658080675+665698254+668767360+669067826+665804606+656862264
2358+642383397+624322081+603328663+579074705+553816380+532751575+520238962
2348+518053711+525993259+541447531+558979362+573474079+583220265+588709528
2338+591300489+592645707+593617324+594207824+594458523+594589874+594271693
2328+592633819+589306205+584760530+579374996+572878684+565069614+556504426
2318+548071174+540144446+532370690+524224558+515613683+506899778+498395779
2308+490009088+481561092+473264377+465487008+458170477+450960589+443881062
2298+437396435+431788990+426877027+422387645+418265016+414514880+411028060
2288+407742724+404817994+402438543+400582399+399172147+398227598+397621422
2278+396954029+395974282+394880462+393968052+393255321+392629885+392100574
2268+391729101+391440174+391052908+390491021+389856437+389245774+388604663
2258+387889018+387253443+386885786+386721218+386521655+386214080+385959711
2248+385891208+385953941+386027980+386074425+386138177+386297414+386610058
2238+387030716+387375791+387430394+387129259+386645752+386254931+386049891
2228+385860206+385513296+385048145+384568630+384055928+383465020+382857766
2218+382327552+381892821+381531138+381247165+381059986+380954304+380881344
2208+380843057+380932305+381188482+381463510+381579827+381562170+381576389
2198+381738364+382098940+382680115+383395819+384019797+384342349+384387191
2188+384463648+384912365+385723347+386503532+386908688+386978909+386961718
2178+386975530+386999481+387060582+387205715+387325499+387254521+387082901
2168+387115214+387466000+387936687+388303382+388497437+388537239+388530187
2158+388680449+389081089+389563460+389886128+390001687+390073074+390301045
2148+390733445+391189388+391430063+391424498+391346439+391342301+391461153
2138+391756636+392268260+392926942+393607651+394248383+394864757+395493165
2128+396141793+396789548+397447617+398188262+399085171+400171212+401412817
2118+402636881+403587461+404177874+404563450+404877930+405086554+405176210
2108+405271694+405431746+405493051+405269596+404826240+404432156+404288363
2098+404372920+404485216+404414586+404170007+404015957+404150688+404430087
2088+404557826+404451008+404291335+404318374+404620093+405030494+405277929
2078+405323791+405427084+405768487+406178305+406398905+406492699+406773380
2068+407351642+407965597+408323929+408436633+408523870+408748083+409123374
2058+409585144+410068796+410528585+410934091+411318997+411817160+412532281
2048+413388310+414232043+415044424+415924405+416916914+417952167+418914140
2038+419723462+420369556+420875615+421265271+421603119+422044872+422781147
2028+423889069+425255324+426695909+428147828+429699951+431462097+433415093
2018+435310572+436784402+437755437+438591944+439682122+441048494+442534795
2008+444096155+445730882+447353897+448887168+450373732+451948290+453677219
1998+455418270+457007310+458597778+460437924+462265484+463425009+463741412
1988+463777484+464175910+465192545+466762325+468620916+470407333+471911000
1978+473222360+474565393+476065797+477742075+479634319+481840083+484360735
1968+486942662+489226165+491117011+492863801+494752607+496885585+499203469
1958+501557426+503793900+505890923+507979204+510169408+512456873+514854652
1948+517471079+520370663+523477998+526602698+529420290+531597965+533167949
1938+534616780+536469339+538835825+541388907+543761453+545887846+547947806
1928+550195585+552978503+556484147+560203310+563297649+565782957+568319489
1918+570708468+571998150+572291331+572887425+574609973+577100351+579456581
1908+581023651+581733906+582019686+582438449+583332386+584715425+586317693
1898+587774799+588865122+589612323+590322053+591482015+593292850+595250129
1888+596521396+596799834+596460499+596054264+595930838+596187073+596814519
1878+597698374+598434911+598639164+598640971+599340095+601194927+603511879
1868+604724463+603905060+601929890+600421211+599995047+599925933+599334734
1858+598224131+597108865+596147038+595045875+593670122+592423796+591901420
1848+592339181+593444248+594325947+593666800+591049965+587719380+585098407
1838+583534018+582494102+581609489+581339618+582175979+583438855+583702665
1828+582696258+581318930+579735601+577356237+574363995+571724491+569965638
1818+568844546+567952940+567334992+567418850+568282251+569154918+569035804
1808+567816052+566368561+565743447+566499797+568315992+570019543+570541627
1798+570110684+570039706+571439411+574185033+576445924+576105074+573669242
1788+571643431+571577697+573179674+575272850+577037123+578259381+579110078
1778+580224702+582444743+586145025+590686155+594236962+595228684+594275132
1768+592887140+591889066+592017096+594043023+597471102+600385022+601885659
1758+602883326+603912461+604892586+606623409+610136046+614572864+617224022
1748+616879560+615318841+614779915+616027406+618408635+620680191+622054721
1738+623319286+626399465+631958133+637055206+637848211+635532949+632984529
1728+631015770+629913092+630142578+631532377+633783594+637544832+643560667
1718+650651732+655266056+655096359+651688559+647866599+645712234+646121791
1708+648719686+652150912+654978236+657398218+661213126+666862004+671247482
1698+671832446+670185772+667882456+665504432+664138177+664290741+665488756
1688+668098015+674002020+683359630+690326745+689262820+684221749+680698506
1678+680297284+682495530+685718074+688523544+691154365+694176385+696160179
1668+695349983+693282972+692801330+694406687+695950098+695329529+693518811
1658+693513974+697901550+707859799+720314253+725134637+720672527+716639146
1648+716791594+718383256+717420030+714381110+712303785+712601686+715406749
1638+720607493+727003688+730901055+730086605+728008231+728460910+732097731
1628+737301913+742352366+747387084+753254668+759149291+763818335+768235806
1618+774118658+780537872+784393922+785557322+786396190+787806908+789202185
1608+790196471+791063602+791892446+792134753+791305268+789850726+788890997
1598+789475494+792178867+796455371+800591490+803297252+804740722+805571722
1588+806263970+807308955+808687040+809633891+809919846+810575672+812908125
1578+817406947+822827038+826577553+828607443+831249277+834567101+836250837
1568+835980617+836289241+838111031+840591852+844317658+851706624+862919474
1558+870352613+868616545+863659390+860209982+858711093+858229101+857773508
1548+857218207+858062493+862139406+869024469+875481038+877776544+874683312
1538+869287814+865123547+862819357+861195993+858874030+855965413+853927306
1528+853657785+854913900+857367449+861291972+865969932+868984143+869752032
1518+870555701+872105755+872871138+872576616+872881802+875185642+880157366
1508+888049594+896189083+898694730+895578304+891974992+890881405+893051737
1498+897837331+903265638+907601816+911135664+914722135+917633141+918354585
1488+917453480+917379005+919376668+922635984+925302702+926105147+925784985
1478+926507361+929596805+934497724+939212455+941104409+939422770+936309433
1468+933898950+933093940+934011886+935606754+935929714+934659029+934043355
1458+936515493+940931099+942180979+937745443+929466036+920901548+915455583
1448+914189736+915411702+917169914+918697300+919321948+918624398+917650216
1438+918040425+919582204+920266351+919787040+919583020+919684593+918959478
1428+918106975+919187916+922293502+925496233+927870003+930181127+932391086
1418+933159383+931935027+929150827+925421932+922325204+921839074+923606086
1408+924754801+923588895+921993503+922946531+926486440+929329498+928463707
1398+924792913+922077186+922721531+925957304+929093717+930258633+929704788
1388+928539989+926940868+925204509+925709810+930056535+935859026+939497303
1378+941047183+943833131+949399958+955316959+958270040+958123478+957264098
1368+956985835+956862001+957717244+962102722+969902643+976081590+976684793
1358+974280487+973875069+977466959+983172247+987052773+986013731+980814211
1348+976017779+975813234+980543816+987188787+992433761+995181423+996462888
1338+997573957+998909735+1000594462+1003328954+1007529992+1011918559+1015086849
1328+1017701177+1020698722+1023574472+1026008265+1029081334+1033481089
1320+1038166858+1041878037+1044683857+1047552847+1051021370+1054261338
1311+1055826369+1055936625+1056847229+1060437079+1066105363+1071278310
1302+1073741823+1073297185+1071156049+1068729948+1067548249+1067673774
1294+1067192539+1065135435+1062451643+1059769249+1056552124+1052139432
1285+1047138979+1043289455+1041649250+1042184913+1044247378+1046360776
1277+1046187933+1042394120+1036783645+1032357083+1029136346+1024956403
1268+1020141614+1017323556+1017247682+1018217843+1018594066+1017401761
1260+1013689649+1007709828+1001342829+996394590+993454271+991766630+989818383
1250+986358719+981204886+974629787+966505566+957288574+948080498+939317525
1240+930994004+923531611+917011290+910353732+902551946+893932038+885511897
1230+878254923+872973060+869586822+866706876+863084800+858982538+855295776
1220+852379058+850147596+848581458+847941716+848322542+849171957+849943342
1210+850869097+852082789+852733720+852354466+852231506+853998402+857647984
1200+861803917+865398721+868612174+872329822+876841057+881038307+883444886
1190+884148031+885058460+888127916+893455233+899238842+903665987+906612891
1180+909395576+912885951+916467527+918709304+919171191+919481039+922056265
1170+927966331+936357684+945473162+953712942+960547131+966627943+972490165
1160+977561772+980532510+981035889+980540086+980907101+982701735+985140191
1150+987222003+988300439+988870134+990352648+992766278+995066854+996954146
1140+998276869+998116613+996101118+993658816+993003340+995279558+999545514
1130+1003220097+1004402611+1004358322+1005978597+1010104577+1014136035
1121+1014965637+1013485920+1013509347+1016614933+1020738582+1023084963
1113+1022170396+1017230200+1010733130+1009622644+1017742669+1028616767
1104+1031291118+1025118407+1018826932+1017127636+1017173323+1016181718
1095+1016081485+1018470523+1021088931+1021341028+1018966675+1014404566
1087+1009505744+1008781387+1015211673+1025057102+1030250445+1028513154
1078+1024469575+1020854433+1016958988+1013345944+1011932894+1012166460
1070+1011713664+1010475089+1009936396+1008678590+1003917647+997944120+997046570
1060+1002709841+1008467286+1008592926+1005759717+1005223937+1007026031
1051+1006702139+1001931289+995635035+992132247+992077119+992097865+989026661
1041+984084599+982429941+987574683+997338177+1006448876+1011064482+1009275325
1031+1000542365+988406033+979578434+977529663+980520622+985150563+988658596
1021+989189481+986969906+985098116+986901142+992870706+1000559381+1006003539
1011+1005684892+999005539+989165704+980119924+974218891+972041915+971440460
1001+967769956+958832625+947843202+938745674+932524944+928529383+926700425
991+926986963+927271578+924388718+918243163+912450579+909631589+908511371
981+906186318+901538603+895434249+889320570+884763997+882330845+880518787
971+877543620+873710879+870336471+867554893+864335554+859928631+855209587
961+852313965+852404175+854297002+855893851+856511449+857028755+858132540
951+859793433+862087774+865475236+870494104+876804053+882411672+885090628
941+885049777+884696922+885531244+887157697+889545336+893807913+900110635
931+907162190+914317358+922149447+930233575+936626157+940233898+941825444
921+942553472+942513030+941064665+938952316+938300453+938988272+938072016
911+934578202+931360203+930259682+929801641+928901643+929096107+931603151
901+935100112+937127379+936647602+934940847+934303844+936369223+940888850
891+946091225+950301995+952839809+953431066+952001000+949781076+949287779
881+951911606+956519170+960904881+962789783+960917235+957724994+957439972
871+960187634+961560474+959563509+957603375+958173245+959366890+959493987
861+959745793+961341360+964179873+968651306+975163935+981389734+983498237
851+982004185+981742064+984381684+985812566+981970852+974787304+970237724
841+972537718+980837987+989737847+994253803+994299491+992207771+988795775
831+984729819+982642528+985191589+992706138+1002182454+1008597472+1009426257
821+1006943280+1005480464+1007694793+1012907950+1018044067+1020059097
813+1018854438+1017769126+1019326698+1022424125+1023703493+1021087183
804+1016057009+1011842918+1010296768+1010493038+1010735578+1011242103
795+1012776016+1015394890+1017269827+1015896287+1012635107+1012181029
787+1016664234+1022034499+1021494641+1012858533+1000737352+989915702+981694512
777+976721448+976642427+981612694+988163376+992055557+991730266+988371301
767+984051382+980462814+978310838+976603791+974787246+974866616+979234379
757+987138204+994282707+996626174+994145062+989772812+986074454+984866415
747+988094262+996172213+1006652605+1014331023+1014498855+1010572059+1009594322
737+1012091985+1014997571+1017317495+1019575065+1020107232+1017276004
728+1013657831+1011650144+1009309824+1005766826+1005218809+1009486747
720+1015135800+1018907002+1019582175+1015965285+1008231039+999292601+993330379
710+992483062+994864407+996513354+996235733+997151115+1000438752+1001558679
700+994820818+982472132+973477284+972736960+977638753+982704533+983779705
690+980745796+979241255+982907096+987747526+988507548+987884705+991916163
680+999308801+1003745153+1002065438+994844827+984494854+975893828+973175770
670+975895285+977642716+971026883+961425451+955898950+954670515+957007630
660+963691995+975823665+989358361+989583769+970003051+949708990+948734866
650+968967972+993815925+1003255295+991347051+974963352+967509293+967305913
640+966143620+960231631+953384388+950355258+950871807+951847213+955283684
630+959822833+956820335+943718329+928100247+921294262+924573391+931169062
620+939545089+946241866+945954046+945344491+951610150+963525271+970418376
610+961742758+943355277+924425606+905762368+885294065+864974888+855380974
600+865679898
##END=
