##TITLE=<SNM>
##JCAMP-DX=4.24
##DATA TYPE=INFRARED SPECTRUM
##DATE=29/4/2025
##SAMPLING PROCEDURE=Instrument type and / or accessory
##ORIGIN=Admin
##XUNITS=1/CM
##YUNITS=ABSORBANCE
##RESOLUTION=4
##FIRSTX=4497.3318
##LASTX=599.83466
##DELTAX=-1.4281778
##MAXY=2.1935501
##MINY=0.51652175
##XFACTOR=1
##YFACTOR=2.0429027e-09
##NPOINTS=2730
##FIRSTY=0.52959758
##XYDATA=(X++(Y..Y))
4497+259237785+258436687+258011761+257915975+257565712+256657216+255432855
4487+254359950+253865526+254448267+256407115+259070866+261005907+261554045
4477+261526006+261958868+262859632+263554411+263680191+263209633+262019263
4467+260265963+258908529+258941381+260063070+260974017+261043019+260740372
4457+260461270+259901316+258736300+257408422+256864952+257450611+258362550
4447+258559666+258077788+257876353+258463500+259347926+259931717+260288458
4437+260727563+261155845+261179302+260420306+258842532+257305137+257360514
4427+259595488+262481914+263812564+263063255+261355149+259698714+258401500
4417+257503158+256928586+256621708+256734300+257213290+257550044+257604312
4407+258005313+258916931+259261680+258171094+256465964+255712511+256320986
4397+257353045+257934677+258094914+258123157+257924786+257472464+257244771
4387+257597543+257998311+257527520+256257936+255434752+255870560+256823784
4377+257200452+257240424+257890300+259056424+259650311+259090940+257928229
4367+257094716+257075402+257727641+258469015+258645474+258004205+256853456
4357+255788662+255427428+256155789+257717721+259184655+259740816+259443625
4347+258987947+258850672+258775572+258155134+256943553+255804476+255146313
4337+254586125+253733940+252943521+252837172+253458135+254243886+254729907
4327+254946425+255021963+254921450+254787472+254899947+255195446+255424832
4317+255557147+255473294+254897088+254044348+253468113+253264695+253299940
4307+253646819+254109470+254222149+254169019+254767078+256200342+257409063
4297+257068049+255207934+253527867+253553571+254887197+256057756+256604756
4287+257168533+257933656+258255735+257831042+257246697+257027056+256859642
4277+256322533+255798903+255883427+256354539+256598192+256645837+256912947
4267+257295217+257392229+257289061+257285122+257156804+256593319+256058923
4257+256258840+256954115+257221692+256827810+256473316+256681841+257225923
4247+257646064+257818176+258005547+258506127+259093420+258993870+257898177
4237+256588563+256006289+256237046+256777598+257210926+257292008+257016786
4227+256890190+257468117+258455769+258934291+258656969+258400479+258797717
4217+259503232+259921039+260085040+260181030+259884539+258970850+258001520
4207+257767088+258435841+259468921+260015279+259508951+258254188+257145192
4197+256717523+256814710+257021279+257074439+256945741+256702147+256394773
4187+256182311+256378347+257051127+257723177+257852721+257540999+257452799
4177+258026962+259008254+259912811+260673791+261402531+261769921+261277335
4167+260141350+259330128+259552453+260472445+261081299+260743202+259663615
4157+258412646+257352928+256632912+256370586+256584829+257063323+257501932
4147+257836586+258259499+258745928+258931491+258734841+258590739+258741493
4137+258864064+258700442+258462654+258356744+258266851+258189242+258549921
4127+259625540+260840330+261205357+260471569+259346029+258631907+258598529
4117+258902051+258838797+258126921+257461464+257703921+258647925+259243358
4107+258941848+258250104+257952883+258257748+258831415+259412814+260075966
4097+260805319+261197246+260926926+260285453+259825311+259600098+259250623
4087+258780502+258704731+259321492+260216655+260642952+260294789+259704316
4077+259782013+260809870+262002808+262345222+261771905+261153540+261165648
4067+261605133+261890070+261734238+261153306+260320960+259666708+259654716
4057+260196144+260606919+260380247+259783472+259460401+259558551+259529579
4047+258938055+258202575+258153559+258980594+259995497+260433669+260177996
4037+259573460+258853706+258144806+257860219+258467643+259733551+260747403
4027+260935329+260601900+260301616+260196552+260285628+260837150+262110760
4017+263723343+264750412+264645523+263786743+262940626+262440834+262139674
4007+261913411+261777361+261636847+261390569+261332450+261929896+263046012
3997+263876753+263844600+263226205+262701350+262577963+262733152+263112709
3987+263851894+264842230+265537797+265461267+264784198+264158218+264004079
3977+264125307+264035939+263611626+263304573+263649789+264634027+265607674
3967+265873530+265354160+264593180+264164053+264214382+264495060+264650541
3957+264531618+264376983+264632364+265449480+266521131+267421457+267868557
3947+267725943+267052667+266197681+265681170+265759071+266078553+266086314
3937+265742353+265499167+265710959+266301432+266825587+266859782+266560315
3927+266502078+266936282+267553889+267921367+267952294+268008283+268595343
3917+269640005+270254870+269966636+269549033+269771241+270248013+270247342
3907+269936321+270083400+270881026+271614346+271755765+271763992+272023984
3897+271834862+270487406+268688561+267993695+269055864+270639620+271198232
3887+270969664+271132060+272014005+273138291+274362009+275413966+275245180
3878+273538971+271554768+270625761+270953150+272128494+273890926+275549607
3868+276021624+275315671+274605516+274756708+275279317+275135769+274135337
3858+273021993+272946981+275055942+278817369+280798946+279510485+276991391
3848+275087948+274321921+274489160+275297785+276651864+278551455+280603493
3838+281705896+281141244+279836853+279267124+279733422+280229685+279816225
3828+278777223+278158274+278682341+280322582+282152442+282555047+281297222
3818+280309657+281103461+282892356+283794580+283377852+282645028+282791902
3808+284133114+285384696+285379619+285147433+286297540+288379104+289797488
3798+290604392+291636713+292755455+293511883+294170045+295206014+296724181
3788+298701994+301131458+303627620+305685552+307637864+310436236+314247701
3778+318220074+321943193+325892605+330403342+335346153+340595405+346123029
3768+351844180+357578052+362894584+367415358+371484101+375619308+379200309
3758+380967672+381140659+381600159+384169496+389472432+396236845+401782558
3748+405203088+408117232+411940280+415831251+418255406+419923044+422647686
3738+426888512+431350379+434926274+438278706+442365713+446911025+451175833
3728+454910565+458091556+460579403+462566961+464663055+466723408+467229357
3718+465031203+461231263+458166364+457124153+457548582+457945324+457241646
3708+455386491+453383819+452606063+453751880+456275293+458960839+461204216
3698+462787885+463152328+462053134+460732550+461674453+466531719+473652610
3688+478788482+480022062+479044884+477860467+477180947+476984823+477410216
3678+478841641+480750627+481118455+479335132+477720186+478429466+480959647
3668+482624251+481892798+479668006+477482690+475824592+474121242+472195042
3658+471027343+471368911+472113932+471480978+469348646+467258212+466603318
3648+466953581+467130624+467180165+467568358+467818400+467224134+466468581
3638+467124351+469292628+471080123+471151868+470569943+471134012+472841738
3628+473755924+473184182+472505217+472465129+472840046+473622588+474875016
3618+475962539+476450369+477121340+478948865+481829251+484815256+486986393
3608+488092238+488827514+489962419+491223542+491686514+491290415+491272500
3598+492761783+495408962+497533007+497787601+496682105+495935072+496764675
3588+499152184+501756882+502700448+501450004+499374917+498237852+498750307
3578+500691183+503495039+506068635+507333201+507749141+509048543+512111486
3568+515873789+518308680+518064532+515010575+510321861+506287867+504505011
3558+504434171+505118475+507231084+511470013+516092846+518529371+518626295
3548+517769675+516338687+514333098+512897150+512865172+513089364+512198724
3538+510877964+510657390+511391820+511644021+510741069+508997076+506864977
3528+504960222+504179927+505092275+507304200+509489516+510495578+510230656
3518+509085947+507445180+506199054+506320778+507138011+506616628+504307195
3508+502074146+501419894+502191903+503694490+505232497+505976263+505721436
3498+505404404+505948895+507210310+508501776+509470843+510186599+510816227
3488+511376356+511524573+510652255+508692065+506722480+506003105+506229573
3478+505785857+504063222+502267353+501450121+501091892+500303778+499236270
3468+498431525+497897421+497566502+497632499+497922338+497811117+497231148
3458+496867901+496923336+496483531+494650024+492020234+490388862+490574366
3448+490905811+489217749+486482749+485790538+487761319+489572389+488908216
3438+486671520+484793287+483754605+483061402+482494620+482203031+482316119
3428+482831200+483635536+484393890+484684692+484508845+484333028+484175242
3418+483184410+481153992+479526675+479560316+480568449+481153233+481242396
3408+481678438+482523534+482934280+482406536+481367242+480613323+480608392
3398+481197348+481896211+482307016+481999671+480515553+478271067+476920051
3388+477792952+480180140+481974521+481965476+480860447+480147550+480555466
3378+481660232+482694245+483413562+484053430+484874981+486021498+487305204
3368+488103530+488090254+487923394+488419423+489346155+489938787+490269472
3358+490979569+491963982+492502579+492449128+492323961+492468326+492694327
3348+492481864+491453103+490059869+489425514+490020714+491056303+491542908
3338+491397142+491322392+492072285+493748997+495457045+495951410+494947216
3328+493470245+492687383+492571319+492070885+490578859+488716673+487454587
3318+487014723+487022776+487180591+487384330+487529833+487527791+487402186
3308+487175252+486644124+485518409+484006456+482974368+483126378+484257636
3298+485604684+486681878+487465908+488019968+488177171+487732143+487110918
3288+487492896+489713019+493053489+495502152+495672484+494283043+493106765
3278+492931707+493183908+493137692+492899029+492969519+493365152+493780508
3268+494151632+494414979+494091645+492861333+491208662+489753633+488359465
3258+486592890+484705611+483558977+483699024+484747217+485749311+486246449
3248+486720770+487667108+488852547+489768513+490161286+489795589+488302921
3238+485933327+483904339+483325128+483936228+484361709+483587570+481981873
3228+480968313+481657490+483623953+485195367+485301569+484567928+483948891
3218+483234010+481826246+480040764+478721172+478194333+478221175+478442157
3208+478554195+478505850+478486564+478467658+478130728+477507198+477051666
3198+476761740+476060280+474932406+474103095+473739964+473198304+472341654
3188+471757687+471403223+470415629+468715138+467569029+467870947+468912867
3178+469434250+469033978+467891400+466018213+463652791+461547827+460158561
3168+459224302+458460317+457920407+457573470+457186444+456568020+455594110
3158+454267516+452971148+452277886+452319083+452662840+452827833+452689187
3148+452449706+452272109+451931358+451031556+449638030+448339328+447514860
3138+446883074+445988494+444849767+444034956+444168789+445146491+445976678
3128+445798673+444774317+443596230+442715743+442331577+442327346+442054459
3118+440942457+439293579+437973578+437644760+438402822+439615133+440289459
3108+440042947+439271143+438195319+436673534+435153120+434658580+435423878
3098+436449051+436803720+436531182+435912904+434820976+433310307+432015806
3088+431429389+431275191+430890325+430068337+429448600+429863576+431113466
3078+431867911+431259232+429956241+429111991+428998932+429118439+428987291
3068+428515683+428055833+428126586+428728904+429068868+428373273+426865405
3058+425505753+424823987+424374961+423423255+421952353+420787279+420758891
3048+421870922+423225176+423791199+423384275+422751263+422618102+422947212
3038+423217794+423040022+422261244+420893919+419278361+417971723+417261131
3028+417032942+417125956+417499911+417965100+418072324+417597798+416977565
3018+416825818+417037668+416859721+415936753+414758929+413931456+413532264
3008+413371794+413443538+413798587+414191097+414202476+413685761+412848426
2998+411965139+411219972+410707342+410407758+410219191+409999230+409539788
2988+408710564+407697879+406881551+406470718+406359905+406267591+406061401
2978+405902652+405860609+405672800+405245715+404940442+405022457+405334178
2968+405621070+405633178+405095836+404132284+403332878+403063930+403159628
2958+403349334+403457666+403212875+402362353+401085358+400032993+399713569
2948+399886731+399850231+399296958+398542981+397995105+397780717+397837669
2938+398051241+398250895+398192601+397704479+396925409+396231156+395842992
2928+395674615+395540812+395360647+395209484+395192153+395198835+394958421
2918+394408036+393741296+393112281+392568286+392129852+391716334+391162915
2908+390455124+389824679+389570727+389814846+390338447+390683371+390567132
2898+390117377+389558765+388914082+388257262+387928326+388111234+388428411
2888+388290727+387541009+386605408+386071887+386090531+386174093+385791648
2878+385092113+384649244+384595880+384474973+383935967+383221961+382827146
2868+382815271+382723336+382191624+381404239+380797253+380616417+380776362
2858+380922507+380783715+380572857+380687111+381034311+381124437+380739279
2848+380088557+379469783+379094924+379037037+379129848+379100059+378892147
2838+378622615+378180709+377289427+376094243+375266682+375337406+376189475
2828+377190869+377616582+377154340+376209110+375488685+375245471+375187847
2818+375012467+374710958+374423074+374210465+374020264+373796160+373522835
2808+373166940+372726114+372314813+372065150+371998891+372027746+371991334
2798+371781847+371483547+371199135+370792386+370087862+369248544+368697692
2788+368665248+368889936+368852123+368370624+367770027+367359048+367132026
2778+367038340+367030958+366895988+366533325+366174134+365922662+365531668
2768+364971510+364676886+364889816+365177087+364894163+363956724+362964433
2758+362563694+362765829+362955855+362567458+361623191+360571585+359809175
2748+359489547+359569899+359799226+359788431+359342264+358682381+358188044
2738+357986114+357914281+357796088+357588322+357271583+356804818+356282880
2728+355929233+355795284+355683596+355479974+355307891+355255899+355209887
2718+355038592+354741401+354376637+354013040+353757104+353664469+353606641
2708+353390619+353016519+352639326+352323461+352052850+351890512+351866617
2698+351807447+351521313+351075818+350720624+350582765+350556361+350487300
2688+350373949+350297128+350200554+349916900+349429741+348951481+348690264
2678+348617644+348500763+348160653+347663837+347210143+346916395+346799864
2668+346835255+346927277+346974952+347001882+347041678+346951902+346577043
2658+346031794+345615067+345475370+345482314+345394347+345081254+344603694
2648+344153531+343947370+344077176+344358233+344413114+344036737+343425257
2638+342986911+342970017+343242059+343414608+343279900+343051799+343020201
2628+343108635+342981367+342469554+341738100+341146256+341008047+341330097
2618+341731244+341758261+341300774+340630446+340101856+339904331+340022146
2608+340293399+340501544+340494250+340277031+340029294+339988389+340206804
2598+340420900+340316128+339947658+339703101+339800551+340024042+340044232
2588+339832966+339608774+339485153+339379068+339244564+339196919+339343385
2578+339622808+339851872+339880494+339744707+339674071+339832791+340066115
2568+340076268+339823746+339562792+339495336+339559407+339581231+339511646
2558+339424729+339341693+339196365+338988016+338817421+338704829+338520171
2548+338195438+337900814+337890894+338201477+338606505+338898152+339062970
2538+339110761+338947519+338584039+338292187+338353807+338725107+339067259
2528+339092526+338851674+338662990+338735640+338924936+338939145+338714720
2518+338456304+338359351+338445071+338674661+339072044+339621145+340105328
2508+340204236+339814147+339191026+338720205+338616279+338860544+339306448
2498+339792002+340211822+340516599+340670417+340665282+340545017+340353707
2488+340146437+340073321+340258212+340552544+340640628+340436510+340167941
2478+340072504+340196154+340446897+340688390+340800369+340756109+340660206
2468+340662365+340799465+340952583+341019105+341063745+341177329+341276062
2458+341208460+340987653+340762936+340629599+340593858+340666858+340862048
2448+341094351+341189671+341076437+340905900+340884806+341040929+341243384
2438+341396707+341535674+341763338+342117190+342462406+342565632+342346692
2428+342013234+341884799+342093061+342477636+342792946+343010135+343319551
2418+343780072+344123041+344093982+343880731+343932490+344378744+344890966
2408+345157434+345250332+345408381+345660874+345845444+345933965+346161921
2398+346732495+347488807+348035632+348144548+347916067+347632297+347562740
2388+347754867+347891646+347500945+346327789+344313272+341300278+337095515
2378+331853207+326142501+320553928+315364605+310598749+306201916+302028867
2368+297896170+293888639+290421747+287856729+286320093+285956292+287037308
2358+289772863+294202315+300344949+308300987+317581023+326229826+331566461
2348+331979425+328032902+322431170+318300397+316870460+317526725+319284723
2338+321306622+323056888+324461792+325597806+326486316+327386322+328737017
2328+330583390+332539408+334369005+336227282+338369242+340909372+343794865
2318+346751723+349341658+351340740+353014943+354800717+356798195+358825141
2308+360798928+362693442+364262230+365230859+365715801+366112513+366613385
2298+367090624+367417080+367693643+368090647+368573605+368949660+369197689
2288+369544743+370122466+370736892+371092408+371119279+371004995+370967095
2278+371023609+370987401+370699430+370227618+369795777+369585386+369654534
2268+369948049+370319086+370622433+370843270+371065128+371291974+371401299
2258+371288094+370978094+370606328+370325446+370192460+370132794+370064988
2248+370010837+369996774+369965117+369925029+370064492+370553956+371300523
2238+372008431+372456844+372646141+372685179+372629277+372504693+372430527
2228+372549333+372797713+372887809+372605294+372048082+371501811+371129170
2218+370847004+370501118+370071786+369635277+369234889+368935889+368888827
2208+369148789+369514429+369724061+369751166+369766659+369864196+369963367
2198+369983031+369991113+370142131+370526939+371071109+371517508+371617759
2188+371458893+371437682+371793984+372384166+373011313+373708689+374551480
2178+375401740+376025065+376369756+376553801+376609061+376472282+376257426
2168+376276770+376717160+377463843+378215224+378674578+378768031+378738300
2158+378870557+379178602+379498959+379737476+379888173+379961581+379993704
2148+380061714+380255388+380588057+380925571+381125925+381241960+381422854
2138+381681737+381951006+382267395+382700695+383142776+383345611+383240984
2128+383112433+383312321+383880124+384560402+385099436+385426184+385667356
2118+386023455+386521176+386980588+387348474+387858303+388676556+389610699
2108+390395283+391113490+392057932+393207834+394143260+394593453+394807724
2098+395192766+395801970+396385470+396798900+397144116+397523789+397853045
2088+398015266+398086486+398276220+398705639+399315456+399922443+400367355
2078+400681964+401032928+401459838+401851444+402192225+402576479+402968610
2068+403211738+403286692+403345220+403476047+403617028+403730670+403947801
2058+404460694+405274396+406119754+406722685+407149945+407698258+408418654
2048+409026428+409368960+409695153+410344066+411405651+412742895+414134874
2038+415363932+416317243+417051323+417718792+418426847+419174055+419916567
2028+420669553+421513190+422496261+423566978+424648316+425788356+427137942
2018+428707372+430286226+431742627+433224528+434886214+436609550+438192752
2008+439672348+441262289+443044066+444868469+446574533+448198377+449858604
1998+451491231+452896631+454079882+455313200+456771263+458317732+459773899
1988+461178658+462648217+464152876+465522564+466643144+467674268+468996399
1978+470828155+473034449+475370315+477663175+479764697+481671115+483635944
1968+485863420+488195873+490283827+491932938+493276397+494795031+497013492
1958+499967023+503106234+505822095+507932135+509629854+511180874+512820299
1948+514803655+517329519+520386977+523700605+526750185+529055300+530746775
1938+532555481+534979928+537790845+540530105+543109186+545671112+548235430
1928+550710876+553089924+555489628+557972252+560431827+562834449+565390130
1918+568119704+570530729+572241927+573590638+575219326+577332517+579515908
1908+581278749+582664105+584092000+585732767+587397341+588915625+590291120
1898+591559712+592714632+593733357+594626390+595501567+596411230+597115841
1888+597356138+597376153+597731522+598636518+599819447+600952952+601987199
1878+602962568+603690287+603939220+603911969+604149291+604938980+606033681
1868+606846420+606931498+606426279+605912132+605740282+605644817+605199293
1858+604392914+603485818+602649388+601981189+601577153+601456538+601546460
1848+601701095+601710723+601316608+600208369+598312834+596168774+594588110
1838+593839209+593331481+592420767+591246473+590236560+589322520+588212940
1828+587092389+586393146+586077282+585638585+584695486+583291807+581679458
1818+580141217+578933254+578139421+577582384+576919612+575899720+574677461
1808+573779351+573594839+574074675+575006863+576258007+577551983+578373183
1798+578395240+577764445+576934200+576442402+576585484+577108209+577642546
1788+578267622+579168883+580260257+581408117+582654010+583977628+585192477
1778+586241604+587354102+588886040+591030334+593374078+595068180+596065372
1768+597129962+598521212+599823532+600884796+601990700+603123738+603923407
1758+604475483+605305962+606685424+608510644+610747603+613369982+615810942
1748+617168814+617231718+616832818+617240938+619123169+621756518+623530329
1738+623951112+624323170+625935753+628445335+630387845+631562139+632768818
1728+634136027+635220340+635929386+636755838+638144287+639967815+641845669
1718+643785670+646107065+648502509+650114975+650683507+650808557+651322822
1708+652549633+654141733+655707108+657476543+659826180+662073992+662645792
1698+661714247+661294689+662222909+663554114+664380332+664772522+665187119
1688+666201584+668553148+672587492+676855189+678886979+678698674+678009118
1678+678114445+679454636+681381332+682733893+683414930+684346942+685939626
1668+687487087+688458896+689385190+690834617+692545232+693914541+694867094
1658+695559626+696114971+697128269+699498680+702460556+703925506+704165570
1648+704365545+704805934+705381352+706380470+707926647+709338204+709769898
1638+709331960+709038095+709494181+710189747+710708446+711187407+711516284
1628+711419943+711304463+712307958+715088415+718574242+720706806+720867277
1618+720221485+720188691+721044261+722109668+723067473+723875894+724267909
1608+724126986+723919483+724203954+724943752+725771371+726726725+728241624
1598+730441470+732854829+734884868+736393757+737781447+739541721+741772493
1588+744168113+746421819+748454133+750308647+752073355+753854169+755678922
1578+757434819+758957538+760343244+761955768+763849728+765438852+765974298
1568+765725307+765743221+766156593+766151808+765137460+763111039+760653448
1558+759317225+759669268+760143619+759695760+758660522+757871590+757707210
1548+758207003+759581972+761990663+765051564+767980821+770167946+771226526
1538+771350001+771590881+772832106+775309420+778738644+782543836+786054405
1528+788664122+790503346+792910345+797188663+802875094+807754330+810750751
1518+813622413+817844012+822561085+826294211+829003245+831607009+834825638
1508+839205840+845155501+851959390+858292255+863782621+868175018+871165020
1498+873398536+875861728+878342135+880729235+884419589+890154861+895566917
1488+897553775+897121439+897311085+899030162+901565945+904495202+908049769
1478+912564474+917909074+923036485+926429239+927860227+929224226+932017345
1468+935723279+939381014+942920292+946520316+949219429+949846956+948602347
1458+946689831+945479125+945218929+945017262+944586267+944205865+943473536
1448+941279992+937755302+934642467+932761870+931234133+929404536+928144755
1438+928883095+931616986+934345392+935695328+936320113+937175625+938246692
1428+938674944+937385987+933934355+929853970+927608434+927907026+929675935
1418+931651122+933320074+935055314+937632178+940897314+942738406+941385903
1408+938313564+936496397+936889170+937891615+937660887+936117570+934608447
1398+934185155+935006297+937368072+941335252+945296655+947124035+946348583
1388+944149029+942313539+942417523+945329100+950522741+956016607+959931095
1378+962196354+963987029+965260990+965093692+964326468+965446143+969912474
1368+976526308+982998169+988080706+991172126+991109688+987973687+984997106
1358+985659178+990388213+996740743+1001615077+1003533370+1003661513+1004518950
1348+1007170623+1010502340+1013731705+1017414123+1020847141+1021355978
1340+1017925645+1013593059+1012067714+1014262717+1019188518+1025681445
1331+1032414902+1037938704+1042058768+1045984518+1049499579+1049772671
1322+1045528548+1040457798+1039160263+1041053932+1041690795+1040412283
1314+1041863403+1048525670+1056371567+1059873907+1059082292+1058430140
1305+1060752819+1065394675+1070114607+1072993739+1073741823+1073637605
1297+1073144289+1070969944+1066803897+1062586267+1059372773+1055897858
1288+1051741498+1048458097+1046315729+1043666857+1040018168+1036433199
1280+1033835445+1032908101+1033535161+1033774408+1031945978+1028959244
1271+1026548919+1024334427+1021252227+1018324078+1016948817+1015891229
1263+1012398108+1006230908+1000239816+996778789+996035957+997372238+999551135
1253+1000272260+998180776+994835521+992148370+989835261+986851794+982558772
1243+976745131+970045402+963160110+955495224+946269923+936434368+927923423
1233+921630180+916562172+910919973+904236174+898060512+894122508+892229832
1223+890444000+887154005+882729164+878936809+876998968+876624459+876460487
1213+875263086+872976703+870926824+870595321+872127960+874817620+878742669
1203+884110318+889230610+891654122+891345902+890529370+890762490+892156366
1193+894789248+898694283+902767023+905757492+908053212+910886770+914743546
1183+919407926+923881551+926215550+926010090+926396153+930454946+937182744
1173+943752871+950072956+957670679+965730731+971784668+975295704+977878053
1163+981064821+985397407+990355419+994719165+997119220+996767235+995377503
1153+995918084+998735128+1001097020+1001065859+1000978680+1004415782+1011009426
1143+1016471491+1017229962+1013793676+1009913092+1010028514+1015701933
1134+1022586291+1023741678+1018705706+1014970421+1019552757+1031842227
1125+1043658921+1047949026+1045472880+1040362917+1035943852+1035526979
1117+1040575905+1048310931+1054188001+1057074836+1058554082+1057747178
1108+1052923494+1045316844+1039035738+1037553225+1039626970+1041536510
1100+1041205299+1039190840+1037549840+1037690587+1038465631+1037895990
1091+1036804907+1037360660+1040066484+1045169561+1053024211+1061143550
1083+1064172298+1059771440+1052837832+1049944462+1051441214+1051822842
1074+1047051909+1040318568+1039604679+1048964133+1062633649+1068611436
1065+1062057589+1050124189+1040307014+1033973508+1030068532+1028240803
1057+1028241153+1028912795+1029050274+1028101573+1024901967+1018477780
1048+1010771813+1006475406+1009405889+1018652722+1027919278+1030274751
1040+1025896183+1020303175+1016666856+1015244679+1015187610+1015456967
1031+1014847763+1012570483+1010369878+1010409208+1010814294+1008195650
1023+1003572817+1001346887+1003699909+1008562573+1012029201+1011030667
1014+1005385841+998780410+996007130+999018256+1005576188+1010723964+1010861560
1004+1006620822+1000301203+991889283+980951033+970321061+964346775+963258377
994+961602380+954496339+943819277+934738983+929133253+925993693+924625726
984+924515555+923822265+920740590+916298184+913375929+912942601+913109082
974+911796025+909378873+907590998+906508260+904533657+900957266+896569245
964+891685166+886041624+880691656+878014833+879351115+883332416+886578062
954+886662616+884475316+882909824+883467036+885467257+887966394+890897110
944+894672076+899600853+905372538+910520839+913485108+915016813+917767510
934+922671721+928076949+933037062+938496034+944344569+948461366+949975682
924+951054044+953884451+957443861+959458553+960217082+962056249+964913265
914+965443809+962641470+959498525+958312385+958711519+960423068+964077068
904+968003692+968236987+964479061+961647253+962693054+965038432+965392109
894+964748885+966024946+968279468+967574974+963056242+958703175+958925616
884+964107995+970438817+974407573+976911145+980214619+983272428+983259590
874+980159651+977005444+976052599+977220824+980321522+985822916+991921261
864+993898257+989819856+984003823+981540047+983729681+989051465+994803310
854+997301748+994526250+990507136+992016492+1000288365+1009828364+1014644812
844+1013012915+1006774640+999623376+995310980+995620367+999804853+1005089642
834+1008696201+1010072279+1010140085+1010420996+1011341454+1011623182
825+1010871363+1010329848+1012163413+1017025726+1021724068+1021603628
817+1016253601+1011827534+1015003448+1024435144+1030254795+1025736763
808+1017178144+1013840592+1017926812+1027190801+1039736206+1053169160
800+1063051573+1066288641+1063365511+1055985971+1046332418+1037341754
791+1031806748+1030018349+1028501290+1024690496+1020849708+1019312810
783+1017688849+1013162065+1006832993+1001118377+997409817+995868951+995408546
773+994413279+993022613+993716779+996680523+997778491+993786919+986878170
763+981853052+981861455+987023118+994273699+999277927+1000757756+1000879364
753+1001758858+1003485987+1004374235+1003110311+1000418726+999281778+1004234072
743+1017887949+1033971407+1036857425+1022437607+1005527989+998905052+1002498423
733+1007820791+1011322781+1017822827+1030257479+1042240713+1042940481
724+1031854131+1018860575+1010202522+1004594926+1000441250+1000978447
716+1008627811+1017790616+1018714226+1008974661+996030355+989366454+991729279
706+998010619+1002197322+1004246559+1008411555+1014144377+1015251798+1011417780
696+1004889608+994452376+983261457+978439466+983489617+994101558+1000648636
686+997764719+991791017+991378812+997708584+1005654031+1008230778+1002673832
676+994008660+988939194+987479438+980866538+962619471+943418334+943068333
666+959342372+971047963+969087539+964156544+969797519+985470698+995058662
656+987116133+972125741+965078929+967830209+973432029+976217913+975954158
646+975012225+971909427+963259077+951592057+942409354+939519485+943449319
636+949984727+952996670+949665770+942429778+939495035+943701462+946722450
626+940180624+928377700+920755412+923081183+932353166+935742477+924959388
616+908678521+899287031+896602623+893158402+886350720+880011903+876173216
606+873022977+867475250+863806195+870390736+883671738
##END=
