##TITLE=<SNM>
##JCAMP-DX=4.24
##DATA TYPE=INFRARED SPECTRUM
##DATE=29/4/2025
##SAMPLING PROCEDURE=Instrument type and / or accessory
##ORIGIN=Admin
##XUNITS=1/CM
##YUNITS=ABSORBANCE
##RESOLUTION=4
##FIRSTX=4497.3318
##LASTX=599.83466
##DELTAX=-1.4281778
##MAXY=2.2183323
##MINY=0.52381402
##XFACTOR=1
##YFACTOR=2.0659829e-09
##NPOINTS=2730
##FIRSTY=0.53818971
##XYDATA=(X++(Y..Y))
4497+260500558+259614357+259517708+260558461+261684467+261637499+260355325
4487+258888854+258344675+259239214+261410243+263959849+265442274+264955364
4477+263205177+261723069+261093782+260799103+260610536+260943846+261787435
4467+262446092+262519920+262373821+262481635+262790393+262923135+262680502
4457+262050407+261094647+260230517+260090390+260724813+261457875+261684294
4447+261264808+260349439+259454468+259241897+259742136+260476208+261332318
4437+262269815+262515794+261432170+259697793+258659348+258941361+260052048
4427+261059825+261542523+261732417+261668946+260870796+259282172+257839676
4417+257615335+258837096+260938595+263072292+264341714+264095129+262520987
4407+260587081+258984724+257602842+256367666+255913415+256704322+258013270
4397+258667311+258541493+258442507+258720597+258813958+258138885+256917903
4387+256092432+256529661+258095061+259624109+260137532+259643438+258562583
4377+257273168+256301050+255983118+255985916+255898499+255943794+256482260
4367+257324262+257959319+258082655+257749086+257221323+256833198+256976354
4357+257809845+258807322+259137574+258696738+258055968+257433778+256710496
4347+256208786+256322688+256646391+256466537+255828335+255464818+255991686
4337+257337764+258563304+258556986+257394196+256328083+256175868+256664509
4327+257263618+257550017+257009878+255561150+254079215+253662672+254477727
4317+255699402+256316600+255863561+254706021+253691407+253542279+254490219
4307+256050541+257179923+257278996+256896034+256817647+256946724+256745405
4297+256267324+256061793+256360597+256886888+257352882+257706791+257836099
4287+257472755+256649968+255905510+255757824+256176243+256688022+256878291
4277+256703601+256364492+256014767+255776029+255936380+256702793+257695943
4267+258090185+257460321+256297126+255484639+255475608+256213027+257469236
4257+258793503+259499734+259268988+258532867+257953491+257817952+258022588
4247+258305064+258417119+258245920+257851678+257428701+257183818+257223083
4237+257628491+258406127+259142046+259158260+258417234+257742075+257782841
4227+258388297+259178916+260015668+260724986+261086598+261246747+261544196
4217+261811207+261486784+260528110+259558993+259005092+258715375+258445248
4207+258112631+257706387+257442232+257731977+258624323+259621224+260245693
4197+260450127+260384435+260120741+259765649+259622233+259911373+260404572
4187+260718697+260820770+260794689+260361643+259240108+257858285+257216534
4177+257969330+259754859+261548350+262728711+263550027+264416235+265096818
4167+264974838+263820443+262097318+260620143+259984999+260252848+260986054
4157+261529280+261508652+261186104+261150589+261621833+262276710+262735116
4147+262943705+263070820+263140263+262814109+261795744+260457888+259545866
4137+259296453+259345586+259387332+259542981+260028593+260638810+260831098
4127+260446261+259982605+259899256+260074205+260206571+260253453+260216525
4117+260014716+259848652+260225411+261339444+262726461+263744076+264134279
4107+263956704+263352574+262602144+262031971+261705903+261459837+261129182
4097+260537025+259620502+258747630+258451191+258771951+259241436+259416616
4087+259182580+258800052+258749736+259233646+259949398+260553989+261022954
4077+261368352+261373834+260802248+259753734+258728329+258259220+258411176
4067+258789435+259091903+259334276+259550194+259698601+259810021+259945849
4057+260133147+260392455+260695905+260948952+261050275+260855390+260244279
4047+259433436+258942573+259033625+259454179+259851306+260137676+260393840
4037+260703262+261089916+261481562+261800792+262125707+262620349+263231345
4027+263657841+263762857+263775465+263899955+264041813+264167659+264460347
4017+264812669+264719223+264001191+263182731+262876253+263075465+263225690
4007+262944801+262502292+262427829+262811195+263296777+263671488+264023031
3997+264281185+264060046+263168104+262004679+261243083+261277473+262065986
3987+263275630+264430429+265115628+265236628+265030318+264778655+264676437
3977+264921003+265588979+266393215+266846226+266729179+266243395+265781931
3967+265651152+265883052+266297259+266801306+267398771+267746419+267231524
3957+265832823+264338396+263426634+263130483+263360393+264194692+265363281
3947+266192243+266461793+266635704+266984304+267169784+266954300+266672748
3937+266746374+267224110+267868082+268398037+268649267+268582016+268141556
3927+267375863+266769166+266927296+267775529+268696697+269466659+270345272
3917+271286347+271697495+271229338+270295419+269546719+269114972+268586488
3907+267776828+267173794+267387721+268495494+270240026+272337342+274114908
3897+274591201+273599090+272232932+271721701+272024689+271967738+271326016
3887+271374197+272849150+274648238+275431529+275475238+275415171+275030536
3878+274259103+273837510+274208239+274969835+275817780+276904347+277811898
3868+277817927+277208288+276732427+276336512+275505906+274403874+273636884
3858+273564123+274542155+277244726+281280276+283798290+283341529+281349344
3848+279325741+277970489+277417944+277548233+278357316+280010854+282229083
3838+283818832+283844768+282988601+282434469+282414389+282426795+282202021
3828+281879241+281547778+281367145+281918507+283544810+285214042+285612439
3818+285159919+284832956+284431934+283419829+282285370+281995653+283107061
3808+285184355+286736974+287019074+287372867+289308188+291995353+293449476
3798+293627887+293571225+293533488+293360789+293398439+294180720+295843808
3788+298230090+301079597+303892434+306301624+308738857+312018091+316191201
3778+320370716+323817745+326757467+330289172+335545647+342356414+349098141
3768+354711468+359673639+364540661+369314150+373898783+377720089+379572840
3758+379364741+379025632+380531340+384160358+388692397+392939075+397078343
3748+401750855+406946513+412054956+415777739+417481072+418785519+422104625
3738+428523371+436637200+443429185+447662303+450816327+454108862+456950896
3728+458486319+458966594+459255214+460072174+461723605+463644818+464655624
3718+464211067+462804287+461427397+461031020+461734597+462344728+461857702
3708+460613553+459181328+457940439+457146877+456606478+456205226+456779177
3698+459178847+462680230+465390418+466338214+466483678+467366100+468999875
3688+470110850+470688437+471973929+474312349+476455826+477034076+476577546
3678+477416432+481078830+485394750+486961101+486383976+485589952+484468072
3668+482129190+479098820+476702411+475672131+475787763+476206702+476207913
3658+475652743+474805317+473966460+473216520+472542342+471974189+471441810
3648+470825852+470297657+470262431+470791607+471479027+471866490+471713957
3638+470931387+469658474+468425317+468119848+469736573+473582460+477656353
3628+478105093+474248733+469468926+466872006+467431417+470312688+473795636
3618+476826295+479848933+483211286+485770326+486156807+485025290+484602053
3608+485868994+487449713+487743642+486998261+486481721+486436830+486276363
3598+486639360+489157663+493848697+498600778+501943340+504389516+506401781
3588+507190208+506474311+505616066+505825694+506839674+507525104+507318073
3578+506892009+507152760+508088093+509254519+510822313+513091520+515407869
3568+516503727+515989034+514734672+513817514+513982250+515428757+517521053
3558+519069633+519071941+517240165+514393485+512488025+513345578+517051655
3548+522014115+526131197+527737420+526172164+522291541+518125760+515307008
3538+513997657+513495600+513207614+512635163+511325639+509693912+509060297
3528+510069949+511666074+512351735+511905187+511012264+509995688+508989325
3518+508819049+510462316+513462999+515877498+516198431+514589669+512181921
3508+510131170+509268771+509590050+509910637+509030350+507613098+507567745
3498+509265424+510800098+510585277+509549025+509685776+511561982+514224479
3488+516383131+516885707+515234189+512535513+510780364+510454065+509986341
3478+508280814+506523703+506410782+507547319+507904315+506637201+504979394
3468+504062352+503480148+502465534+501264314+500572306+500517894+500835365
3458+501199112+501058553+499931133+498210258+497071009+497204818+497930754
3448+497810448+496341496+494618197+493926709+494311747+494857080+494973866
3438+494694651+493918977+492542115+490997517+489676626+488276280+486410922
3428+484342053+482785135+482564862+484193646+487219255+490317395+492089220
3418+491495881+488311824+484062837+481526503+482224137+485032676+487706944
3408+489072381+489306243+488935514+488344194+487836483+487496970+487165536
3398+486943041+487204888+487745373+487731871+487034728+486577678+486816156
3388+486844487+485731666+484062087+483399045+484557162+486685117+488067980
3378+487818711+486498858+485312987+485211318+486285076+487554210+487949692
3368+487699386+487872373+488806264+489937030+490681373+490713744+490030275
3358+489335094+489690532+491420004+493623374+494799494+494276665+493143764
3348+493089640+494444633+496141735+497165408+497148386+496148601+494783280
3338+494151512+494963942+496872576+498600259+498829159+497501170+495904872
3328+495073978+494831576+494603253+494158551+493431634+492576678+492220086
3318+492903151+494150935+494550687+493143014+490687432+489043877+489208382
3308+490465745+491547523+491958008+491808620+491188334+490451781+490455762
3298+491730724+493722101+495300281+495613020+494356697+492084142+490315780
3288+490443241+492336354+494492582+495582035+495531085+495159375+495137506
3278+495538009+496361402+497984359+500571787+503544889+505921305+506643894
3268+504987876+501437937+497701508+495251870+494137952+493651359+493665900
3258+494486581+495753522+496401158+495835227+494465867+492945618+491646076
3248+490928045+491158099+492234627+493399033+493721812+492975854+492086162
3238+492302887+493625336+494437420+493345025+491022733+489246580+488619832
3228+488471367+488538070+489259217+490490325+491234322+490766252+489336190
3218+487679479+486286230+485293311+484664428+484159717+483449707+482576229
3208+481848359+481138868+480062456+478867843+478315039+478635568+479125391
3198+478818739+477524535+476091011+475419862+475533706+475999670+476579508
3188+476971009+476720962+475798034+474633628+473609031+472944373+472658926
3178+472392319+471799037+470996416+470159117+469116229+467908576+467035040
3168+466671870+466445855+466194798+466063529+465794411+464763208+462822983
3158+460636143+459184502+459107875+460184344+461306427+461363868+460239276
3148+458752725+457695643+457180459+456788814+455947389+454367276+452511957
3138+451375334+451381768+451884199+452057764+451660377+450696309+449259987
3128+447880413+447096314+446728153+446336911+446106742+446530758+447517301
3118+448401569+448694430+448391760+447592976+446361204+445121065+444485979
3108+444262993+443458699+441818952+440310647+439604243+439392971+439446921
3098+439828786+439929359+438978129+437636148+437414403+438536861+439804206
3088+440421001+440684463+440871328+440577341+439457365+437923643+436723088
3078+436148761+435951798+435822779+435612920+435175085+434423299+433577719
3068+433007691+432841426+432932564+433048168+432883461+432187096+431170376
3058+430504823+430595270+431072313+431174472+430526259+429439115+428503435
3048+428068139+428128754+428430415+428527035+428041077+427095473+426259530
3038+425911016+425874924+425785949+425586880+425491616+425518332+425276593
3028+424407356+423150773+422155719+421762227+421742464+421670713+421336422
3018+420852686+420516376+420502701+420740862+421165281+421703920+421872811
3008+421071142+419547114+418285568+417716781+417342590+416743509+416081534
2998+415450516+414602340+413546498+412759918+412582084+412832016+413114549
2988+413123781+412603549+411478812+410194359+409477308+409558003+409947139
2978+410084121+409868954+409492974+409136526+408924331+408884402+408943343
2968+409027846+408990196+408601638+407966032+407568732+407530794+407342256
2958+406675463+405875900+405389913+405303275+405484485+405656809+405487745
2948+404981765+404508906+404265003+404060367+403733491+403394930+403131813
2938+402798850+402298322+401845139+401676133+401562115+400939204+399608244
2928+398014831+396762488+396139029+396120536+396461347+396749303+396697950
2918+396369256+395952106+395538794+395175537+394839891+394434339+394047973
2908+393977434+394277046+394605769+394646852+394346374+393762382+393072336
2898+392658475+392841993+393472146+393920396+393627160+392681729+391728855
2888+391282076+391305906+391393237+391111569+390302428+389283832+388633715
2878+388594767+388835986+388907420+388708813+388379109+387991618+387603204
2868+387415935+387592616+387935071+387971683+387463366+386712762+386246365
2858+386224236+386334590+386291747+386189097+386247721+386394599+386207965
2848+385317581+383946403+382853632+382475864+382415134+382093393+381564909
2838+381247640+381170609+380997074+380648069+380421968+380460685+380522714
2828+380395137+380131587+379758954+379189792+378580238+378326354+378521095
2818+378747138+378563332+377980523+377317827+376760839+376266313+375808744
2808+375446641+375195642+375051707+374998247+374877219+374540101+374138530
2798+373903024+373796623+373735402+373814712+373977487+373897542+373489308
2788+373049020+372728260+372368783+371893009+371394213+370876577+370302279
2778+369792433+369452084+369141191+368654050+367953964+367162450+366570524
2768+366523671+366908624+366998464+366295204+365237170+364597554+364540949
2758+364680182+364752164+364810413+364865633+364714197+364206601+363489954
2748+362851147+362409878+362108621+361921699+361896887+362018521+362146906
2738+362065288+361575637+360714276+359904299+359649145+359968751+360365387
2728+360417607+360109916+359537349+358766579+358077975+357811858+357879599
2718+357886206+357718210+357543779+357359050+357028394+356619207+356273030
2708+355927459+355485758+355071147+354905228+355063127+355393811+355581195
2698+355371279+354871704+354504927+354516583+354632187+354368436+353616591
2688+352720149+352015273+351536095+351195544+351007179+351021402+351157519
2678+351181840+350905510+350431698+350078712+349987169+349989506+349910658
2668+349749326+349551844+349364201+349278601+349308779+349298739+349125895
2658+348894428+348775160+348714199+348471537+347996341+347576479+347477407
2648+347572296+347509690+347171332+346785947+346629577+346697953+346681306
2638+346312712+345709304+345231828+345051541+345043117+345060715+345101510
2628+345196919+345306031+345334651+345209238+344939024+344591202+344240553
2618+344029858+344151953+344531251+344670945+344170591+343278418+342580005
2608+342323120+342365011+342557127+342859336+343203407+343466206+343533399
2598+343363469+343068559+342831351+342649217+342344239+341926570+341706614
2588+341903749+342334372+342619617+342576428+342314811+342032047+341806033
2578+341619456+341529414+341671272+342027287+342299694+342176415+341708489
2568+341242294+340964521+340747825+340516877+340470052+340758875+341189901
2558+341422234+341302389+340933132+340567625+340439557+340550141+340653830
2548+340570943+340434595+340485949+340716263+340889914+340864756+340709310
2538+340518521+340304018+340113316+340107200+340400725+340882240+341318084
2528+341632670+341950227+342332670+342644140+342728470+342576831+342264005
2518+341844115+341380805+341014548+340907368+341078077+341349243+341528145
2508+341583653+341595597+341603214+341571161+341485561+341434986+341519663
2498+341685062+341791319+341852799+342017334+342285701+342439128+342301482
2488+341980751+341797695+341973567+342411403+342806510+342948166+342896351
2478+342889484+343054278+343229286+343192213+342995741+342877252+342911266
2468+342960630+342920874+342878060+343030650+343440933+343872132+344015058
2458+343885346+343792245+343912235+344090704+344061680+343742825+343329166
2448+343126607+343238143+343437961+343457839+343344659+343366066+343591446
2438+343770002+343661553+343337158+343076493+343052317+343226862+343535130
2428+343978764+344447729+344693016+344683784+344767162+345241868+345953610
2418+346485642+346617085+346476958+346333369+346349640+346558489+346943240
2408+347404213+347746697+347885843+347975684+348190360+348533479+348953918
2398+349430903+349836310+349967984+349865622+349833194+350020607+350227263
2388+350174380+349708531+348725883+347140519+344919290+342038914+338499736
2378+334374259+329725952+324606171+319245373+314047061+309282198+304958806
2368+301032513+297636405+295091531+293621050+293049838+293043462+293720036
2358+295730194+299636552+305549145+313329202+322278397+330427510+335211818
2348+335209019+331251134+326246005+323130208+322467195+322988783+323715556
2338+324535228+325663946+327181915+328878584+330431059+331719839+332954439
2328+334460176+336282373+338108148+339768264+341661982+344329673+347659482
2318+350879919+353367756+355191281+356811785+358520340+360302551+362043563
2308+363638650+364968600+365943488+366608607+367125406+367603719+367999721
2298+368233179+368345090+368466955+368694210+369058563+369555138+370142851
2288+370794267+371537081+372318410+372858607+372848451+372341000+371781300
2278+371595157+371862861+372367427+372794184+372893256+372624860+372191554
2268+371849820+371706924+371755248+372025952+372527893+373009610+373051068
2258+372571804+371987927+371685372+371664802+371817738+372115677+372418954
2248+372522296+372455392+372438630+372590816+372837517+372988953+372928944
2238+372860655+373178761+373957724+374797216+375263181+375289435+375106926
2228+374899434+374593676+374053998+373417585+372968412+372714066+372434533
2218+372116572+371967530+371996727+371901318+371456040+370854305+370533170
2208+370684433+371065750+371333742+371410629+371434257+371518847+371699855
2198+371983744+372317342+372580257+372714989+372818418+373023055+373334842
2188+373673287+374028927+374455742+374923033+375321805+375649258+376077746
2178+376746039+377505615+378006835+378095694+377979340+377939065+378083404
2168+378429668+378991387+379697185+380365450+380812546+380964963+380924717
2158+380892837+380963924+381100387+381311717+381622437+381855059+381743465
2148+381332547+381042542+381259613+381973634+382848180+383558306+383992333
2138+384206144+384339952+384538127+384800868+384979078+385028181+385138159
2128+385495473+386050124+386593869+386963069+387157233+387342309+387698555
2118+388209036+388685357+389056288+389486103+390107543+390790809+391310349
2108+391638870+391990096+392628529+393625544+394745925+395654110+396249238
2098+396674638+397083075+397579275+398235941+398951289+399443940+399573652
2088+399545783+399683226+400090999+400599605+400972728+401153736+401316569
2078+401664044+402186007+402646923+402854474+402911482+403111358+403608857
2068+404293421+404962666+405507681+405908905+406130592+406126611+406003362
2058+406063313+406519353+407225642+407884732+408459405+409153692+410020938
2048+410856564+411516433+412119726+412857866+413758867+414704961+415575756
2038+416325812+416983055+417606947+418257093+419034268+420104246+421528076
2028+423042670+424212616+424952660+425710562+426909387+428399862+429717234
2018+430721173+431685097+432840387+434155393+435555479+437082219+438743286
2008+440374407+441822154+443207555+444838416+446847306+449008381+450964215
1998+452624532+454243478+456044326+457902587+459500501+460693787+461631399
1988+462580263+463695970+464942514+466245633+467662366+469263626+470954439
1978+472591041+474182118+475877056+477815925+479976193+482175668+484305297
1968+486433714+488569113+490568279+492399363+494209501+496110692+498146845
1958+500349811+502609729+504698678+506559247+508383118+510454296+513034108
1948+516143384+519360330+522183121+524632355+527087591+529547731+531589596
1938+533134483+534760036+537053651+539933912+542915784+545798411+548602853
1928+551081630+552993495+554750145+557073649+560033941+563041779+565727934
1918+568174514+570365248+572030441+573130915+574095849+575437974+577241650
1908+579201810+581107271+582927910+584517688+585745797+586803860+587895621
1898+588894021+589727801+590686676+591985410+593466479+594912236+596160712
1888+597001070+597408958+597674787+598127567+598961058+600163489+601358188
1878+602026943+602090241+601906521+601798908+602055216+603071677+604825961
1868+606394678+606862864+606456764+605883505+605297666+604496719+603633627
1858+603145304+603084833+603031517+602656114+602025442+601383634+600923642
1848+600761502+600898600+601044410+600583264+599113561+596948158+594749461
1838+593009545+591843062+591075523+590554541+590271517+590154096+589954681
1828+589483091+588696626+587488540+585851620+584230337+583096801+582238326
1818+581014776+579344678+577912424+577206914+576885750+576299854+575298280
1808+574284415+573730486+573875835+574644124+575656834+576416583+576577569
1798+576129809+575470517+575325053+576313644+578192735+579731679+580160859
1788+580072115+580383585+581367098+582714763+584130861+585488854+586541263
1778+587082844+587479308+588574242+590830294+593453901+594976226+595266462
1768+595469454+596298733+597724929+599693918+602139806+604411321+605737290
1758+606248060+606764772+607992419+610118701+612790950+615150863+616335695
1748+616469792+616471120+616909012+617712095+618682280+619768905+620860723
1738+621971237+623682476+626544734+629658165+631120827+630963477+630615771
1728+630807857+631588783+632898249+634634645+636581708+638657963+641129355
1718+644220052+647216118+648781374+648863136+648662683+648989328+649628424
1708+650118479+650626883+651661923+653340215+655536257+657963969+659729735
1698+660462365+661275891+662854014+664449908+665544092+666570478+667727094
1688+668720821+669783500+671784283+674675045+676836409+677496394+677358142
1678+677332003+678141664+680026121+682434157+684662339+686464341+687665272
1668+688218163+688789749+690230255+692528774+694467124+694861972+694261824
1658+694214163+695718371+698935144+702706597+704008735+702472388+701313406
1648+702167612+704174914+705121326+704427760+703510776+703412857+704348594
1638+706365994+709271355+711725495+712188834+711348822+710866673+711203993
1628+711470571+710937414+710481057+711469071+713642380+715570170+716963534
1618+718591106+720375221+721208828+721093483+721138259+721825998+722743847
1608+723366441+723734170+724306217+725383553+726890011+728586016+730324548
1598+732160536+734272277+736663176+738870124+740071978+739808688+738767647
1588+738624260+740633928+744456389+748721705+752429571+755296042+757332829
1578+758921454+760759173+762845122+764380257+765300069+766068761+766429047
1568+765639466+763837233+761981453+760919178+760946759+761832181+763005992
1558+763939421+764724905+765480154+765697340+764890218+763379375+762070832
1548+761632362+762116877+763261608+764995292+767741167+771773660+775288112
1538+775915611+774760494+774154057+775207562+777658123+780697582+784041874
1528+787362624+789453190+789752831+790358691+794475312+802353461+809945759
1518+814189206+816200086+818355622+821793910+826144508+830256627+833437857
1508+836611585+841476241+847320141+851973439+855591407+859367996+863729326
1498+868264625+872304099+875378812+877727416+880214964+883419390+886790744
1488+889468878+891792382+894280161+896655365+898752970+901510212+906265756
1478+912734442+918485501+921405345+922064521+922425730+923306824+924791356
1468+927609876+932595936+939192314+944629595+946304078+944593359+941446635
1458+938317567+935858985+933797040+931537872+929607081+929408474+931269332
1448+933451526+934393841+934815462+935459521+934992316+932234843+929107621
1438+929187653+932982417+935965501+935284225+933755610+933845162+934262283
1428+933320429+932530676+934231009+937780717+940091123+939307774+936347366
1418+933227588+931139793+930335960+930650604+931553221+932539966+933520421
1408+934069273+933467971+932217475+931505387+931426798+931768042+933278308
1398+936303052+939535520+941617199+942507006+943072534+944085994+945299793
1388+945426850+943791084+941913090+942289877+946041943+952190158+958607894
1378+963382422+966183171+968208303+970574044+973055187+974512022+974882809
1368+975779482+978712309+983418057+988102916+990908455+991213347+989899610
1358+988496091+988418195+990411649+993664947+996468293+998355808+1000672272
1348+1004836554+1010244638+1013806406+1012835759+1009235909+1008531726
1340+1013822562+1022346731+1028581209+1029683645+1027106256+1024119537
1331+1023019756+1024318144+1027524242+1031706873+1035398006+1037650653
1322+1039471004+1042365517+1046136624+1049720895+1052688689+1054758770
1314+1055337395+1054959915+1055648865+1058590693+1062856413+1066418527
1305+1067191028+1065014085+1062427695+1061712202+1061838452+1059991674
1297+1056416635+1054500846+1055988955+1058617120+1057611738+1050279672
1288+1039805555+1031782345+1028155145+1027240007+1027074059+1026586139
1280+1025690504+1024803178+1024087686+1023793872+1024828913+1027429613
1271+1029913295+1030842742+1030602591+1029238770+1025190929+1018857782
1263+1014176038+1013666885+1015040861+1014774282+1012419389+1008760684
1254+1003371410+996325425+989802903+985908893+984050113+981717839+977252358
1244+971171249+965172191+960340078+956122654+950804237+943130696+933729068
1234+924630485+917292591+911512162+905926705+899618658+893270970+888353460
1224+885733373+885083487+885062253+884095992+881724019+879164806+877408965
1214+875604077+872399825+868192672+864898521+863768967+864308933+865398328
1204+866894515+869264526+871910867+873578772+874598002+876868825+881344231
1194+887069786+892713117+897722776+902218377+906966708+912857634+919244789
1184+923639182+924548261+923405493+922232835+921534249+921620628+923605946
1174+927819562+933141210+938864803+945691121+953925054+961760793+967221731
1164+971384051+977346526+986390004+995501916+999611843+997700324+994529770
1154+995019536+999457320+1004833438+1009161244+1012967895+1016961958+1019750648
1144+1018788310+1014114529+1010000217+1010955399+1016236079+1020396206
1135+1020307116+1018170448+1016490425+1016606981+1020090968+1026038903
1127+1030370402+1031192064+1031193218+1032261610+1032602046+1029907409
1118+1025404538+1023687356+1027612063+1034526259+1038646572+1037717932
1110+1034651355+1032535459+1032665055+1037458855+1049380344+1064766086
1101+1073741823+1070654819+1060654312+1051820288+1048205090+1049660655
1093+1053418952+1056029923+1053885177+1045365277+1034096502+1025606607
1084+1022064458+1023340804+1028890256+1035533257+1037677888+1034332268
1075+1031865204+1034746792+1040318517+1045773454+1051498894+1056160443
1067+1056857124+1053206036+1046229754+1036830722+1028127448+1023743557
1058+1023564338+1023815106+1021199751+1016841709+1014614450+1014991700
1050+1014456465+1012235553+1012176468+1016341211+1021365468+1022154471
1041+1017752577+1012653886+1011263292+1012748054+1012477898+1008241605
1033+1002775012+1000719241+1005056279+1014135417+1022023952+1023413161
1024+1017677566+1009150973+1003284974+1001789825+1001798827+1000495361
1015+999878537+1003462693+1010085845+1013764399+1010975364+1004880637+999684777
1005+995502839+990598831+985696438+982285501+979034165+973885504+966639470
995+957388557+946736721+938150465+935507932+938081570+940042769+936309399
985+928560501+922290363+919752154+918398950+915053215+909963640+905283800
975+902514556+902311679+904252164+906692282+907464494+904775743+898572481
965+891573811+887131641+885897532+885587620+883794735+880418072+877291081
955+876163315+877111689+878967757+881228886+884325930+887884813+890592086
945+892366507+894949493+899638565+905941938+912734154+919152063+924103329
935+926545870+927055601+927722797+929788320+932527041+934918228+937386331
925+941009781+946064850+952354779+959792784+967323342+972151474+972140742
915+968567203+964607933+961956976+959982332+957565526+955353327+955435955
905+958403806+962009368+963164485+960722117+956214803+952165462+950466225
895+951265384+952890821+953675728+953867584+955231462+958384995+961128851
885+960753910+958043232+956530312+958153903+962472073+967899141+972234217
875+974632963+977447964+982575045+986901697+986110847+981499844+978316249
865+979311938+982409097+984627123+985974326+987164929+987415697+986591381
855+985638045+985902431+988520210+993211532+999176662+1006216646+1013303599
845+1017426220+1017443415+1016042781+1014437308+1010953091+1005156910+999532100
835+997790800+1001692888+1008377549+1010991981+1006567468+1001958312+1004525199
825+1012863225+1020970447+1025755706+1028873522+1032411748+1036068722
817+1038027325+1035817607+1030680256+1028403375+1032584159+1040598828
808+1047426126+1051113797+1052614716+1052834903+1051782206+1049329682
800+1046517335+1045140936+1045472370+1046479137+1046315497+1040772393
791+1027640221+1012774712+1006623785+1014401418+1030089283+1040821439
783+1039326867+1031369899+1025064564+1021101774+1016563129+1010563378
774+1004700264+1000432582+998417894+999934853+1005384252+1010308109+1007300387
764+996417631+987877421+990385568+1002326445+1014114875+1017759848+1014034786
754+1008297691+1003250584+999426623+997682322+998551299+1002217736+1007192947
744+1009014799+1004852364+998712285+996955289+1001396189+1009409589+1018047083
734+1026957503+1034375082+1035270948+1029693800+1024625805+1024579760
726+1027229852+1028057630+1025995973+1021812997+1015789820+1010623041
717+1009895893+1012951161+1015964538+1017542315+1019871935+1022464787
708+1020871316+1014817096+1010069919+1011101729+1016693418+1020937096
700+1017945299+1009000951+1002861795+1005782158+1013379880+1013457661
691+1003154800+993695413+991989541+996268647+1001912267+1007046271+1014021977
681+1023264062+1028259238+1019972681+1001034404+985313650+980509349+981893827
671+978806477+968227921+962058241+971557615+986073803+994321815+1000100109
661+1003834518+1000629112+992871904+985305341+982256882+987705703+999511790
651+1006535848+999331647+981117979+964406730+958270805+962530755+973544838
641+988680388+1002175730+1004328669+993305239+980796585+973696130+966240641
631+954300745+945046254+947241662+959936633+970941253+967231656+956596553
621+952322120+951160772+942607348+930561052+929387067+941299901+955162625
611+965848505+972897317+974619807+974245790+969535195+953876989+934205967
601+920871092+913600707
##END=
