##TITLE=<SNM>
##JCAMP-DX=4.24
##DATA TYPE=INFRARED SPECTRUM
##DATE=29/4/2025
##SAMPLING PROCEDURE=Instrument type and / or accessory
##ORIGIN=Admin
##XUNITS=1/CM
##YUNITS=ABSORBANCE
##RESOLUTION=4
##FIRSTX=4497.3318
##LASTX=599.83466
##DELTAX=-1.4281778
##MAXY=2.1749775
##MINY=0.56854558
##XFACTOR=1
##YFACTOR=2.0256057e-09
##NPOINTS=2730
##FIRSTY=0.59004927
##XYDATA=(X++(Y..Y))
4497+291295226+289008358+286600991+285768483+286222608+286472196+285574950
4487+283711957+281705338+280679297+281525842+283968578+286700832+288695240
4477+289805615+290299406+290486317+290714159+291254384+291805407+291421639
4467+289666343+287579186+286706100+287340486+288550790+289573005+290179114
4457+290076801+289037577+287499355+286450921+286609819+287566092+287942504
4447+286986202+285637509+285311121+286256771+287720812+289032869+289914489
4437+290248411+290093868+289595722+288753650+287667522+286810884+286619206
4427+287020277+287615645+287949478+287609436+286516363+285024574+283582014
4417+282656579+282784934+283985527+285460132+286464839+287020953+287461454
4407+287867116+288124031+288082423+287640362+286917081+286208160+285747178
4397+285700333+286205158+287269011+288670258+289908575+290385240+289936735
4387+289020452+288132299+287275161+286182324+284833720+283633891+283182856
4377+283818301+285237115+286632300+287286372+287060619+286391481+285842988
4367+285668141+285673026+285440328+284830924+284245708+284228229+284753859
4357+285137804+284995472+284905577+285499797+286295259+286268953+285348903
4347+284428235+283938122+283387923+282523752+281947893+282223670+283144367
4337+284187210+284987763+285275898+285180736+285443212+286413903+287264538
4327+287139862+286438592+285919759+285506624+284796438+283847668+283167790
4317+283400223+284817006+286678763+287688414+287556234+287242793+287494058
4307+287986731+288041433+287587749+287041963+286537020+285895189+285374503
4297+285683089+286946095+288224901+288446300+287559383+286472166+286040787
4287+286363321+286919406+287171348+286977256+286423761+285463045+284116795
4277+282972051+282819214+283566919+284209721+284237881+284289758+285072155
4267+286380800+287521748+288165491+288294228+287725902+286347578+284614882
4257+283335192+283036199+283670320+284592430+284921702+284544849+284398221
4247+285070331+285884125+286106995+285988704+285822478+285263481+284348492
4237+283822568+283943684+284244384+284594019+285346255+286396425+287024367
4227+286808589+286056942+285190593+284295261+283608909+283838635+285222932
4217+286678881+286897013+286001592+285109349+284629594+284134656+283652547
4207+283939564+285368412+287263773+288624118+289176555+289299259+289194239
4197+288794257+288313414+288082540+287906075+287314503+286322066+285380830
4187+284861792+284858408+285064299+284818683+283799822+282654549+282465872
4177+283526812+284976787+285816093+285976051+286145954+286834895+287920670
4167+288915697+289417138+289361641+288870028+287986466+286869117+286020160
4157+285801792+285884566+285699833+285358349+285610438+286797319+288270805
4147+289131004+289250207+289069416+288677408+287876032+286996118+286750856
4137+287277780+287942151+288025367+287430852+286929263+287429439+288564590
4127+288750295+287410548+286035696+286192417+287730169+289493674+290639536
4117+290743144+289685088+287983435+286639980+286392393+287226432+288411842
4107+288942503+288322182+287112850+286418553+286713986+287437943+287829539
4097+287819446+287817769+287975990+288091280+287959424+287510419+286860319
4087+286355641+286218665+286144689+285654223+284817771+284303118+284691977
4077+285913021+287285431+287972577+287605875+286647278+285873267+285570125
4067+285699627+286431206+287692710+288676084+288680086+287951979+287141834
4057+286602698+286487320+286738350+286901280+286608083+286022837+285520925
4047+285365205+285668053+286280105+286827892+287038697+286923584+286722872
4037+286747295+287132094+287782311+288583570+289382651+289759211+289276072
4027+288136389+287285166+287517393+288506857+289162901+289052025+288762948
4017+288733552+288654280+288251502+287760448+287455511+287387626+287586278
4007+288054527+288588072+288846282+288646717+288152397+287726550+287644040
3997+288025190+288813384+289594722+289782751+289235376+288436413+288023160
3987+288289608+289046229+289801878+290172317+290167697+290020804+289897952
3977+289835188+289757475+289543962+289133328+288564679+287959512+287439179
3967+286992970+286508271+285995324+285699068+286012068+287156488+288741644
3957+289804232+289707510+289019069+289064502+290482139+292419519+293379353
3947+293004618+292552847+293231254+294656159+295320647+294351486+292385386
3937+290887741+291034633+292878029+295164692+296178845+295328269+293711068
3927+292682113+292542018+292702917+292659515+292614905+293117495+294249821
3917+295209772+294976162+293561262+291892183+290648393+289993056+290151777
3907+291691295+295019594+299512705+303406035+305270028+305008758+302915010
3897+299502406+296345688+295298814+296735489+298777154+299085681+298158481
3887+298415778+300333150+301844036+302105453+302594359+303186078+302000551
3878+299538335+298310287+299317879+301965064+305796658+309718236+311194194
3868+309718707+307800953+306849506+305647588+302999049+299911805+298109958
3858+298620521+302393412+309943901+317163234+316230561+308508874+301082266
3848+297421752+297691438+300585886+304445494+308270497+312085584+315803095
3838+317953076+316996656+313588260+309574257+306189019+303812696+302566581
3828+302483660+303293011+305126637+308862216+313742804+315903348+313721411
3818+310518053+308346150+305726419+301960002+298897799+298466802+301276269
3808+305778679+308724475+309384697+310509343+313139961+314663648+313732975
3798+312241157+311085261+309333084+306925129+305171099+304986895+306245457
3788+308453936+311030970+313149054+314627219+316627335+320073160+323917202
3778+326496326+328090810+330279221+334123968+339827619+346542686+352299685
3768+355617421+356757192+356808922+357003572+358550681+361733795+365209840
3758+367519719+369627298+374270332+383415600+396335612+408427882+415147040
3748+418191293+421426873+424767060+424944790+422514266+421741020+425072174
3738+432706614+442989328+452357759+457895303+459498262+458864081+457725134
3728+457154896+457641183+458935497+460029717+459642947+456738200+451520484
3718+446121594+443615328+446389690+454700036+464895621+470280387+468152681
3708+462201885+456673640+453820241+454538255+457800552+460435937+460445118
3698+459262474+459219307+460948973+463806374+467387704+471375695+474429984
3688+475186516+474044538+472049512+469868752+468187845+468144824+471291774
3678+478279057+486158789+489157521+487210342+485540851+485230058+482418384
3668+475777529+469189050+465799693+465472157+466519590+468062904+470374195
3658+472888995+473701082+472558457+472119516+474776529+479990744+483737651
3648+482210816+476982359+471962648+469236426+468590975+468458825+467790305
3638+467266471+468035420+470119105+473232362+478174714+485299414+491287964
3628+491482143+487462754+484027788+483111269+484556565+487511277+490105025
3618+490640807+490234586+490858173+492158520+492810149+493241440+494633653
3608+496554850+497798905+498362935+498993761+499928023+501089863+502537603
3598+504236636+505988636+507409892+507768472+506999935+506795662+508748933
3588+511318493+511159595+508399828+506182668+506384410+508394825+510326027
3578+510897060+510173073+508737045+507140412+506360870+507660245+511301897
3568+515543832+517485097+516081437+513232804+510989927+509405124+507505525
3558+505656539+505675548+508390294+512017704+513956615+514053720+514147470
3548+514776059+514784651+513868691+512871223+511705322+509938551+508708208
3538+509271708+510553016+510386114+508505289+506356750+504809435+503782364
3528+503504469+504505880+506164424+506733103+505567850+503927138+502945088
3518+502434731+501908307+501293077+500580153+499938205+499899186+500543136
3508+501101457+500875233+499809438+498243349+496748059+495912313+495958982
3498+496791550+498223281+499796020+500695443+500496467+499913958+500299551
3488+502260001+504855692+506248582+505115696+501656424+497761653+495929321
3478+497096163+499427612+500067677+498516713+497079979+497525365+498783132
3468+498421669+495611348+491756331+488646987+486970199+486395253+486506658
3458+487204221+488232646+488908699+488771605+488127626+487611560+487642810
3448+488355497+489479320+490353995+490528930+490036376+488856851+486756393
3438+483926917+481178861+479377191+478967939+479840732+481394933+482837905
3428+483508661+482944867+481065307+478546300+476515905+475511904+475256136
3418+475436398+475890140+476057484+475196079+473440931+471985747+471827967
3408+472541773+472824347+472393144+472428190+473848858+476122132+478017875
3398+478709789+478081405+476665416+475206584+473981214+473024235+472867955
3388+474148969+476488421+478479563+478996924+478248337+477330494+476951786
3378+477045154+477535296+478587025+479803891+480214643+479560924+478784795
3368+478974030+480476413+482947574+485411379+486337961+484906230+482586257
3358+482065189+484164528+486878009+487900254+487216668+486322513+486013073
3348+486071130+486298472+486855028+487723789+488525107+489070363+489539848
3338+489927471+489875388+489044292+487263867+484774697+482703165+482375953
3328+483651552+484851675+484839934+484194483+483886192+483883190+483515606
3318+482585374+481698399+481463700+481684687+481888812+482267137+483059833
3308+483555595+483031143+482011517+481495863+481628954+481901318+482049152
3298+482157791+482374040+482855796+483716877+484826663+485845789+486710018
3288+487971464+490189477+492949597+495024602+495593104+494852521+493532813
3278+492379947+491875387+491935856+492030577+491817448+491618001+492054647
3268+493084926+493827922+493604582+492624180+491600993+491121738+491263599
3258+491456219+490847727+489157904+487039556+485417794+484846319+485441746
3248+486849407+488187742+488526931+487708635+486425473+485500685+485384190
3238+486105175+487274696+488111765+487938390+486928680+486070865+486087755
3228+486588814+486596759+485729322+484319925+482648875+480921475+479688543
3218+479470293+480116920+480998099+481509045+481169238+479838260+478037061
3208+476628517+476206112+476811456+477741010+477922536+477101180+476082878
3198+475453670+474856508+473868985+472753990+472003549+471696788+471402855
3188+470543069+469077616+467757731+467288334+467526210+467862927+467943112
3178+467705442+467042248+465762352+463983722+462330946+461443587+461367611
3168+461611107+461596277+460912897+459418607+457324976+455163813+453650926
3158+453326509+453957393+454480727+454100225+453307441+453124325+453579216
3148+453705157+452895747+451441682+449843902+448467696+447700394+447708457
3138+448156167+448461517+448105850+446886218+445360118+444552356+444733971
3128+445086519+444810213+443917970+442884632+442177476+442036939+442246567
3118+442315452+441988034+441357649+440593673+439765607+438897140+438163266
3108+437888490+438102473+438316397+438074636+437451137+436754281+436143700
3098+435639021+435183307+434805953+434836909+435557395+436560072+436942340
3088+436233389+434836085+433595532+433052806+432996073+432791654+432272498
3078+431971857+432330761+433126900+433688958+433298333+431678160+429461677
3068+427794306+427277739+427578940+427971595+427981394+427688285+427501786
3058+427520059+427421748+427089798+426811462+426707266+426491135+425907007
3048+425033891+424143178+423432815+422888265+422407775+422037660+421918280
3038+421982751+421906333+421478103+420888767+420430993+420013120+419292017
3028+418243671+417268889+416727135+416583479+416476517+416080478+415521745
3018+415377854+416080831+417375646+418419901+418455476+417579094+416725252
3008+416532897+416504648+415784957+414431703+413254356+412677026+412389479
2998+411921141+411175821+410540228+410578275+411381182+412207217+412159400
2988+411259213+410343459+409884626+409577040+409121797+408677558+408394396
2978+408144749+407847580+407565624+407202777+406520869+405568009+404748712
2968+404338667+404246064+404292645+404342786+404175384+403713844+403265162
2958+403089492+403060743+403046383+403048119+402800915+401970466+400790735
2948+399847351+399396109+399331902+399444161+399400699+398926506+398212170
2938+397751395+397711641+397855915+398106915+398701077+399572692+400070544
2928+399696721+398775494+397977119+397419592+396543004+394906500+392918448
2918+391559633+391473004+392508902+393983625+395105387+395348707+394759460
2908+393854476+393097090+392579524+392267760+392311574+392864334+393703552
2898+394364215+394606300+394383460+393546419+392149557+390823169+390187488
2888+390050541+389712059+388957410+388296276+388183605+388414420+388557104
2878+388649118+388944080+389244545+389126872+388620605+388088855+387669570
2868+387318728+387159036+387311195+387511054+387306899+386590651+385599185
2858+384554429+383705177+383444732+383879406+384524209+384837886+384820613
2848+384788893+384794425+384574351+384055283+383636881+383741959+384260262
2838+384713563+384765617+384403270+383900446+383579354+383335474+382729366
2828+381773858+381046840+380844245+380851130+380788366+380862783+381348541
2818+381986105+382127583+381593273+381012206+380964213+381177843+380968686
2808+380194793+379425990+379208035+379371317+379223366+378433612+377449208
2798+376887121+376780218+376589834+375886209+374891654+374179731+373915136
2788+373744203+373418520+373078419+372883916+372781250+372667079+372495234
2778+372228020+371880445+371603609+371557675+371636742+371468339+370847695
2768+370080570+369691063+369843988+370231552+370480934+370492616+370362231
2758+370106199+369583012+368709867+367667141+366810798+366406167+366461134
2748+366738911+366921173+366861998+366659903+366422321+366114530+365716048
2738+365290672+364823011+364286229+363887071+363900372+364276313+364666055
2728+364778755+364560240+364115473+363569863+362961313+362270341+361586549
2718+361127833+361004275+361041234+360960520+360684802+360302416+359890752
2708+359574545+359520402+359648609+359625745+359335168+359033644+358927005
2698+358929565+358888075+358736887+358437599+358019196+357655731+357504307
2688+357470674+357297651+356906938+356521139+356415914+356647287+357016078
2678+357211935+357013842+356427772+355650201+354925360+354420535+354164297
2668+354096353+354195223+354472765+354815515+354967615+354747306+354266992
2658+353877721+353795418+353829198+353659795+353281588+352891169+352511579
2648+352079141+351716617+351579406+351566488+351432866+351121073+350841265
2638+350818784+351015935+351183573+351187339+351118778+351060839+350994543
2628+350990835+351220502+351674980+352065487+352088145+351678246+350974298
2618+350158591+349428424+349039036+349143467+349506461+349621015+349293626
2608+348879843+348767437+348901030+348969003+348810840+348524676+348348446
2598+348448729+348739571+348983068+349061958+349042243+349039859+349145586
2588+349380284+349631255+349744132+349717178+349683132+349680602+349610804
2578+349483244+349484156+349651176+349716707+349499340+349235628+349243779
2568+349439047+349471503+349214177+348837735+348515025+348328408+348356332
2558+348572905+348779178+348870957+348968738+349081820+348972239+348553337
2548+348094886+347870075+347848976+347815490+347642909+347441167+347455262
2538+347793127+348291155+348663771+348720121+348453555+348002107+347526207
2528+347134258+346938902+347064755+347477155+347895233+348037271+347914595
2518+347770469+347796952+348052454+348539212+349128107+349510993+349479919
2508+349179660+348929690+348909239+349084910+349303013+349418243+349388847
2498+349228066+348926806+348536152+348219592+348080173+348044362+348037594
2488+348142467+348431073+348737570+348797716+348584910+348292096+348020292
2478+347764907+347680633+348020616+348752077+349441195+349590295+349079937
2468+348304808+347838001+347925454+348351065+348743632+348877695+348753990
2458+348553896+348450377+348401736+348274264+348142350+348206291+348422246
2448+348507403+348337353+348084617+347941579+347918156+347942579+348020910
2438+348223299+348540684+348837529+348998311+349028648+348970827+348874841
2428+348876783+349088735+349395997+349565047+349540389+349487158+349583733
2418+349868337+350256814+350660033+351039152+351327228+351405618+351239452
2408+350978535+350884668+351155589+351753841+352402204+352832789+353011608
2398+353081111+353225150+353627397+354381516+355461200+356988859+359468112
2388+363566744+369800997+378597424+390467884+405884717+425025534+447700512
2378+473398617+501270772+530212783+559235773+587710565+614985616+639941872
2368+661374001+678314432+689793296+695852908+697703425+694667704+683814310
2358+665013064+641851946+616300293+587742344+558479241+534829952+521970616
2348+521682186+533233379+552919276+573604584+588924194+597575318+601597972
2338+603525584+604918121+606186952+607351676+608164058+608057066+606565012
2328+603264403+597701200+589973922+580812088+570904374+560699049+550610956
2318+540889270+531372092+521651054+511621283+501723396+492336133+483189129
2308+473829172+464311288+455016273+446212901+438089849+430848241+424559050
2298+419054787+413995498+409102670+404470317+400497715+397356003+394735419
2288+392208408+389629991+387170747+385127405+383670632+382704207+381992490
2278+381374406+380837359+380470834+380301490+380132528+379706004+379030304
2268+378336243+377780305+377370642+377027187+376576416+375901364+375175817
2258+374716483+374581596+374519773+374294609+373873587+373347016+372898806
2248+372824094+373259799+373853637+374042372+373731815+373323976+373074771
2238+372886123+372716838+372700036+372792932+372706598+372275748+371659723
2228+371108082+370662520+370178557+369613438+369136391+368834514+368503152
2218+367968548+367443831+367275663+367463016+367679824+367717018+367706219
2208+367866912+368157460+368342930+368402899+368608084+369088957+369614174
2198+369934766+370110260+370401662+371006740+371896070+372806262+373462835
2188+373830891+374059380+374264182+374509710+374881884+375404983+375942471
2178+376301993+376436056+376445472+376382237+376229694+376142447+376416870
2168+377039487+377556700+377624438+377430170+377379970+377632500+378095600
2158+378639768+379166309+379582917+379832417+379947441+380054050+380300784
2148+380750083+381358016+382083768+382969302+384094713+385517352+387257258
2138+389290096+391581378+394149202+397010724+400056831+403086078+405969198
2128+408745738+411632712+414890713+418523185+422175607+425458561+428206499
2118+430334293+431763465+432628106+433234421+433666977+433682102+433117778
2108+432181191+431134228+429880933+428167746+426083119+424011293+422133616
2098+420267887+418191617+415942619+413785047+411922995+410257477+408518042
2088+406655844+404928620+403563832+402535525+401682507+400853205+399944426
2078+398984828+398193103+397836700+397981739+398377542+398624335+398567514
2068+398502572+398791060+399317101+399624305+399565954+399433450+399459610
2058+399578048+399676653+399790677+400026788+400464111+401125981+401966758
2048+402878540+403729175+404433241+405025225+405624300+406297528+407049176
2038+407974463+409257243+410882389+412478050+413659576+414502943+415457332
2028+416789635+418332036+419762591+420914161+421846952+422839242+424235075
2018+426082089+427983218+429479186+430509464+431401942+432537064+434072050
2008+435881135+437708641+439376807+440845762+442151287+443322249+444285790
1998+444940303+445503362+446569510+448436387+450540170+452045760+452900867
1988+453711543+454759211+455785282+456636064+457604460+459085362+461159277
1978+463548017+465869726+467910891+469694876+471401119+473297775+475581613
1968+478066810+480212053+481791501+483294619+485262603+487613708+490049676
1958+492665640+495583158+498414077+500702623+502568146+504446853+506514412
1948+508731513+511270529+514522057+518428716+522000395+524202371+525337610
1938+526597378+528529110+530800883+533116618+535593017+538299524+540981255
1928+543448649+546070705+549452058+553469064+557212528+560213527+562693045
1918+564396610+564759251+564396728+564781850+566552446+569075809+571246946
1908+572385481+572694038+572909728+573391248+573909021+574438034+575493295
1898+577352757+579474930+581002354+581711864+582209333+583016594+583794666
1888+583952622+583777952+584114581+585170253+586393475+587303138+587843156
1878+588062318+587978573+587801549+588056080+589354043+591821791+594397942
1868+595040126+592800721+589154008+586275596+585034837+584811555+584569383
1858+583794960+582524069+580983286+579477755+578333629+577678969+577500885
1848+578058147+579660900+581479460+581358580+578503121+574874769+572365943
1838+570966991+569694923+568250185+567514428+568383424+570299030+571332340
1828+570403844+568281730+565671385+562493127+559173391+556700994+555328584
1818+554366721+553286625+552486837+552664450+553655740+554270205+553592945
1808+552153387+551191699+551391499+552703822+554570522+556026147+556390201
1798+556147322+556528030+558348651+561254781+563331874+562548565+559736538
1788+557740541+558178217+560546095+563406910+565889606+567852469+569280552
1778+570373830+571958634+575210338+580463866+585793252+588232987+587510000
1768+585479987+583497467+582659780+583902010+586509824+588311553+588753996
1758+589352748+590727159+592307372+594479216+598412358+603626867+607388340
1748+607945072+606639047+605722558+606399994+608685479+611583370+613606792
1738+614698010+616910285+621569592+626159043+626857606+624748733+622581538
1728+620806057+619324890+618797113+619815709+622739436+628357017+637117957
1718+646587288+650952222+647945279+641937986+637167509+635115192+635999608
1708+639584292+644634665+648934215+651911437+655789671+662073977+668082859
1698+670246582+668800314+664767772+659481406+655727289+655230055+657549616
1688+661826684+668650067+678134406+685186367+684091440+678451731+674350216
1678+674148474+677200379+680854743+682985921+684576197+687006163+688562188
1668+686900643+683968618+683384579+685867687+689069544+690527111+690755160
1658+692314598+697614971+707767330+719390438+723042919+719097124+717093359
1648+718917922+719927573+716566641+711879027+709583006+710140504+713163571
1638+718811813+725872720+729511606+726890256+722675452+721709763+724704582
1628+729691161+734668441+739506538+744660018+749454212+753564437+758605747
1618+765962145+773370861+776279640+774882572+773025523+772690130+773646403
1608+775014457+776072425+776469435+776341846+776093494+776063597+776767752
1598+778758452+781707602+784492028+786769804+789466895+793115080+796768797
1588+799049751+799715122+799887027+800915039+803225890+806385315+810251250
1578+815119361+819791203+821397958+820252361+819813860+821374241+823174616
1568+823970696+825626474+829737759+835480869+842692905+854015284+869351961
1558+876648213+868979610+857805536+850845265+848692724+849549539+851125632
1548+852223207+853728620+857028170+861708487+865771573+866984554+863588488
1538+857419001+853026054+852621570+854998923+856632455+855877983+854988329
1528+856269167+859432653+862538230+864780636+867058118+869942003+872617554
1518+873891506+873188881+871298405+870397746+872558115+878650036+888139259
1508+898278082+902787789+897958108+889996897+885377609+885888202+890636080
1498+896593820+900556447+902645546+905231114+908901074+912043021+913104107
1488+912782015+913014654+914426670+916040723+916411603+915449386+915431966
1478+919106104+926957911+936386636+942738973+942682476+937953254+933104329
1468+930389818+929492455+929329790+928898588+928329085+929345680+933346325
1458+938303124+938386222+932372102+926054369+922704207+921664130+920919074
1448+918614049+914926375+912410134+912604932+913688441+913298375+912589983
1438+914670432+918954150+920388766+917477927+914307084+914166842+916930670
1428+920617991+923602452+924943141+924501286+923773474+924795189+927351979
1418+928314784+926229333+923876404+923640235+924479864+923694848+920715566
1408+917832800+917001233+917785072+918729868+919621170+921338388+924086503
1398+926837266+928182487+927294481+924451910+921278007+919533717+919449618
1388+919764355+919426902+919172371+920395828+923193848+926754757+930601035
1378+934768346+938991095+942170824+943694540+945216078+948865264+953706539
1368+956530571+956839422+958008501+962110841+966870018+968791391+967821288
1358+966722655+967533742+970180044+973440046+976607358+979973646+983803975
1348+987152960+988249770+986899194+985526137+986560564+989731054+992760360
1338+995116643+999460214+1007422543+1016010343+1020671239+1020737976+1018975384
1328+1017367922+1016874043+1019149465+1024415705+1030138393+1034045170
1320+1036170169+1037278454+1038328477+1041025038+1045681108+1049871901
1311+1052020087+1053801159+1057331995+1061908851+1064641194+1064838228
1302+1064690276+1065137780+1065317394+1065786909+1068220052+1071973110
1294+1073741823+1071726170+1067689803+1062901435+1056187810+1046770562
1285+1036388860+1028205956+1024375803+1024682183+1027126508+1029450305
1277+1030596844+1030767866+1029417113+1025281405+1018644287+1011453496
1268+1005566142+1001822265+999950562+998697856+996853106+994417727+992070153
1258+989736586+986622946+982254600+976859888+971318167+966866605+963527094
1248+959429110+952972900+944373624+934576844+924478923+915211451+907615823
1238+901329575+895138254+888187046+880663688+873424286+867009390+861183064
1228+855397757+849573020+844254933+839987281+836877113+834658365+832831271
1218+830937322+828982404+827549907+827429733+829067208+832095278+835265650
1208+837410364+838712682+840430960+843292304+846759110+849596737+850891051
1198+851384048+853487624+858917470+866521101+873062057+876326061+877087655
1188+877770034+879675223+882152799+884305811+886522558+889440577+892300744
1178+893769493+894232181+896165384+901509012+909248296+916739051+923042836
1168+929431191+937205844+946205249+954589306+959735548+960512913+958558819
1158+956462834+955530042+955499087+955778100+956979959+960550931+966132613
1148+971291036+975092705+978929920+983600114+988434562+992191740+993359465
1138+991749179+990039787+991524132+996051671+999824503+1000481517+1000341569
1128+1002546723+1006803900+1010691726+1013599210+1016777174+1019440543
1120+1018410648+1013175717+1007555782+1005099216+1005750817+1007789068
1111+1010811430+1015098032+1019729032+1023304830+1025394164+1024964433
1103+1020409940+1014226917+1012324141+1016621925+1023152287+1029038936
1094+1036100371+1043040809+1043661924+1037653219+1030497033+1024569071
1085+1019552361+1015443724+1012296598+1010034359+1009063785+1008370165
1077+1004135469+995773658+989156666+988688682+992407135+995977283+997055554
1067+995271657+991416787+986983998+983157436+980539441+979709992+980127071
1057+979537088+976816692+973933631+973302452+974554629+974722590+971225182
1047+965357189+961769327+963840241+970480185+977810394+982586579+983248537
1037+980750128+978649671+979119950+980455578+980601823+979452342+976995187
1027+973230006+969836941+968653326+969092533+969207057+968392910+967496960
1017+967113780+967341063+968431458+969781092+969571758+967192169+964310286
1007+962281332+959733253+954892037+948394454+941507395+934412885+927700495
997+922625464+918587154+913500588+907233113+901710518+897456990+892702580
987+886609070+880785274+876512561+873244672+870276160+867480023+864470197
977+861253273+859251862+859137220+858862562+856554124+853656939+852449725
967+851959553+848825963+842156182+835355104+832002941+831884944+832078800
957+831061145+830221104+831525540+835263296+840191847+845068727+849396996
947+852908234+855496568+858007807+861803296+867139392+872738081+877295223
937+880958944+884833353+889557102+895018021+900768252+905967342+909993469
927+913768478+918729927+923960091+926668363+925756347+922595979+918890473
917+915928023+915005295+916671136+919722511+921713270+920690260+917136355
907+913975458+913680319+916211626+919704679+922235104+922749640+921285010
897+919369228+920034540+925480217+934243393+941471907+943468434+941925062
887+941825897+946071127+953015861+958499497+959519446+956323239+952256681
877+951284106+954577183+959541751+962515148+962119904+959518858+956431584
867+954000912+953038872+953883739+955671992+957412339+959243376+961856074
857+965341653+968398207+969059105+966903328+963741666+961673223+961368786
847+961757263+961103956+959045694+957504676+958720071+962617961+967020618
837+970250194+972130843+972201700+969862012+967423690+969165744+975133489
827+978936511+975719117+969823406+968768263+973760020+979947104+983122243
817+983515310+983546207+984739826+986631892+988194214+989693860+993644187
807+1002962330+1015283178+1023814716+1026432535+1027551766+1030674175
798+1034188414+1034181352+1028824600+1020467849+1012900647+1007504582
790+1002808611+995900423+985039555+972506608+963874257+962871021+967851773
780+972940047+971885080+963841360+954894626+951516215+954315589+958315175
770+958781041+955638505+951730316+949857259+950863615+952817886+953651984
760+955001853+960924695+970865425+977008605+974504193+970584116+973404500
750+981217230+987669497+990199980+990336397+989830866+988812152+985804503
740+979575694+972298569+967807105+967758965+972217119+980131661+988166554
730+992514833+992392422+990149250+988972345+988520485+986151019+983483824
720+985610118+992533194+997725869+998517418+999878528+1005689964+1013003754
710+1016777056+1016030823+1012721621+1008610984+1004780949+1002664543
701+1002821793+1002027655+997879942+994379238+994404073+995288253+996411840
691+999818971+1002502231+998029071+986558799+975100944+969242368+969609305
681+971184692+968351479+963379849+962499906+967685754+973822520+973454347
671+963726835+947783402+933702727+930690430+938901994+948428235+951925172
661+951929233+954251324+957409220+954305114+943718492+935084141+936258046
651+941295648+938065012+929587088+927229333+931823962+935030587+930451847
641+922231396+918131823+919515237+920877172+917171960+909825214+904587105
631+908056265+918845864+928386053+931002871+927991220+922515471+915945560
621+911239055+913544314+924734808+938937305+947397456+943958134+927804780
611+911543374+910165903+925494223+938068190+926265527+902775960+883364898
601+871142920+870632151
##END=
