##TITLE=<SNM>
##JCAMP-DX=4.24
##DATA TYPE=INFRARED SPECTRUM
##DATE=29/4/2025
##SAMPLING PROCEDURE=Instrument type and / or accessory
##ORIGIN=Admin
##XUNITS=1/CM
##YUNITS=ABSORBANCE
##RESOLUTION=4
##FIRSTX=4497.3318
##LASTX=599.83466
##DELTAX=-1.4281778
##MAXY=2.0785093
##MINY=0.4105286
##XFACTOR=1
##YFACTOR=1.9357627e-09
##NPOINTS=2730
##FIRSTY=0.42696524
##XYDATA=(X++(Y..Y))
4497+220566935+220036693+219920071+220285056+220652981+220479857+219754814
4487+219003429+218877447+219719142+221246760+222632353+223049591+222262057
4477+220693933+219059131+218092407+218336690+219646367+220893784+220884562
4467+219768947+218895860+219267542+220579051+221707090+221902907+221369710
4457+220777562+220535527+220564933+220528676+220274279+220054675+220124325
4447+220284147+220154331+219698774+219317116+219560706+220652642+222152332
4437+223254445+223453588+222874912+222046503+221340012+220695550+219995433
4427+219455954+219347260+219635405+220088268+220338448+219966119+219093109
4417+218561574+218910440+219710890+220315077+220505075+220133747+218963170
4407+217188452+215597311+214875764+214966752+215362836+215779627+216132557
4397+216229164+216004065+215821826+216179944+217177675+218358567+219039070
4387+218889178+218154329+217209944+216239156+215486293+215259977+215447804
4377+215585226+215543304+215604332+215715858+215347702+214422285+213626114
4367+213414947+213539760+213736101+213924636+213800870+213243501+212881411
4357+213369484+214511441+215572894+215959479+215533635+214768533+214351372
4347+214367353+214404072+214444963+214795845+215214483+215084975+214461805
4337+214104087+214401732+214988860+215461830+215740630+215719399+215366284
4327+215047856+215023839+215041729+214927801+214788624+214408275+213481426
4317+212448947+212075895+212374017+212689535+212655172+212659314+213392070
4307+214865926+216065154+216105630+215448312+215222489+215783122+216590223
4297+217062223+216991726+216505116+216093436+216312224+217068751+217611401
4287+217575729+217459431+217706130+218087912+218265901+218156807+217655232
4277+216814584+216154095+216021138+216097301+216102366+216262404+216640474
4267+216745827+216284312+215741107+215695736+215992256+216141271+216184809
4257+216535630+217230482+217908275+218206674+217825247+216752478+215675106
4247+215524275+216509858+218015444+219270190+219887340+219894468+219488300
4237+218868425+218253800+217831928+217555438+217263783+217091859+217363454
4227+218049053+218730018+219047446+218921986+218525271+218190170+218124908
4217+218221762+218342294+218569057+218984323+219424423+219543894+219021442
4207+217960621+217166282+217447376+218546225+219424500+219598333+219481018
4197+219548805+219797999+219932880+219859751+220046038+221072712+222600192
4187+223428878+223052039+222405622+222468667+222838208+222394768+220997628
4177+219748117+219598394+220371210+221290084+221980117+222590323+223241867
4167+223799143+224079698+223964277+223374793+222437675+221572871+221178727
4157+221331128+221860569+222485833+222897035+223008192+222993905+222920868
4147+222720432+222579038+222856237+223516002+223992713+223722334+222722295
4137+221636039+221133125+221295611+221737727+222173855+222562596+222852172
4127+223013488+223220221+223602017+223860557+223564098+222875466+222490328
4117+222751993+223285390+223548979+223373561+222989994+222824245+223170092
4107+223868424+224395309+224351231+223846208+223434020+223595628+224212978
4097+224724068+224867694+224930416+225141921+225293676+225216451+225240361
4087+225757316+226516783+226785253+226158727+224920578+223703444+223063924
4077+223273351+224302088+225844655+227300945+227999677+227753054+227070703
4067+226561477+226281646+225884161+225252908+224720419+224649245+224985855
4057+225279019+225094687+224469639+223940614+223981967+224459986+224890787
4047+225133038+225393270+225648653+225576094+225081524+224527111+224301996
4037+224316283+224164066+223884589+224090999+225013398+226012884+226479772
4027+226599951+226829330+227207494+227505969+227627502+227642960+227618742
4017+227561070+227514083+227519194+227391564+226818923+225899079+225245872
4007+225276879+225764875+226314700+226865402+227515653+228205778+228729092
3997+228883310+228645540+228252150+227897403+227441184+226783929+226336054
3987+226623706+227541441+228377209+228530195+228071344+227638618+227707144
3977+227995351+227895956+227412795+227167665+227529370+228275675+229096725
3967+229963299+230847287+231349816+230942124+229705838+228544052+228322277
3957+228975976+229664762+229698756+229235008+229063116+229669612+230608485
3947+231061471+230879648+230609101+230692468+231075250+231468517+231645921
3937+231569374+231603521+232414287+234209589+236142851+236965471+236410658
3927+235368881+234735196+234577452+234424266+234210790+234471931+235438439
3917+236437816+236543646+235611624+234262196+233112402+232292292+231670754
3907+231623089+233138852+236589633+240662336+243409490+243871020+241964793
3897+238435386+235126046+233871038+235104522+237405279+238671494+238705134
3887+239144726+240642984+241841274+241847047+241700588+241762417+240818248
3878+238954343+238037471+239090133+241612540+244985250+248434029+250104826
3868+249349039+248121143+247793940+247223823+245192429+242730788+241313126
3858+241254438+242928222+247459177+253210991+254274369+249644589+243580366
3848+239374767+238412586+240609098+244579698+248543123+251702879+254002081
3838+254764227+253325057+250600305+248096110+246374923+245197540+244450836
3828+244281438+244635399+245723702+248485959+252791583+255637776+255050078
3818+253419741+252588453+251026379+247627790+244238099+243216952+245508363
3808+249831384+252999332+253788328+254537018+256677198+258042715+256906147
3798+254923033+253470515+252118993+250801634+250434278+251295387+252775972
3788+254651547+257142917+259827441+262134786+264731724+268476685+272303212
3778+274257074+274574994+275459721+278683693+284628722+292268998+299717228
3768+305873825+310888958+314886376+318226586+322347169+328370348+335355723
3758+341482021+346991293+354111996+364727973+378431302+391060198+398004621
3748+400743230+404093816+410094824+415943816+418755277+420531258+424521841
3738+431607442+439741702+445567662+447307463+445643901+442337778+439268686
3728+438214300+439875521+442576349+443554465+442233426+440316945+439042894
3718+438236500+437791412+438683251+441964095+446727047+450057957+450655524
3708+449862063+448977336+448727989+449972881+452921763+456229057+458376072
3698+459391292+460487124+462851279+466871114+471885539+476258088+478139621
3688+477096935+474573588+472414502+471969876+473706290+476626783+479308859
3678+481829865+484613306+485982657+485085306+484087237+483621796+481353770
3668+476552145+471795967+469173841+468609098+468810350+468491168+467412949
3658+466847774+468528363+472686882+478173337+484328025+490807315+495863923
3648+496845057+493436738+488108673+483679807+481439863+480773570+480459622
3638+480323186+481000471+482685494+485260601+489307378+495552500+502020951
3628+503964806+500607138+496256389+494776375+497492814+503339896+509310237
3618+512712860+513807921+514553902+516165426+518656134+521241988+522560656
3608+521787733+520151791+519809269+521493306+524291373+526759788+528044093
3598+528858462+530879664+534617112+538445271+540571594+541426915+542802670
3588+545146627+546568631+545430338+542791462+541046211+541351600+543002629
3578+545101056+547538741+549452359+548931309+545954960+543536304+544629703
3568+548874714+552813352+553924179+552823575+550851885+548528497+546357279
3558+545249347+545764485+547499082+549389791+550679023+551672781+553054633
3548+554649622+555323952+554087496+551641867+550327017+551688977+554455760
3538+555634944+554095933+551752407+550576426+550368523+550042690+549907639
3528+551213375+553690165+555193951+554405693+552764764+552635563+554240960
3518+555601627+555366136+554203703+553555361+553974800+554938629+555945135
3508+556905269+557560139+557184300+555596762+554266702+554913380+556962110
3498+558179229+557844281+557038165+556281746+555553716+555503034+556710730
3488+558591155+559856739+559592549+557788118+555396311+553553329+552483639
3478+551684728+550924860+550215059+549146971+547411635+545763869+545508671
3468+546943977+549138842+551091872+552252273+552135821+550545820+548283706
3458+546578792+545730984+545140838+544691901+545210611+547251705+549961154
3448+551280623+549396565+544535605+539158151+535844022+535251351+536088505
3438+536619593+536204218+535669004+536164436+537725616+539173854+539365869
3428+538118267+535898522+533429307+531648153+531299041+532276788+533557645
3418+534307905+535027067+536830452+539581777+541684823+542000187+541002180
3408+539874726+539504368+540225808+541398772+541624103+540426321+538994649
3398+538397421+538132985+537187138+535856585+535522191+536785312+538769872
3388+540136821+540233321+539374244+538426673+538229855+539061097+540190521
3378+540388017+539558684+539156303+540278584+542358413+544201457+545018227
3368+544319142+542436747+541142280+542369129+546130409+550389030+553172194
3358+554196313+554261652+553908907+553256193+552794385+553358666+554861713
3348+556016448+556199287+556376398+556994995+556478502+553580918+549690191
3338+547093438+546660881+547956641+550032590+551625301+551742185+550704579
3328+550075760+550876025+552345201+553206804+553679327+554765767+556006348
3318+556109930+554964432+553331508+551797917+550969693+551349226+552310838
3308+552539187+551705851+550598226+549975442+550042751+550605247+551455764
3298+552634578+554110590+555383564+555825665+555610434+555726640+556533187
3288+556976336+556186970+555355359+556366853+559152172+561668129+562338332
3278+561647930+561065174+561270737+561895061+562190780+561584685+559902371
3268+557546591+555667151+555392124+556525305+557757942+558341006+558584688
3258+558781014+558931953+559483794+560671599+561448895+560893974+559790845
3248+558917727+557448551+555047938+553369258+553674770+555102069+556164369
3238+556349979+556044591+555930479+556178102+556061034+555268219+554997687
3228+556347208+558522921+559912348+560064703+559527272+558501675+556792450
3218+554785289+553607521+554017230+555410475+556222750+555475506+553784941
3208+552535923+552352714+552760822+552846299+551788618+549463382+546939481
3198+545530163+545276689+545203653+544809093+544486646+544819069+545780435
3188+546469606+546108424+545108815+544339587+543717418+542580234+540885789
3178+539049026+537307471+535862743+535041600+534885181+534840595+534257592
3168+533261432+532639448+532667591+532691978+532129113+531195829+530303928
3158+529355679+528185856+527259716+527239701+527981956+528555475+528363461
3148+527706929+527057725+526260169+524884783+523310855+522531466+522415629
3138+521255105+518177268+514953573+513907747+515069533+516572149+517204140
3128+517405146+517867446+518170925+517339068+515528385+514137943+514027925
3118+514782189+515639911+515890214+514729628+512154737+509668924+508916785
3108+509789041+510635710+510312216+509347525+508794359+508587503+507799308
3098+506263776+504994066+504867853+505569063+505990996+505396509+504136806
3088+503267198+503398831+504071559+504397393+504001540+503035001+501657706
3078+499957257+498191961+496856973+496518361+497410693+498977755+499945587
3068+499243945+497128768+495138634+494535279+495053958+495647091+495935975
3058+496140398+496221964+496024777+495671693+495149688+494149125+492713758
3048+491461353+490901752+490932358+491079725+490972602+490594978+490156356
3038+489728480+489043343+487735944+485891607+484196854+483292329+483130428
3028+483131383+482691529+481557793+480155311+479359264+479583024+480356594
3018+481017529+481494825+482082262+482681676+482770386+482163797+481295575
3008+480580139+479969270+479275235+478449658+477438318+476204234+474963498
2998+474040991+473455063+472926808+472314153+471795905+471502587+471270236
2988+471022520+470934488+470897138+470466614+469707516+469319299+469545123
2978+469706069+469219998+468420532+467883840+467553018+467101618+466647723
2968+466408537+466071741+465210847+463959674+462749083+461801666+461212228
2958+460988252+460762305+460113748+459395264+459401453+460024823+460174038
2948+459269143+457895081+456784101+456137545+456013733+456436436+457088319
2938+457543168+457626304+457245200+456383844+455443879+455018250+455249062
2928+455759951+456084122+455925824+455225199+454168318+453059246+452132798
2918+451435560+450790636+449957239+449001754+448429159+448659509+449391141
2908+449805007+449433017+448480642+447330064+446227427+445416816+445045411
2898+444930559+444789196+444630529+444624679+444698732+444494247+443707868
2888+442452014+441281852+440780755+441027701+441456346+441333520+440540367
2878+439810059+439884635+440454552+440385210+439160516+437590345+436778964
2868+436849937+437002293+436643667+436137612+436211326+436916785+437538770
2858+437390356+436426342+435137849+434087712+433516872+433235963+432916041
2848+432504823+432263173+432361398+432478189+431981495+430701562+429285131
2838+428461864+428262522+428300764+428424145+428600887+428523078+427887730
2828+426903825+426105222+425731077+425574872+425384859+425122363+424822271
2818+424439197+423903890+423243756+422622480+422219791+422015460+421754842
2808+421187328+420346941+419593386+419306349+419458058+419577559+419308905
2798+418826990+418464361+418225359+417928346+417517929+416979820+416205573
2788+415218065+414372875+414041068+414086578+413931882+413283818+412525767
2778+412124648+411905999+411273515+410050116+408766642+408011239+407745633
2768+407507801+407134949+406893576+406912267+406899519+406506130+405696965
2758+404733105+404009663+403904819+404523509+405456485+405918939+405340340
2748+403899523+402389364+401509225+401312346+401294733+400940910+400163492
2738+399263431+398582389+398260435+398196975+398123229+397819289+397306090
2728+396729307+396151108+395619004+395273587+395173269+395120185+394848329
2718+394353328+393907316+393733006+393728572+393574554+393089468+392377881
2708+391684646+391221976+391031039+390924655+390692058+390346425+389996513
2698+389602969+389128968+388784937+388791650+388966944+388875802+388393857
2688+387784866+387191210+386452958+385541782+384766734+384375131+384265421
2678+384228841+384202145+384144534+383910521+383468080+383118014+383213714
2668+383654491+383921790+383668963+383068255+382534304+382245389+381987727
2658+381446262+380576962+379583481+378628858+377806638+377292547+377248669
2648+377650804+378335787+379066957+379529011+379510413+379114068+378563335
2638+377880414+377024293+376219809+375783465+375665073+375493812+375086566
2628+374634488+374398935+374427201+374530352+374446384+374115501+373794317
2618+373765034+373975062+374100167+373936203+373605966+373357973+373268371
2608+373223939+373102098+372821219+372286990+371479088+370586356+369936752
2598+369735808+369888595+370131754+370315485+370427504+370395974+370128828
2588+369754006+369545118+369581575+369694302+369701599+369512325+369094395
2578+368557856+368199045+368237996+368544216+368804371+368889171+368861120
2568+368719080+368380745+367888392+367423813+367127385+367025312+367072392
2558+367147769+367097795+366949196+366972351+367290733+367534569+367225332
2548+366442463+365740760+365490396+365631821+365950141+366279793+366511066
2538+366607197+366604672+366560887+366564151+366729931+367041724+367279340
2528+367288516+367215941+367267024+367394038+367449985+367442996+367422920
2518+367340368+367164273+366951166+366764325+366676416+366795794+367163472
2508+367660198+368047152+368111352+367837032+367386494+366879392+366358157
2498+365996852+366073676+366624655+367297538+367659397+367587869+367300648
2488+367065310+366992827+367056873+367124060+367010532+366711179+366485818
2478+366534837+366736951+366854728+366827940+366751885+366693412+366615449
2468+366466080+366315111+366317297+366516578+366815315+367134652+367420580
2458+367510244+367246578+366766819+366455981+366543428+366883918+367150663
2448+367132835+366869939+366605503+366557962+366665885+366660527+366410317
2438+366069057+365908419+366091196+366531943+366935771+367066757+366947040
2428+366738399+366557777+366480060+366600115+366982912+367527148+367931007
2418+367939105+367658473+367494171+367754912+368405409+369129281+369586316
2408+369693840+369622342+369512263+369412746+369465892+369807921+370297411
2398+370630665+370672787+370522280+370416234+370638825+371308012+372230057
2388+373096740+373744158+374149864+374385818+374715254+375554594+377155495
2378+379385031+381958414+384860093+388385943+392782233+397923486+403250412
2368+407984420+411530777+413692726+414587152+414624532+414360559+413917041
2358+412838422+410815033+408134281+405339940+402894095+401017150+399636068
2348+398707371+398662016+400321174+403909469+408292487+411870128+413885141
2338+414616557+414779720+414964160+415382152+415797003+415642369+414447020
2328+412277096+409708147+407393689+405692285+404578471+403761640+402870293
2318+401609112+399872452+397816055+395794668+394090432+392682007+391425044
2308+390404621+389838338+389657378+389507362+389178050+388743492+388302715
2298+387900087+387685472+387826312+388212096+388488571+388447064+388227738
2288+388092164+388130776+388268690+388411408+388463199+388341234+388099615
2278+387897470+387785852+387723253+387744869+387860151+387923489+387862153
2268+387850606+388062173+388438812+388800240+389027603+389151076+389337487
2258+389703657+390154288+390527971+390812821+391102814+391471509+391958812
2248+392554254+393178978+393760996+394249623+394508116+394344213+393719304
2238+392800738+391794386+390858177+390135751+389705812+389511735+389441407
2228+389415235+389384013+389397807+389621814+390052799+390358095+390301593
2218+390159491+390387593+391055888+391904773+392809668+393909163+395328149
2208+396986753+398680983+400207123+401441577+402483985+403686694+405330425
2198+407300514+409275930+411158695+413091711+415144659+417221717+419227369
2188+421146560+422977596+424659539+426048504+427008392+427592872+428052925
2178+428570835+429112146+429613274+430093064+430474876+430539507+430186300
2168+429574354+428922903+428287986+427574213+426665654+425491397+424070379
2158+422545132+421034264+419415720+417428203+415015921+412461659+410204749
2148+408489982+407130515+405868380+405042434+405382001+407041775+409455813
2138+412140475+414972166+417790309+420434512+423063011+425941289+429066205
2128+432244021+435380946+438588353+442047355+445778983+449592516+453282976
2118+456823390+460392040+464241537+468475125+473009452+477834109+483157186
2108+489228152+496199548+504203438+513419058+524021395+536023412+549037662
2098+562163869+574176478+583975316+591163421+596276131+600134343+602850566
2088+603752751+602445353+599458966+595376533+589955602+582712380+573797252
2078+563976245+554232893+545357609+537595246+530888963+525352934+520998121
2068+517322132+513786522+510334448+507020011+503623946+499943493+496109638
2058+492460869+489197299+486178274+483152075+480181730+477654073+475888407
2048+474851172+474180106+473546236+473072574+473176341+474060728+475793878
2038+478775584+483659238+490899904+500568587+512303274+525305269+538717897
2028+552066171+565096494+577317067+588017905+596818366+604070517+610468888
2018+616258144+621110976+624663614+626802255+627576964+627207407+625962884
2008+623787663+620221600+614871920+607869548+599786955+591301243+583016228
1998+575353999+568374412+561787230+555245434+548574745+541840750+535356349
1988+529576761+524888909+521384490+518757931+516566637+514694033+513355382
1978+512591419+512094632+511634733+511303327+511262374+511585898+512360145
1968+513599495+515009367+516149199+516930898+517684792+518720858+520127220
1958+521972542+524301904+526888188+529355803+531575609+533737589+536132290
1948+538936207+542060662+545226377+548211839+550882061+553146576+555188901
1938+557455572+560137678+562902121+565320223+567419020+569639934+572266247
1928+575083035+577778752+580371625+582870955+585031888+586930603+589015605
1918+591120929+592434055+592958369+593827115+595814939+598385828+600317982
1908+601033017+601123605+601562566+602666681+604016325+605166564+606116168
1898+607074516+608006384+608614204+608924150+609564547+610889189+612157421
1888+612421487+611943544+611710146+612092574+612698485+613012249+612857245
1878+612510905+612339828+612309407+612286436+612662829+613829327+614933564
1868+614307823+611883871+609488308+608237812+607420549+605956053+603932880
1858+602154437+600779236+599212882+597210832+595432696+594597205+594609029
1848+595005313+595618245+595968650+594833867+591900626+588580524+586100408
1838+584507574+583293289+582155920+581439098+581821157+583074794+583512153
1828+581933299+579220031+576577337+574031020+571350022+568949347+567288341
1818+566251475+565526771+565195334+565479784+566105032+566378705+565997693
1808+565388518+565060098+565173226+565829080+567108089+568591429+569464609
1798+569530133+569603170+570697800+573032212+575376292+575908488+574745316
1788+573835803+574365413+575923699+577758861+579766638+581779958+583222900
1778+584269188+586135633+589762171+594732133+599072043+600747521+599935677
1768+598222203+596927675+597107681+599192806+601999926+603529514+603668568
1758+603859659+604410084+604922205+606267045+609750896+614744321+618578946
1748+619708001+619254630+618932307+619654547+621679999+624654931+627601042
1738+630230003+633926499+639523679+643921108+642870201+638374671+634936884
1728+634225975+635764862+638348991+640681863+642387270+644841829+649857916
1718+656896684+661819781+661684176+658849098+656640993+656236149+657541946
1708+660336318+664064159+667495726+670345153+674373024+680895668+687517767
1698+690820196+691155390+689667554+686902988+684548255+684273966+686393700
1688+690523983+696623124+703852551+708415205+707839655+705460349+704701159
1678+706489271+710452481+715217988+719243212+722697380+726502691+729524857
1668+729671239+728329785+728903304+732023386+734771202+734711590+733340145
1658+733380174+736484429+743886042+754312283+759442113+755728313+750955293
1648+749328650+749113296+747080516+743532496+741031134+740930816+743327364
1638+747555256+751435021+751094716+745829835+740017792+736847828+736208724
1628+736430914+736451360+736660864+737344307+737797186+737950465+739053101
1618+741620295+743644084+742620396+739709387+737731231+737502390+737967215
1608+738168406+738369042+739097194+740248050+741547874+742924306+744177327
1598+745054633+745775704+746936104+748818253+751043602+752906845+754087137
1588+755036556+756370065+757973368+759215674+760014770+761087169+763097102
1578+765872075+767934168+767481721+765588241+765209200+766976805+768143303
1568+766152646+762621315+760211095+759744237+761965522+768416052+777507799
1558+780284250+773798371+765989698+761014686+758805041+758203256+757875760
1548+757417216+757967087+760789602+765729265+771783265+777578619+779946162
1538+777677890+774834806+774458598+775773448+776583752+777069823+779241780
1528+783645613+789183674+794833631+800541352+806279680+811264545+815125897
1518+818630378+822058866+824718495+826658593+829307075+834126037+841841412
1508+852108894+860749425+861361063+856365791+852573658+853011325+858045025
1498+866154159+873262946+875763446+875619466+877747822+884539459+893681272
1488+899850370+900951528+899811942+899600406+901318068+904447264+908427286
1478+913250743+918936910+925044241+930767420+935317203+938507736+940912044
1468+943096378+944700974+944474966+942250295+940299728+941013162+944707625
1458+949142311+950080953+946212950+941011807+937141033+935062744+934257490
1448+933695549+932302058+930280424+929266960+930327289+932745329+935594818
1438+939418974+944520414+948666155+949900331+949267878+948101073+946339503
1428+944334620+943508058+944354326+945659446+946227853+946488779+947161384
1418+947370395+946209810+944636313+943704199+943173172+942684021+942734026
1408+943340307+943153958+941374652+939687535+940509355+943983968+948102797
1398+950703800+950958690+949605412+947878636+946810363+947246245+949456690
1388+952457364+954211544+953557352+951707473+951351525+954865736+962626436
1378+971966361+978547385+979948266+977543589+974250090+972062122+972255430
1368+975408212+980802416+986765644+991359459+993015230+991965617+990957879
1358+993091470+998348468+1003046173+1004110751+1002709008+1001579522+1001173508
1348+1000471035+999374804+998772403+999637700+1002449130+1006513520+1010110929
1338+1012209171+1013538739+1015587654+1019214191+1023899703+1028054065
1330+1030600567+1032284666+1034564946+1037342444+1038983497+1039015520
1321+1039241282+1041486214+1045378727+1049280600+1052569727+1055447851
1312+1057528727+1058399135+1058588809+1058579326+1058111298+1057317868
1304+1057181524+1058514910+1061814383+1067176872+1072557097+1073741823
1295+1068709786+1060441460+1052942671+1047039979+1041495328+1036374982
1287+1033339083+1032804916+1032347788+1029406665+1024463923+1019880453
1278+1016953124+1015214463+1013555736+1010827257+1006190088+999832301+993040910
1268+987499647+984062661+981944035+979620646+976632844+973501800+969584777
1258+963184313+954824537+947795869+944183557+942511159+940173792+936572257
1248+932583675+928065976+921392085+911733902+900963783+891879919+884851375
1238+877846354+869876027+862437650+857014686+853115523+849407019+845577628
1228+842279388+839784615+837512341+834938619+832591522+831610942+832307749
1218+833763500+835056796+836252484+837846796+839787386+841389704+842193049
1208+842733067+844129329+846962067+850886479+855196214+859453111+863692026
1198+868061126+872270481+875727236+878250644+880294262+882371012+884768115
1188+887983773+892464646+897292352+900246900+900503946+900473401+903407812
1178+909989021+918415121+927121976+936185025+946014654+955633979+963100191
1168+967807503+971053152+973808666+975891574+977117068+977383104+976237237
1158+974149279+973439109+976163215+981438996+986427432+989727397+991859017
1148+992931724+992228574+990137537+988217207+986952670+985807419+985831867
1138+988950163+994372388+999230947+1002913894+1007310768+1012613214+1016341917
1128+1017257897+1016868695+1016698604+1016865246+1017128019+1017396950
1120+1017322189+1017246935+1018519970+1020904510+1021378573+1017148156
1111+1010127186+1006377484+1009331786+1016775520+1023838182+1027193325
1103+1026580455+1023774690+1020821805+1018628910+1017305870+1017132576
1094+1019018543+1023812748+1030261616+1035007602+1035911142+1032783485
1085+1026895203+1021106132+1017960123+1016946658+1014811282+1009406362
1077+1001816861+993980599+987584631+984145859+983348857+982895239+981146417
1067+978559825+976095843+974148786+973058220+973099296+974232169+976388114
1057+979053286+980839551+980775012+978955924+976253680+974648960+976034692
1047+980057082+984168706+986072162+986035521+985483002+984302525+981255849
1037+976109946+970655144+967312010+967355118+970395881+974520622+976875356
1027+976489356+975933881+977365553+979564668+980487175+979995623+978489313
1017+976229601+974907299+976241671+979265192+981055521+979187598+972336534
1007+960929466+948449507+939116480+933888425+930493069+926695825+921982170
997+916694626+911233359+905982457+901088919+896214164+890986910+885855664
987+881781051+878729141+875678647+872438171+869599829+866730018+862584278
977+857522620+853490807+851282455+849828367+848293913+847137208+846407885
967+844819608+841799475+838840985+837251353+835962614+833192260+829475258
957+827266290+828107446+831587479+836504788+842076473+847807657+853009108
947+857363059+861425047+866034073+871424090+877206819+883018923+888894395
937+894756011+900199974+905498418+911786432+919203686+925755335+929402811
927+930657926+931701751+933617277+935434518+935577882+933537959+930110580
917+926646127+924031823+922381163+921592536+921296755+920493657+918346395
907+915806790+915335868+918628812+924832335+930726590+933256773+932149025
897+929988461+929552210+931209644+933835403+937309585+941634284+944923719
887+945559005+944893358+945425617+947505323+949658497+951301212+953108846
877+954896404+955320524+954577899+955235232+959266059+965208595+968949429
867+968147070+964926115+963341903+964615924+965972896+965489719+965735003
857+969737625+976534681+982253426+983438521+980414384+977142255+976032167
847+975781218+975198893+975341149+976447480+976827937+976672256+978792668
837+983969117+989104428+990429193+986348052+979210260+975640071+981599295
827+995621960+1007934045+1009856531+1003984199+999228791+999849913+1004719927
817+1012080956+1020312886+1026325256+1028717371+1028512793+1026367194
808+1022966788+1019391487+1018164208+1020903956+1024636292+1025594086
800+1024766355+1025076546+1026162555+1024740675+1019213945+1012911582
791+1009901055+1009283997+1005903113+997113552+986746553+980544385+980376819
781+982724532+981699490+974522778+963734123+953538446+946723778+944739094
771+947504091+953327526+960418208+967389850+972178390+972984629+971023223
761+969929147+971548646+974204026+976372041+979668311+985071938+989114589
751+987825419+982989276+979743442+978922300+976856512+972871502+971891723
741+977365430+985679573+990204601+990912739+994527637+1002854097+1009109103
731+1007430731+1000415734+995701956+996934162+1001364784+1004613204+1006060333
721+1008008991+1010151819+1010086727+1007752561+1006597149+1009643270
713+1014267138+1012555142+1000505275+985046874+977161345+981104048+990400680
703+993461088+986603928+976994949+971760552+970464300+969612982+969355813
693+971171145+973467437+973683715+971942713+970180404+970190196+972201668
683+975198585+978170807+979349313+977607758+975404209+975976681+978114213
673+976496931+967825732+954431702+944452981+946408290+956117464+962017631
663+957085604+943763133+931165120+925245185+928052428+940448450+958633606
653+972119024+972017967+962350485+954807109+954150762+955394300+952688422
643+947562348+944084040+940928733+934859398+926908592+921775375+924373607
633+937340992+956065427+967562097+963379099+949983653+935158382+919921493
623+907581572+906549386+917397715+928145664+926624142+913870325+902812554
613+905857383+924919044+946533857+952190958+940872200+927358453+921299526
603+919853013+918930444+917790735
##END=
