##TITLE=<SNM>
##JCAMP-DX=4.24
##DATA TYPE=INFRARED SPECTRUM
##DATE=29/4/2025
##SAMPLING PROCEDURE=Instrument type and / or accessory
##ORIGIN=Admin
##XUNITS=1/CM
##YUNITS=ABSORBANCE
##RESOLUTION=4
##FIRSTX=4497.3318
##LASTX=599.83466
##DELTAX=-1.4281778
##MAXY=2.2145994
##MINY=0.65145838
##XFACTOR=1
##YFACTOR=2.0625064e-09
##NPOINTS=2730
##FIRSTY=0.65145838
##XYDATA=(X++(Y..Y))
4497+315857631+317370241+320276771+323053428+324150237+323387358+321747679
4487+320188831+319428466+320343239+323121515+326075613+326795433+324713770
4477+321444816+318900536+317792659+317623888+317721336+317970938+318539066
4467+319318533+319925011+319997547+319559234+319227299+319749073+321271248
4457+323369354+325574358+327465459+328726819+329482474+329918533+329590643
4447+328092743+326126418+324732959+323898873+322895206+321645463+321024941
4437+321836804+323684383+324842603+323702214+320550359+317484681+316593576
4427+318140345+320351909+321458861+321485506+321106725+320087424+318345875
4417+317057176+317181067+318247387+319446441+320728753+322212377+323522895
4407+324132175+323802089+322820155+321984912+321834001+322002396+321982542
4397+322216481+323412905+324927190+325189479+323952914+322654476+322378085
4387+323040915+324388366+326080439+326966515+325946549+323563382+321445105
4377+320462274+320363584+320649252+321131954+321966821+323299765+324715129
4367+325265021+324476740+323154257+322598816+323106285+323717299+323533096
4357+322683635+321871685+321627661+322115074+323004791+323554568+323310342
4347+322396667+320947722+319072428+317508090+317133528+317578690+317634899
4337+317208868+317438067+318786356+320269113+320706472+320084187+319383470
4327+319355409+319925357+320737076+321556482+321897087+321178048+319647608
4317+318310647+317693420+317542913+317795145+318900739+320787390+322113426
4307+321453283+319166033+317151966+316807314+317947241+319545449+320718292
4297+321001503+320464846+319781815+319549438+319493344+319037489+318476788
4287+318701335+319775660+320660031+320563103+319741357+318681683+317633512
4277+317275625+318451068+320718003+322381263+322487468+321888967+322014765
4267+323324676+325122462+326258660+325873464+323985888+321756898+320801088
4257+321609686+322889773+322950172+321520850+319887297+319543773+320888999
4247+322760738+323443509+322647713+321760597+321733663+321843306+321099298
4237+319767337+318742949+318370931+318473754+318844877+319311049+319660179
4227+319824008+319910503+319909636+319734508+319626540+320086499+321150941
4217+322111259+322307571+321915843+321551078+321377568+321049736+320267321
4207+319082745+317805202+316806679+316372238+316699463+317949726+319886604
4197+321552263+322021007+321461693+320825623+320709998+320937867+320983644
4187+320695982+320621682+321147993+321477963+320546689+318883891+318123121
4177+318703444+319384712+319090259+318204992+317850631+318595853+319969602
4167+320894866+320710402+319914405+319605993+320162215+320923418+321317053
4157+321671530+322408429+323089870+323066867+322643119+322698200+323337102
4147+323745996+323423771+322806110+322454378+322308582+322035283+321657745
4137+321509926+321713925+321941881+321843508+321669478+322059616+322993867
4127+323557863+323139346+322216625+321622372+321625320+321947314+322305721
4117+322755218+323342853+323432961+322139609+319769909+317897014+317728792
4107+319227386+321643035+324083104+325740556+326230310+325718622+324616554
4097+323264276+321836688+320505045+319704626+319842619+320536256+320784326
4087+320231341+319590301+319590099+320194929+320944572+321366817+321105396
4077+320401789+320239838+321128660+322121518+321979710+320867036+319893048
4067+319554899+319566748+319663329+319780573+319787220+319533427+319152884
4057+319168316+319994686+321231483+321892001+321531831+320639744+319934229
4047+319926167+320803949+322066581+322806832+322850817+322923845+323427932
4037+323860205+323664818+323046175+322687623+323001612+323728686+324149486
4027+323773884+322826628+321924339+321383752+321086900+320918881+320959657
4017+321186747+321355229+321444787+321885759+322891275+323854281+324015278
4007+323458941+322792845+322240814+321710312+321278617+321058753+321117736
3997+321747968+323037852+324084174+323680482+322032856+320698669+320673094
3987+321536224+322484722+323122931+323114117+322190732+320764646+319675958
3977+319346797+319698210+320443490+321056787+321087392+320722627+320418030
3967+320161203+319734103+319280271+319161380+319614865+320589459+321735166
3957+322779956+323749984+324440673+324297825+323399582+322808017+323271097
3947+324320684+325395125+326730092+328263653+328882615+327898252+326245164
3937+325195288+325157430+325996978+327435491+328874378+329496432+329107681
3927+328502504+328567267+329142504+329197933+328386185+327534326+327355151
3917+327491410+327099336+326020994+324912625+324406283+324608433+325446912
3907+327148464+329911626+333176679+335826036+337192618+336978475+334806677
3897+331244859+328278478+327768755+329762767+332015685+332085679+330749787
3887+330739673+332694497+334369433+334261841+333565892+333019988+331748050
3878+330025604+329674104+331449580+334460494+337711704+340102038+339841772
3868+337068409+334527366+333858294+333756944+332459576+330483944+329491722
3858+330537234+334220602+340458104+345791670+344746735+338685634+332620862
3848+329125801+328625152+330382855+333238956+336426473+339710859+342485407
3838+343414832+342126364+340225004+339205240+338971070+338600439+337797852
3828+336958188+336270244+336144822+337854177+341695594+344727546+344352696
3818+342442492+341094376+339493162+336722342+334142748+333650249+335906260
3808+339401870+341119403+340562170+340460214+342093651+343277677+342338368
3798+340565436+339045832+337520247+336017810+335219674+335564585+336951801
3788+338914428+340776601+342096540+343271926+345202215+348130824+351321837
3778+354227038+357205671+360515113+364061586+368254041+373419414+378480085
3768+381977054+383645025+383929046+383782180+384664124+387000792+389269201
3758+390167588+390886310+393682069+399895065+409115044+418127036+423031537
3748+424399448+425952054+429851501+433999509+435601330+436395016+439953192
3738+447585338+456575482+462630515+465037581+465810517+465867131+465863634
3728+467418003+471119924+474802714+475858717+474423875+472215345+470062620
3718+468106582+467058209+468013180+470951529+473705645+473708795+471274043
3708+468504408+466660499+466262442+467132768+467985813+468060633+468759732
3698+471535551+475641251+479518619+483026424+486807211+490152632+490994926
3688+488929621+486134381+483984806+482455175+481901265+483291198+487092041
3678+492424971+496567430+496280057+492731475+490512542+491186759+491640475
3668+488855119+484316684+481015709+479942569+480049149+480403799+481271900
3658+482232420+481252971+478282111+477153311+481445959+490998683+500285362
3648+501926832+496405884+490012125+486321763+484902180+483928915+482745264
3638+481830376+481394779+481331577+482047235+484558974+489379234+494370172
3628+495599136+493520248+492049976+493132075+496550727+501048241+503882726
3618+502409043+497950427+494359768+493804731+495853448+499066223+502211893
3608+504224776+504756982+504808307+505528358+507099835+508949437+510495541
3598+511455801+511548105+510860768+510556922+512079155+515580690+519724363
3588+522674849+523520033+522856624+521617776+520131841+518622554+517775579
3578+518014864+518623999+518311426+516736944+515330192+516178902+519870881
3568+524040217+525017412+522436200+519193370+517191874+516319698+516193293
3558+516952936+518175832+518693878+518275880+518084626+519191000+521730252
3548+524891065+526811470+525896813+522822581+519513457+516902883+515129574
3538+514572168+515441222+517217132+519267121+521251393+522703054+522861306
3528+521518768+519515480+517562419+515327244+512518133+510279606+510085462
3518+511609949+513098890+513701379+514008808+514418135+514447612+513941184
3508+513623756+513684675+513023290+510939142+508618831+507725154+508391453
3498+509446444+509951601+510123204+510778752+512071641+513162641+513423890
3488+513465100+514020194+514330282+512883187+509668621+506637217+505496511
3478+505827290+506025307+505483506+504891247+504803799+505099090+505638810
3468+506484688+507365591+507486678+506114143+503404271+500766763+499941462
3458+501212619+502836693+502840045+501184125+499523523+499286203+500399802
3448+501334342+500519387+498185840+496069094+495132068+494571021+493432106
3438+492262038+492239439+493360494+494491895+494959194+495162239+495632832
3428+496289941+496825268+497159111+497165816+496508707+495048954+492982724
3418+490561150+488096979+486241019+485745688+486567695+487588123+487831512
3408+487805329+488655831+490318744+491790462+492688415+493288824+493560476
3398+493236285+492372721+491218895+489851156+488269623+486895700+486701324
3388+488250318+490420123+491114742+489923058+488637046+488699295+489717816
3378+490586986+490808296+490447981+489839655+489710360+490822341+493075953
3368+495399385+496756200+496974330+496723370+497067674+498719029+501141874
3358+502663934+502120630+500269062+499031602+499492543+501130025+502608389
3348+502945064+502365694+502112654+502944428+504059299+504275349+503788457
3338+503471780+503310292+503085225+503347745+504066640+503767649+501623391
3328+499050097+497970368+498679957+500098037+501246142+502068785+503037541
3318+504103457+504490763+503847122+502726934+501522822+499952097+497978286
3308+496258672+495398056+495450537+496084873+496701522+496670600+496111518
3298+496062563+497174948+498583954+499032584+498674697+498463618+498700707
3288+499447518+501019111+502877325+503601075+503108922+503164004+504614278
3278+505969243+505770359+504761722+504444409+505025571+505817580+506402499
3268+506551387+505829313+504210095+502659772+502277783+502996389+503872437
3258+504563762+505486974+506341059+505908786+503947113+501845452+500805373
3248+500550540+500173580+499415209+498541126+497624907+496700424+496078688
3238+495888763+495832468+496023491+497223614+499285163+500518404+499994116
3228+498976635+498668628+498470785+497557630+496300460+495239284+494320060
3218+493553829+493029367+492371797+491321544+490572479+491014636+492403643
3208+493442856+493029772+491187048+488979327+487675110+487828217+488860552
3198+489542340+489147809+488092471+487231277+486829752+486567406+486238707
3188+485862036+485269661+484367662+483750868+484167911+485305670+485788343
3178+484516059+481779138+478962715+477230963+476555359+476104013+475482248
3168+475063817+475076042+475116703+474787773+474168667+473389488+472367673
3158+471147320+469961502+468984278+468157647+467242498+466204499+465507192
3148+465634464+466201263+466111357+464941896+463498818+462668777+462488591
3138+462542055+462516219+462187462+461543069+460948412+460561192+459936393
3128+458810570+457715264+457209991+457069513+456763760+456257967+455880342
3118+455713363+455497718+455147634+455076166+455583144+456062002+455600801
3108+454455008+453903959+454417873+454935890+454304501+452683173+451091640
3098+450169036+449753177+449334862+448707838+448225685+448383589+449183864
3088+450104793+450660061+450760601+450502185+449926427+449125575+448303076
3078+447646748+447314871+447468209+447974869+448189445+447548867+446386919
3068+445565317+445285747+444935721+444144896+443236394+442514580+441773953
3058+440841581+440163751+440426965+441623447+442744964+442698148+441538136
3048+440392112+440103728+440546752+441293505+442145278+442813050+442802416
3038+441891862+440312582+438479192+436856506+435816137+435302253+434912201
3028+434506400+434325375+434401842+434386757+434072913+433645379+433397482
3018+433513570+433939167+434187527+433630843+432352056+431209558+430753183
3008+430651573+430359576+429796274+429160898+428573205+428148330+428105762
2998+428511361+429006230+429075964+428654210+428147984+427796715+427475645
2988+427134867+426842696+426436028+425753344+425119297+424942463+424983962
2978+424683180+424037053+423557732+423517158+423685177+423701390+423448869
2968+423071013+422715236+422333449+421768847+420987299+420095876+419215291
2958+418468479+418017162+417944451+418101605+418236044+418230842+418081375
2948+417732592+417100077+416285381+415620817+415347171+415324196+415183948
2938+414784938+414387720+414328563+414682838+415213252+415447537+414977522
2928+413964405+413106216+412789540+412615654+412112953+411461682+411037443
2918+410701000+410137380+409600810+409654880+410251474+410614360+410143073
2908+409066118+408043031+407422566+407067425+406756470+406584116+406846202
2898+407559144+408271421+408414674+407802590+406840856+406175222+405965010
2888+405721852+405123554+404589845+404614380+405029227+405365902+405457859
2878+405369572+405176150+405037261+405120779+405340904+405421706+405179387
2868+404582995+403762144+403139310+403250688+404130522+405079222+405296602
2858+404618050+403534939+402680479+402318142+402204626+401965688+401517202
2848+400991556+400454234+399919253+399500418+399356298+399505129+399723953
2838+399708521+399435511+399219288+399262116+399346617+399153369+398697138
2828+398249115+397975440+397847272+397782481+397620385+397075694+396102487
2818+395209331+394983744+395392118+395893951+396089569+395955911+395597157
2808+395034462+394285194+393574767+393225290+393199483+393096371+392784636
2798+392603207+392753280+392962972+392890840+392492321+391950058+391472817
2788+391135218+390854260+390568332+390303009+389983472+389427857+388649286
2778+387935997+387518462+387355009+387332092+387450405+387649578+387651659
2768+387242707+386626838+386255657+386341892+386703449+386986343+386922880
2758+386506762+386014407+385735906+385628546+385378019+384846911+384217575
2748+383669936+383239946+383009071+383102270+383433050+383740797+383882605
2738+383853330+383636153+383245350+382760567+382202467+381527094+380739766
2728+379922239+379249265+378946113+379011396+379115028+379028100+378927300
2718+379053213+379344690+379545423+379454044+379074338+378650215+378425062
2708+378325128+378093791+377721136+377476708+377517166+377667991+377613661
2698+377191647+376500611+375812898+375396635+375339068+375480645+375550263
2688+375385711+375011814+374580090+374300375+374330921+374588384+374714760
2678+374426086+373893475+373547177+373480622+373369968+373067740+372871602
2668+373015086+373273300+373286796+373012167+372655350+372299775+371819847
2658+371205509+370740956+370658738+370826613+370994603+371116702+371221173
2648+371210393+370985789+370600968+370166036+369713158+369258170+368925859
2638+368865084+369029087+369179853+369160925+369061454+369060587+369172484
2628+369208521+369053795+368880747+368874621+368879880+368630683+368177140
2618+367775645+367568727+367587367+367794169+367980800+367900142+367597539
2608+367401314+367509137+367704264+367597308+367160382+366831308+366980427
2598+367488965+367994816+368307186+368370996+368087697+367498935+366974763
2588+366881332+367132437+367323258+367239797+367013401+366840613+366764811
2578+366719121+366639649+366521191+366442007+366540380+366894481+367377270
2568+367684294+367567831+367041982+366367910+365866597+365692248+365727823
2558+365721552+365550151+365342858+365345661+365634421+365976442+366065510
2548+365879515+365664245+365594887+365618671+365631502+365653697+365732794
2538+365767906+365611822+365321530+365095019+364996733+364980289+365078171
2528+365322253+365623989+365911593+366195989+366411923+366430621+366284883
2518+366177841+366221969+366302020+366296876+366348923+366676148+367147522
2508+367395534+367354526+367256558+367111109+366707359+366160443+365946734
2498+366307569+366948465+367385766+367382154+367018401+366518937+366081317
2488+365817064+365797788+366042910+366380712+366481570+366236332+365982309
2478+366135359+366703805+367335598+367722644+367798417+367614214+367211851
2468+366693112+366281502+366145271+366206653+366271820+366281097+366311759
2458+366419235+366549801+366569395+366421345+366298668+366490992+366969446
2448+367345741+367346753+367116542+366977277+367100185+367435386+367758218
2438+367770472+367339268+366673605+366161252+366031120+366226160+366528676
2428+366724265+366730854+366673258+366770793+367104607+367585373+368121712
2418+368611639+368826764+368651173+368410212+368577856+369133210+369560079
2408+369538954+369321373+369317471+369578575+369834910+369912186+369953483
2398+370220367+370779334+371482739+372270240+373427939+375503648+379012003
2388+384304243+391665950+401364961+413568400+428351867+445789863+465840948
2378+488064786+511554058+535190658+558035191+579610936+599605610+617232520
2368+631773581+643685803+653334356+658829237+657713326+650769154+640935935
2358+629141101+614363125+596078760+574592429+551818467+532179137+520189176
2348+518202419+526184879+540914651+555755743+565269800+569706683+572191546
2338+574381002+576170899+577756537+580305556+584397846+588727572+590830389
2328+589271685+584888149+579381708+573440856+566955486+560023451+552834561
2318+545410894+537981216+530991036+524566297+518309230+511637172+504282458
2308+496580551+489104692+481931754+474599235+466838344+458998443+451704909
2298+445332275+439862854+435160098+431134362+427469461+423562847+419184629
2288+414886403+411361113+408725195+406680639+405017205+403700040+402695969
2278+401912311+401229280+400550526+399863420+399255325+398852500+398666303
2268+398478892+398011940+397261429+396515311+395993046+395615768+395179362
2258+394631059+394078883+393577194+393038486+392399092+391736695+391175994
2248+390811432+390702887+390770742+390769124+390565240+390333180+390306940
2238+390521863+390914371+391425856+391894022+392104870+392065221+392013260
2228+392110014+392285085+392362535+392177436+391639161+390852411+390093982
2218+389539639+389114879+388691160+388281313+387966861+387774480+387665819
2208+387552997+387359113+387159969+387176557+387513087+387990588+388326800
2198+388403701+388316628+388262644+388423034+388854990+389431816+389924864
2188+390191228+390296623+390439211+390737681+391112879+391422417+391708056
2178+392196914+392984647+393819456+394324237+394389289+394236470+394134572
2168+394145525+394140756+394029177+393927423+394052007+394463040+394996489
2158+395429195+395648106+395690270+395656025+395580135+395447142+395338481
2148+395421306+395777834+396371134+397088237+397691622+397942495+397920907
2138+397976278+398273390+398651131+398960351+399267202+399663381+400063980
2128+400306993+400427647+400678665+401176163+401721837+402132002+402497576
2118+402970482+403557047+404211468+404915711+405644750+406358558+406953938
2108+407249663+407210909+407130425+407384969+408055833+408881973+409517811
2098+409809057+409876767+409943120+410095678+410275575+410438393+410613724
2088+410812463+410985165+411149630+411476016+412067350+412687179+412954207
2078+412829507+412668395+412785581+413183811+413666802+414053357+414353503
2068+414793261+415512300+416252118+416603561+416567581+416561570+416854000
2058+417277257+417566855+417776490+418196163+418941847+419798938+420487113
2048+420936118+421254587+421577477+422015357+422630937+423375639+424101354
2038+424704565+425272318+426048375+427176106+428484774+429665708+430661168
2028+431683330+432847821+434045025+435192089+436345887+437549998+438802458
2018+440128523+441480194+442688524+443711900+444765013+446036113+447455725
2008+448887417+450380259+452080164+453956007+455752319+457258889+458538224
1998+459826808+461336730+463184135+465272242+467201722+468576367+469397391
1988+469925812+470374991+470919248+471687561+472675911+473902824+475508835
1978+477486952+479564106+481499452+483267732+484995987+486951764+489360912
1968+491996628+494279602+496031525+497720621+499771535+502109359+504512784
1958+506972968+509512797+512016617+514394785+516586437+518425058+519934517
1948+521663841+524264243+527755027+531389729+534189534+535763844+536741906
1938+538210039+540769289+544152799+547529374+550178673+552076710+553819154
1928+555938848+558487925+561194560+563661158+565586361+567175062+568983858
1918+571103090+572976909+574323378+575689555+577807688+580704653+583517001
1908+585346142+586287156+587179446+588499731+590013757+591290289+592110504
1898+592571735+593056373+593873352+594947763+596138466+597492968+598833888
1888+599726119+600165039+600561998+601043457+601461108+601878296+602470439
1878+603188351+603871700+604490199+605202447+606354829+608206512+610292914
1868+611378307+610741428+609033085+607376298+606386560+605967060+605544150
1858+604694169+603607273+602700187+602053078+601575375+601289389+601156164
1848+601192866+601716171+602599907+602587133+600806138+598238970+596245624
1838+595141677+594449427+593742727+593226531+593416572+594092869+594058075
1828+592676465+590634857+588477884+586003944+583281068+580945209+579431819
1818+578624551+578152050+577811503+577701339+577907448+578175401+578108644
1808+577590425+576858756+576431396+576872801+578131069+579254494+579435403
1798+579107629+579321945+580660379+582910119+584728221+584358081+582197524
1788+580646623+581083231+582704299+584092671+585038540+586008395+587013796
1778+588133637+590177673+593968025+599034448+603030388+603886149+602609097
1768+601253959+600458481+600386522+601514976+603556468+605272499+606391473
1758+607771811+609438020+610830438+612541902+615721095+619997416+623203774
1748+623858398+622782714+621732751+621942732+623694713+626236912+628279849
1738+629644293+631829414+635856970+639869557+640876865+639471269+637874130
1728+637008659+637160726+638314553+639920709+641800713+644924998+650175045
1718+656283628+659762044+658939574+655868463+652997277+651661328+652541306
1708+655559069+659284399+661656960+662704727+664857076+669424931+673875513
1698+675123493+673754310+671307362+669079413+668633846+670396462+673151994
1688+675943881+679796020+685532324+690107519+689963024+687327365+685820680
1678+686811342+690045560+693990754+697065332+699583198+702192790+703284194
1668+701233050+698291234+697714696+699836181+702139615+702279429+700986020
1658+700659922+703152241+709497566+718540277+724194161+723874653+723180207
1648+724931089+726650241+724854102+720814581+717989055+717919120+720860184
1638+726713357+734225975+739536480+739654908+737081787+735671741+737069418
1628+740999758+746415513+752484100+758083538+761842622+764353147+768129454
1618+774508764+781427043+785023714+785173989+784989324+786206151+788197994
1608+789572784+790145969+790862899+792025222+792757699+792523096+792230348
1598+792938030+794196934+794883751+795247244+796537821+798828598+800915346
1588+802200202+803050299+803592793+803833870+804496700+806550330+810237339
1578+814844844+818674788+819906874+819396341+819569563+820589124+820344984
1568+818305573+817052853+818058427+820362439+823784039+830497770+841336100
1558+849878279+850936276+849309718+848353561+847801645+847450983+847805460
1548+849302435+852241535+856447052+860903760+864728503+867024308+865077951
1538+858798516+853024470+850292808+849324861+848063703+846707697+847161067
1528+850443777+855586551+860506282+864020474+865985615+866583365+866692835
1518+867798515+870478158+873660704+876043438+877678146+879546013+882542159
1508+886985458+891451472+892978156+892067833+892242326+895294941+900004806
1498+903344101+903690660+902522441+901996014+902975290+905467378+908932615
1488+912456518+915512370+918251429+921148105+924546238+928381847+932504192
1478+936952867+941296407+944413062+945344655+944418611+943546377+944035871
1468+945023932+944377343+940997243+937387048+937053031+940193847+944768291
1458+948075160+947597862+943627989+938569485+934101794+931712472+932610021
1448+935907701+938148135+936374422+931615949+927663183+926808463+928062165
1438+929639248+931325166+933233780+934349807+934066422+932984901+932008457
1428+931710911+931997648+932090877+931607684+931518154+932859883+934636370
1418+934618395+932834625+931121022+930119783+929395282+928851573+929222060
1408+931491105+935597151+939340340+940158648+938812295+938375109+939671986
1398+940594736+939829313+938346614+937066903+936141842+935971337+937048465
1388+939228558+941503440+942834534+942849851+942158641+942674606+946167644
1378+952383906+958679639+961703991+960797483+958988571+959068968+961159416
1368+964609279+969406419+974910606+979014745+980521083+981017455+982641586
1358+985787430+989377511+992062125+992859510+991285201+988086529+985463875
1348+985405614+988168950+993098910+999359387+1004898426+1006519552+1003207595
1338+997955005+994800607+995064051+997620815+1001662648+1007339131+1014635122
1328+1022679715+1029981023+1035436023+1038723242+1040284720+1040685377
1320+1040069132+1038667062+1037386830+1037676746+1040535564+1045291437
1311+1049843281+1052859426+1054694289+1055743097+1056275534+1057685118
1302+1061376809+1066987865+1072310738+1073741823+1069618495+1063425180
1294+1059966647+1059678349+1059099789+1055754772+1050305205+1044333604
1285+1038556898+1033590178+1030833894+1030750665+1031359743+1029600017
1277+1024516544+1018706547+1015545444+1015996386+1018086603+1018479862
1268+1015706817+1012312903+1012305158+1016558763+1021046336+1020878952
1260+1015939628+1009388311+1003071423+997945988+994939554+992754895+988762075
1250+983469141+979816638+978088701+974970253+968100410+959052496+950768155
1240+944757425+940235809+935150370+928339539+920292517+912109786+904605722
1230+897937074+891600303+885242032+879327709+874531435+871000655+868731553
1220+867810537+867706732+867170306+865470921+863258404+861655716+860912546
1210+860559109+860285146+860139494+860241508+860476978+860696265+861452382
1200+863879331+868225182+873059371+876655348+879029180+881753906+885624829
1190+889376862+891512970+892504961+893528453+894606102+895806514+898424602
1180+903632110+911072307+918842417+924348395+926603857+927943331+931422903
1170+937236657+943724974+950293747+957288551+964190241+969215222+971039740
1160+970214497+968900569+969894410+973912314+978333997+981439382+985183207
1150+989996068+992338516+991029039+990120450+992654788+996411560+998346068
1140+998010607+995609667+991845035+989632748+991471774+996182101+1000870927
1130+1004554411+1007740829+1010789341+1014291337+1018329124+1020750178
1121+1019481275+1016450681+1015916162+1019952909+1027122090+1034294623
1113+1038691568+1038649954+1034747184+1029813871+1026413714+1024843220
1104+1023721124+1022589087+1021948914+1021499590+1020955246+1021133612
1095+1022783636+1026181828+1031940962+1038862998+1043403167+1044321004
1087+1043579105+1043687188+1045597074+1047151616+1045128677+1040702832
1078+1037592130+1035322508+1030805920+1025246767+1023206835+1025368837
1070+1027529568+1025140072+1017746171+1008197782+999388980+993993512+994327008
1060+1000211911+1007247463+1010042471+1007067248+1000740650+994922099+992648084
1050+993850866+996063383+997817445+998990056+999549890+999741896+999666180
1040+998306765+994847423+991411085+992129980+998037194+1003615882+1001427987
1030+992143621+984825782+985733909+991227634+992401516+986616951+980798168
1020+981713693+988907611+997288244+1002896525+1004519732+1002013830+997241196
1010+994259499+994822570+995327611+990575322+980345723+969540916+962213021
1000+958190955+954796752+950176648+944269376+937978555+932821678+930047997
990+929266680+928742103+926905506+923005568+916953165+909290040+901436527
980+895061668+890966025+889019726+888642650+888866618+888220954+885308789
970+880120470+874697258+871819887+872199160+873322989+872335332+869887634
960+869113137+871062730+873212594+872903836+870585143+868271305+866840683
950+866468519+867644483+870294765+873631921+877478800+881999202+886554688
940+890882449+896279188+903579224+911145364+916140463+917501497+917245046
930+918612553+923017648+929108429+934835312+939276011+942189563+943753584
920+945632201+949588955+954100919+955271565+951910942+947071089+944111124
910+943821382+944641655+943610418+938788193+932563262+929679765+931300197
900+933747086+933752519+932471363+933031139+936764445+942653279+948726836
890+953399652+956686293+959697524+962195854+962829150+962481782+964414730
880+969252907+972365632+969724714+963637285+959187281+958993021+962353355
870+966418018+969197189+971908101+976227366+980064361+979258538+973630490
860+967572654+965334705+968412578+974421748+978628537+980269661+982664474
850+985882219+986674864+985201933+984176939+984420616+985069113+985578778
840+985640044+983843674+980199031+978269147+982552577+993391485+1004312698
830+1006751554+999618670+989898505+984203989+984899533+992313547+1004508750
820+1015141897+1018832200+1017781428+1016523044+1016022627+1015470075
811+1015942171+1018931729+1023502647+1026470010+1024893157+1020489045
803+1019548668+1024012428+1026583294+1018950109+1003942096+991992536+987643101
793+989498194+995495689+1003538433+1010192631+1012919438+1012316371+1011549966
783+1011831212+1009753018+1004212707+999125420+996482652+993409171+987365785
773+979650063+972618673+968133586+967214015+968788845+970477016+971010494
763+971079390+972156518+976749862+987402198+1001311234+1008689645+1003680501
753+993525346+987888050+988503833+991267399+993036835+995239989+999479029
743+1004131559+1007187700+1007744759+1004917268+999070396+993951319+994547104
733+1002792142+1014621366+1020851209+1015420253+1003710094+996926427+1001333313
723+1014062341+1025434496+1028063161+1023287522+1016476112+1010895343
714+1006013470+1000642624+995894612+992166162+988782651+986123931+984532976
704+982262776+978131125+974970831+974884365+976679464+980137649+985834824
694+991543097+992325916+986664461+980109213+978603106+981745482+983518732
684+980105514+973764235+967020333+961006424+959294266+965603871+976300307
674+980145741+968937675+947235063+926781818+917235278+923721804+939650774
664+954920036+965268584+971301451+972991125+965160038+949257713+936882700
654+935177536+941744979+952175601+962859668+969783553+970980092+969286025
644+968163410+967981172+969821815+974870262+979190452+978492017+975575170
634+970653301+963037628+960077490+962910414+965617916+964915610+961573425
624+957499745+953301106+949699061+947840211+948917628+950654177+948292193
614+941191503+934417893+934896174+943059601+943847275+920865067+888810323
604+874325673+885683957+911551859+933883664
##END=
