##TITLE=<SNM>
##JCAMP-DX=4.24
##DATA TYPE=INFRARED SPECTRUM
##DATE=29/4/2025
##SAMPLING PROCEDURE=Instrument type and / or accessory
##ORIGIN=Admin
##XUNITS=1/CM
##YUNITS=ABSORBANCE
##RESOLUTION=4
##FIRSTX=4497.3318
##LASTX=599.83466
##DELTAX=-1.4281778
##MAXY=2.1924706
##MINY=0.65677667
##XFACTOR=1
##YFACTOR=2.0418973e-09
##NPOINTS=2730
##FIRSTY=0.66864699
##XYDATA=(X++(Y..Y))
4497+327463573+326603932+325540511+324898605+324800962+325172473+325749138
4487+326074236+326229735+327204066+329573339+332190908+333279580+332620247
4477+331590366+331214738+331218591+331175418+331520804+332650868+333777633
4467+333718434+332517874+331164355+329939508+328338246+326642260+326178943
4457+327679643+330270123+332491428+333656958+333631884+332351954+330396782
4447+329092945+329241527+330110129+330491302+330362279+330590726+331353686
4437+331878245+331783054+331597109+331830139+332167585+331721111+330104903
4427+328228109+327503009+328119315+328781976+328282638+326731759+325266964
4417+325028095+326119452+327406417+327915300+328126175+329096011+330890399
4407+332556786+333188971+332530018+330994202+329568114+329074789+329120472
4397+328609896+327401484+326387570+326172930+326657030+327420224+327837303
4387+327709564+327970238+329397756+330950474+331012008+329619752+327955175
4377+326731438+326171354+326551798+327968457+329920447+331428590+331657534
4367+330711926+329617504+329136907+328806642+327604214+325631061+324406506
4357+325035568+326644099+327380029+326777355+326059349+326164319+326680120
4347+326832350+326556702+326308083+326466969+327128900+327983257+328394760
4337+328071033+327497930+327269658+327289128+327070372+326522023+325952919
4327+325535782+325181931+324876595+324872071+325421675+326381849+327201906
4317+327295288+326429342+325049054+324234806+324815557+326348834+327379503
4307+327088792+326227254+325980475+326725892+328180703+329871990+331131194
4297+331340988+330361491+328447974+326133406+324326699+323891668+324799006
4287+326050942+326658402+326522811+326237967+326129990+325786794+324930394
4277+324334668+324943559+326363167+327288836+327137511+326409784+325829967
4267+325821823+326424496+327217377+327711870+327927736+328100954+328127664
4257+327953570+327991051+328486214+328864381+328333780+326942925+325536745
4247+324845303+324956374+325467592+325900959+326052927+326009140+325954086
4237+326113118+326691943+327583722+328199123+327884504+326692672+325532162
4227+325222039+325576182+325733550+325373948+325249654+326235953+328108836
4217+329627780+329814134+328823427+327596216+327039401+327417714+328039945
4207+327785226+326595992+325847890+326472574+327652408+328207150+328111579
4197+327745497+327076561+326380126+326338208+326873831+327075948+326542807
4187+325834988+325588968+325899237+326438975+326835386+326988930+326976991
4177+326645588+325725522+324574645+324284810+325564623+327738433+329257728
4167+329182474+327885000+326430743+325684130+325837352+326416936+326868985
4157+327129571+327334462+327349670+327107357+327011757+327495040+328427716
4147+329297953+329762145+329812879+329577922+329224217+329073417+329388590
4137+329756278+329221589+327532667+325718312+325025614+325629163+326590972
4127+326987266+326903985+327107912+327881468+328720733+329188691+329378140
4117+329464194+329501471+329605653+329721862+329396647+328324731+326900044
4107+325800105+325314632+325426462+326194268+327525428+328718048+328913918
4097+328138756+327329558+327194521+327517313+327672696+327370220+326777676
4087+326312900+326418979+327270680+328544479+329435091+329141694+327716511
4077+326114344+324960490+323859354+322482248+321650193+322521480+325007866
4067+327533105+328413704+327387034+325742307+325054572+325934499+327719167
4057+329035002+328969118+327954708+327243561+327546475+328444851+328997754
4047+328728994+328101129+327972339+328538495+329212715+329567355+329730882
4037+329813404+329670690+329289312+328915232+328812393+329096915+329608338
4027+329810426+329169455+327859429+326788827+326707268+327521575+328447128
4017+328691221+328096488+327267965+327015786+327613497+328559658+329048867
4007+328825616+328471181+328617923+329166536+329562567+329451642+328737810
3997+327537513+326405698+326005608+326371924+326904101+327090981+326969080
3987+326871233+326992666+327362397+327928174+328335590+327938361+326637035
3977+325553267+325961209+327674184+329378607+330304423+330563929+330257134
3967+329488072+328883822+328948217+329162274+328640488+327423114+326337245
3957+325976417+326304259+326951799+327670652+328565380+329822190+331164005
3947+331947398+331922469+331436092+330927442+330648290+330669220+330848715
3937+330881817+330550501+329957928+329444053+329210293+329140672+329109059
3927+329179642+329293048+329121056+328607298+328401473+329336601+331428211
3917+333416601+333658651+331835598+329382022+328091701+328573145+330042114
3907+331566925+333064297+334769858+336506799+338042557+339209723+339314313
3897+337703973+335148784+333445675+333551375+334427450+334247255+333291431
3887+333406443+334608433+334895233+334074008+334317868+335964580+336692861
3878+335584807+334436791+334870888+337029490+340258695+342959137+342775322
3868+339675258+336659029+335959763+336726343+336644492+335194643+333761812
3858+333774568+336363764+342188091+348487351+349574330+345566168+340692266
3848+337620487+336884295+337604169+338665110+339774069+341180774+342654968
3838+343341332+342696886+341181650+339728327+338853770+338496095+338494577
3828+338736744+338995112+339443103+340840993+342924108+343439005+341513695
3818+339561735+339419634+339961357+339331069+337783722+336849178+337499199
3808+339265127+340775109+341857767+343668649+346020728+346780127+345484638
3798+344070314+343400181+342547254+341093464+340006690+339963838+340565461
3788+341501143+343187029+345734015+348527927+351247810+354068139+356807551
3778+359088200+361132374+363523511+366906492+371809206+377563066+382070390
3768+384361110+385708938+387036916+388108306+389216798+391057804+393134409
3758+394342296+395262420+397982887+403736717+411062181+416215177+417806339
3748+419099259+423173450+429515300+434375191+435942038+437002598+440478670
3738+447047186+454972288+460778779+462506320+461889723+461716709+463236062
3728+466235243+469696339+472210923+472982495+472573940+471875959+470867971
3718+469227768+467556506+467239553+468935568+471091864+471166242+469395061
3708+468520008+470072959+473206826+475837794+476337716+474938192+473386875
3698+473092457+474217704+476535309+480184423+485028785+489730491+492244462
3688+491818568+489525776+486475598+483615570+482164115+482624367+484544013
3678+487844823+492314754+495599888+496008559+495422641+495046547+493209219
3668+489412632+486156163+485312724+486076180+486072648+484224374+482391512
3658+483223450+486417100+488759313+488949374+489113893+491365293+494370779
3648+494031290+489378012+483443578+479398402+478674324+480403822+482243777
3638+482875583+483216561+484534351+486746956+489472094+492884792+495781046
3628+495313935+491770754+488167673+486154470+486298819+488954920+492943874
3618+495231033+494678626+493633887+494658718+498048705+502246169+505263040
3608+505599435+503627011+501964244+503102452+506801045+509786390+509291022
3598+506640671+505046269+505318386+505815855+505989015+507651549+512059712
3588+516876255+517999926+515268133+511979029+510242175+510136446+511120585
3578+512739333+514315929+515066891+515087675+515520166+517173301+519217825
3568+519776187+518291367+516271771+515176999+515241044+516088862+517482548
3558+519308784+520851752+520926539+519321920+517458962+517164952+519078176
3548+522004030+523536081+522151210+518826843+515456063+512825504+511166065
3538+511058759+512615155+514493525+514853623+513257236+511137633+510317021
3528+511252586+513066912+514977451+516426775+516373297+514186905+510865399
3518+508131855+506671788+505888424+505108037+504518791+504523753+504748114
3508+504513887+503835375+503263235+503203628+503780672+504771350+505409227
3498+504994484+503941046+503379065+503647679+504067559+504169552+504290052
3488+504824068+505543213+505824671+505393639+504773276+504623352+504422052
3478+502852112+500128609+498418144+499001435+500433420+500411235+498497368
3468+496198708+495004746+494985188+495130441+494775014+494378661+494797199
3458+496153988+497410536+496985167+494191431+489907738+485733977+483110219
3448+482973956+485198442+488239103+490240805+490586599+489981123+489349726
3438+488913936+488480920+488226347+488389786+488474352+487766124+486446524
3428+485093472+483709360+482503312+482537291+484171655+486055601+486903302
3418+486858232+486412488+485628014+484584559+483437243+482323088+481748555
3408+482235983+483340184+483892941+483108555+481084113+478826467+477992573
3398+479404503+481559486+482085446+480571844+478663202+477928878+478721175
3388+480435581+482028524+482627578+482106259+481160769+480821834+481676775
3378+483382686+484972680+485676763+485609478+485732429+486875980+488763720
3368+490477542+491728602+492908612+494163116+495112985+495313935+494773087
3358+494087453+493899173+494440020+495646126+497239186+498775031+500085290
3348+501183624+501405065+500020311+498051449+497414973+498219413+498757108
3338+498184910+497605530+498089047+499140909+499636861+499152235+497857505
3328+496050828+494288111+493177225+492840597+492992389+493314773+493429317
3318+492939204+491767251+490147628+488584897+488094784+489519033+492045965
3308+493448642+492411667+489885786+487853200+487511580+488554948+489658857
3298+489930623+489921749+490697349+492417389+494585857+496844117+498688218
3288+499397730+498924313+498126411+497768123+497899657+498306752+498952044
3278+499785675+500368499+500127792+499237297+498585466+498402148+497900241
3268+496680473+495340673+494445099+494214550+495143168+497473471+500225172
3258+501839191+501581903+499929878+498150931+497430444+497714179+497736947
3248+496734009+495415694+494715465+494518485+494185009+493609658+493259076
3238+493494530+494114367+494487192+494115010+493140095+492288190+492172536
3228+492545478+492337231+490806289+488739901+487894009+488892598+490261589
3218+490266259+489162438+488452721+488585452+488683241+488095864+487132800
3208+486402563+486158761+486165096+485799831+484597345+482930024+481742162
3198+481466922+481504432+480887105+479292907+477334320+476007276+475752178
3188+476026892+475959228+475277885+474334759+473536070+472987808+472422995
3178+471552408+470615266+470213308+470465955+470697526+470053284+468343753
3168+466394537+465371603+465585046+466289012+466652613+466357377+465408208
3158+464136423+463201996+462994741+463274944+463580805+463502165+462584435
3148+460635248+458213578+456388743+455864009+456383752+456969786+456835188
3138+456103666+455513749+455447777+455466430+454947651+453984179+453251198
3128+453084285+453195093+453178016+452818677+452019112+450851333+449724013
3118+449276898+449912878+451217094+451997306+451403186+449865355+448440668
3108+447645423+447337664+447204145+447002525+446754169+446886900+447643000
3098+448292583+447687721+445803570+443993360+443437480+443951063+444574112
3088+444850286+445009580+445072282+444502769+442995502+441093837+439720029
3078+439282284+439445577+439752081+440147762+440682451+441025764+440753589
3068+439995620+439323356+439007161+438788346+438360467+437738557+437056280
3058+436246235+435253660+434454474+434391976+435032890+435658770+435646685
3048+435141917+434757766+434856840+435376407+435977826+436086736+435207830
3038+433540860+431901270+430821823+430203357+429877325+429764969+429465910
3028+428605102+427603798+427187362+427231761+427015691+426477821+426275062
3018+426659534+427174431+427430960+427321640+426641582+425386143+424136426
3008+423502547+423587463+424300361+425508715+426641669+426959090+426435524
2998+425777271+425599761+425930902+426271646+425931398+424587541+422583153
2988+420548379+418933805+417983499+417756628+417970479+418204327+418357433
2978+418641022+419207469+419892344+420132205+419357247+417830072+416603736
2968+416261007+416320498+416093393+415410416+414469859+413700360+413564593
2958+413898011+413878453+413116427+412258567+412193004+413130642+414562539
2948+415678417+415774980+414693635+413088666+411980028+411787194+412008898
2938+411983327+411572145+410929422+410183042+409607486+409557687+409950595
2928+410219735+409968343+409286008+408379195+407360056+406486142+406090986
2918+406054672+405851825+405378380+405200141+405774499+406896740+407948047
2908+408363403+407987776+407114153+406092095+405070708+404236552+403966770
2898+404448039+405291595+405780250+405535806+404852157+404290993+404041995
2888+403853393+403491982+402998803+402538405+402272506+402346009+402739034
2878+403127038+403105203+402613542+401995077+401607335+401525017+401600738
2868+401615421+401336444+400623926+399614157+398711314+398245458+398184887
2858+398322902+398579897+398865588+398883920+398471132+397921236+397617914
2848+397594795+397712638+397937524+398204416+398269132+397915748+397239368
2838+396578809+396182748+396065050+396148449+396343823+396430870+396129912
2828+395417306+394617303+394170829+394340486+394937730+395303754+394858623
2818+393755824+392781288+392561569+392918631+393057696+392476711+391548619
2808+391004531+391051265+391278516+391294834+391144121+391078822+391154601
2798+391158279+390856475+390230011+389468948+388791137+388338563+388223902
2788+388454538+388693990+388409468+387527993+386666659+386407737+386628361
2778+386831033+386814598+386703673+386569600+386355631+386037977+385611995
2768+385060230+384505021+384185615+384146091+384146529+383953140+383544556
2758+383039467+382594920+382368487+382460380+382829965+383235308+383284933
2748+382685061+381558179+380450505+379904374+380026450+380467260+380752133
2738+380621942+380167879+379701264+379406991+379182660+378965393+378949892
2728+379176968+379293673+379132948+379067590+379328964+379442108+378807500
2718+377535247+376359033+375885382+376066949+376326602+376162899+375603312
2708+375031230+374711299+374617742+374608985+374621362+374694047+374850276
2698+374977227+374895084+374602154+374336518+374274487+374285988+374141348
2688+373841996+373569558+373405885+373272688+373129711+373102126+373285940
2678+373443542+373131725+372275938+371354267+370829563+370700189+370738108
2668+370810589+370838437+370726898+370426992+369959647+369444517+369108793
2658+369072976+369172254+369207487+369233701+369378867+369563236+369568519
2648+369228972+368560940+367897725+367748180+368280154+369095541+369664324
2638+369764623+369421193+368739559+367954676+367414091+367329788+367571751
2628+367764790+367660258+367383821+367194664+367106595+366961838+366764800
2618+366674163+366730326+366797552+366717044+366422947+366003241+365663431
2608+365546171+365635787+365869547+366233702+366722036+367245281+367581763
2598+367467073+366868690+366140613+365722133+365677501+365723914+365749223
2588+366001635+366547241+366913498+366730793+366376883+366383918+366565923
2578+366414977+366038212+366003971+366508563+367239735+367795353+367854435
2568+367251090+366244270+365453111+365258233+365477427+365716120+365760986
2558+365571859+365195969+364799207+364585969+364611306+364746781+364840600
2548+364872739+364937163+365083059+365254905+365405063+365516601+365501334
2538+365289701+365019715+364922831+365035682+365165202+365136303+365012330
2528+365007075+365153292+365235318+365167362+365153088+365304296+365442836
2518+365434546+365384717+365395722+365445872+365557848+365804218+366116093
2508+366278627+366139883+365762037+365421614+365437698+365843888+366281283
2498+366407592+366280612+366141372+366057390+365988237+365949647+365951369
2488+365959834+365941824+365822608+365534524+365200698+365055678+365144798
2478+365321081+365481776+365570954+365454249+365055707+364569680+364324652
2468+364443897+364777373+365132683+365425321+365617951+365664773+365589286
2458+365562898+365782792+366182794+366355195+365953763+365156795+364533367
2448+364453442+364771768+365100661+365261940+365363145+365509099+365651287
2438+365739356+365804773+365858863+365869109+365818959+365712121+365596584
2428+365585696+365719827+365851069+365815953+365679515+365679048+365921769
2418+366248123+366466207+366629559+366942777+367465526+368044292+368449081
2408+368523955+368358998+368282460+368482271+368732582+368706485+368443535
2398+368301842+368542492+369164052+370144834+371669295+374005873+377365999
2388+382128626+388997458+398595923+411013929+426014767+443549631+463705859
2378+486059688+509334224+532088113+553877305+575223262+596009749+614634189
2368+629423715+639741617+645421449+647011939+646032412+643228109+637470163
2358+627319641+612546404+593702449+571688839+549088026+530404037+519425255
2348+517628385+524565757+537827203+552905951+565267560+572931200+576432229
2338+577322491+576956963+576570827+577812780+581482065+586063505+588723488
2328+587884253+584047996+578442834+572059095+565663504+559624859+553516740
2318+546520869+538426256+530032263+522528939+516299561+510312875+503112377
2308+494408144+485208484+476546985+468656767+461277358+454290741+447903353
2298+442322624+437446445+432951001+428575356+424253218+420074145+416203939
2288+412793897+409891601+407401799+405175416+403185157+401536577+400288173
2278+399388249+398769579+398338723+397925498+397423883+396910241+396496724
2268+396169816+395847988+395483686+395036512+394448784+393752846+393122704
2258+392675034+392288372+391775665+391147975+390575572+390214452+390132455
2248+390241804+390300273+390134761+389850005+389746932+390069870+390780521
2238+391486471+391697258+391284500+390623036+390199711+390156713+390262179
2228+390236988+389995638+389596600+389112528+388611468+388182217+387888061
2218+387684134+387415287+386959618+386376561+385832211+385405324+385084138
2208+384921107+385022545+385355612+385695277+385850951+385898678+386082142
2198+386475109+386858852+386986707+386884802+386823151+387027341+387489577
2188+388056375+388612110+389127678+389600949+390034812+390440915+390813711
2178+391129030+391405934+391730740+392152314+392575639+392853273+392971350
2168+393019252+393010027+392908093+392804378+392883660+393201636+393607622
2158+393921423+394127744+394325366+394525614+394637561+394640655+394622732
2148+394643195+394667248+394637678+394587295+394667132+394980378+395409658
2138+395746637+395954972+396169554+396525419+397092421+397829694+398535177
2128+398984862+399170982+399323592+399695570+400364303+401222075+402081394
2118+402744609+403079691+403177918+403362491+403862326+404545945+405134257
2108+405577403+406033743+406547501+406977423+407253802+407482220+407730225
2098+407918272+407961154+407841822+407613987+407474660+407640201+408026191
2088+408331030+408496980+408742592+409166588+409671502+410186603+410649744
2078+410923963+411005610+411133319+411483055+411947947+412353700+412680900
2068+412963554+413165263+413268219+413361016+413571482+413951167+414434042
2058+414926140+415426588+415962823+416434138+416698548+416821266+417067987
2048+417634522+418476415+419395984+420260937+421108083+421982144+422791021
2038+423510137+424379760+425602009+426945954+427957533+428540415+429081408
2028+429960344+431122255+432244846+433195416+434123771+435148106+436191853
2018+437186588+438242828+439515256+441009563+442629653+444346715+446197208
2008+448118956+449913549+451470091+452943964+454555589+456245124+457697309
1998+458751564+459690458+461068469+463241316+465942079+468292728+469516407
1988+469749145+469918160+470781537+472262503+473773566+474990152+476081012
1978+477308515+478737114+480353993+482182155+484209340+486421158+488846622
1968+491322791+493420794+494996689+496560207+498649627+501100371+503363827
1958+505346701+507435245+509840510+512385890+514832314+517060449+519047818
1948+520982118+523304306+526315105+529693591+532662063+534832108+536605450
1938+538526089+540706234+543021358+545361001+547554341+549503645+551455401
1928+553802634+556647571+559729888+562713306+565526424+568393079+571340184
1918+573873654+575594103+576877973+578327238+579956670+581374935+582419907
1908+583322371+584374699+585681222+587182914+588710644+590017109+590970013
1898+591753962+592666875+593752540+594917779+596256645+597799438+599118337
1888+599732921+599774430+599718851+599749268+599793112+599940117+600500406
1878+601641299+603066745+604207055+604871321+605518949+606620844+607869977
1868+608296922+607396093+605777813+604455702+603891561+603722254+603288829
1858+602408025+601522493+601114989+601174013+601297432+601106173+600493867
1848+599787566+599639627+600128281+599953720+597862198+594602110+591748182
1838+589912430+588818534+588237637+588350371+589245303+590280176+590265873
1828+588851694+586975834+585345002+583684629+581681146+579625704+577892412
1818+576520327+575395839+574484326+573846040+573499370+573275885+572985553
1808+572705905+572662352+573022567+573941202+575341835+576526224+576640652
1798+575810582+575253796+576194441+578704209+581055412+581122084+579254339
1788+577556601+577200415+578081393+579688581+581417086+582573918+582970796
1778+583418583+585098281+588627509+593594501+598304906+600845675+601073596
1768+600026639+598593195+597752266+598443679+600617461+603111465+604999411
1758+606217426+606779525+606996996+608081552+611121658+615512657+619010768
1748+620249568+620112779+619991696+620531901+621878181+623773658+625423873
1738+626594074+628570234+632521619+636886346+638490090+637434725+635715211
1728+634207973+633441539+633961544+635547597+637684482+640803695+645739920
1718+651591044+655065918+654433645+651853353+649733691+648861002+649360866
1708+651457992+654914943+658383279+660893806+663343207+666772077+670152081
1698+671833005+671712856+669943017+667373233+666168586+667571497+670788208
1688+674396834+678315759+682797484+685709267+684999989+682775941+681699033
1678+682545217+684931624+687774167+690022560+691875535+694050017+696019171
1668+696568834+696259353+696864070+698841047+700586774+700454715+699428366
1658+699998463+703675863+710387765+717753016+720914556+719998841+719857674
1648+721754960+723276911+722188210+719968891+718776972+718967996+720529705
1638+723931544+728820830+732626436+733476415+733414297+734806115+737873777
1628+741696022+745826698+750586785+755645028+759667522+762417238+765603708
1618+770770774+777131686+782034808+785000945+788086297+792310091+796291076
1608+797978013+797417258+796467856+796211269+796355705+796690231+797559884
1598+798900443+800144906+801265950+802753806+804364788+805253298+805743821
1588+807425620+810828277+814249907+815806420+815743134+815816695+817283008
1578+820141256+823236066+824915822+825177897+825987825+829067281+834338325
1568+839492839+842175883+842470944+842557174+845220193+852426062+862977257
1558+869613672+868272004+864279868+861767123+861789191+863763541+865827273
1548+866739369+867462951+869423173+872408926+875521017+878001594+877303642
1538+872235182+866862905+864764260+865645473+866398946+865422572+864659991
1528+865860551+868230494+870461490+873528744+878783149+883879281+884858691
1518+882533701+880845947+881857409+884965880+888802370+892907124+898317058
1508+905940005+912143754+910867123+904826901+900263560+899264592+902025400
1498+908319407+915364318+918457552+917705304+917575405+919508538+920801165
1488+920222136+920429917+922515775+924162313+924466539+926027255+930878068
1478+937051633+940805105+940929925+939110928+937282065+936396766+936985604
1468+939423912+943055308+945424960+944176060+940577708+937875106+937257954
1458+937183284+935837120+934060801+933080048+932052356+930584000+929991076
1448+930883906+931265955+929153008+925744513+923634484+923993123+926626951
1438+930735675+934488796+935608556+933909884+930795983+927408565+924945969
1428+924678406+926898076+930598770+934080767+936108887+936686573+936124416
1418+934214987+931479048+929793979+930513708+932644813+933157695+930364076
1408+926324768+923905609+923444627+923615043+924000070+925319495+928131621
1398+931965426+935195448+936312230+935594194+934495277+933487493+931907978
1388+929126386+925459903+922902145+924295014+930393617+938013587+942753183
1378+943858581+944113708+945798018+949213052+953783049+958473546+962123740
1368+964602040+966856038+969281036+971073410+971567377+971606609+973019328
1358+976851557+982460630+987495461+989286143+987520799+984790290+983718520
1348+984870507+987721982+991962940+997113017+1001497945+1002498022+999627631
1338+996460661+997478720+1004237094+1014636263+1024792448+1031767768+1035111400
1328+1035831479+1034739743+1032305696+1029774152+1029703510+1033784269
1320+1040320092+1045489435+1047491692+1047905384+1049113767+1052153815
1311+1056751602+1061514959+1063925303+1062767128+1060232898+1059298559
1302+1060207327+1061688469+1063431628+1066153846+1069649388+1071822235
1294+1071216000+1069652307+1069812272+1071699167+1073468013+1073741823
1285+1071600852+1065848977+1056320512+1045752269+1038142808+1034901810
1277+1033717481+1031603132+1028425186+1025601500+1023237628+1021400358
1268+1020748002+1021065014+1020993438+1019384557+1016913847+1015135543
1260+1014684953+1014579866+1012975306+1009451624+1005577886+1002197123
1251+998004388+992440152+987588055+985065968+983320591+979249815+972320734
1241+964260449+955039830+943006851+928786780+915702348+906156368+899954079
1231+895554673+891365441+886671908+882213420+878878953+876012590+872282413
1221+867617487+863053270+859382175+856769422+855088790+854220714+854255801
1211+855156746+856351643+857553079+859501332+863027932+867728471+871990738
1201+874520648+875677713+876969465+879287449+882069334+884316793+886087741
1191+888747725+893730831+900857768+907654907+911056630+910567567+908732749
1181+908296930+910103783+913604754+918021966+922521964+926161591+928764244
1171+931780765+937341089+946483010+958005792+968585652+974775214+975867009
1161+974332681+973225474+973869715+976136031+979581832+983418906+986425910
1151+987740548+988177125+989815080+993279796+996402630+996764712+995009060
1141+994603425+997643823+1001757509+1003805187+1004232073+1005329648+1008478286
1131+1012642180+1014412311+1012771670+1013069183+1020678411+1031498512
1123+1034830818+1028551874+1021951247+1022170646+1027823271+1033941666
1114+1037912901+1039460481+1038443824+1035421057+1032578689+1031541597
1105+1031410122+1030862969+1029809298+1028054696+1025597647+1023719510
1097+1023960626+1026657040+1031551172+1036055898+1034512872+1026981992
1088+1021412618+1022612828+1026916021+1029061196+1029709699+1030876397
1080+1030238753+1025625437+1019666424+1016186529+1015948682+1017983749
1071+1021489799+1025445855+1027804356+1024719704+1014826353+1002651916
1063+993656008+990425752+993599728+1001833405+1010150335+1012947049+1011089462
1053+1010334238+1012434575+1013525611+1010403712+1004794171+1001160148
1044+1001922613+1004592755+1005837801+1007146601+1010871932+1013236505
1035+1008211598+997454433+989655932+989421938+993657292+997288162+997895681
1025+995254263+990531189+986620554+985124467+983551666+979776243+976705544
1015+978944947+986436652+992859682+992691426+988312220+985280462+984439534
1005+982493907+977741935+971007264+963084702+955111523+948784822+944485307
995+940754605+936191497+930577461+924840357+920118626+916501650+913316115
985+910556416+908703149+907166428+904771731+901692158+898784519+895740793
975+891760684+886953891+882192753+877979643+874184662+871069768+869538009
965+870213894+872152105+872552953+869226660+863732540+859806201+858815231
955+858939000+858705123+859376045+862681146+867819138+871841398+872770483
945+872100554+873597985+879325222+887351353+894052280+898423020+902714420
935+908636127+915072818+920182320+923900763+927433377+931466730+936044959
925+940970500+945229206+947186042+946491767+944463531+942369557+940952285
915+940857298+942292610+944445083+945843089+945136204+942047816+937937516
905+934615076+932801976+932548191+934184920+937473265+940495157+941253651
895+940516466+941118205+944783638+950649648+956743464+962138569+966390620
885+968167756+966290145+961753601+957231885+954829364+955051623+956653965
875+957261017+955940542+954756796+956383483+961141761+967339613+973163706
865+977165008+978873371+979666368+981703187+985615106+989859684+991904208
855+989901485+985930016+985152140+988975669+992951575+993655657+994140809
845+998309140+1003804252+1005211717+1002392585+1000188328+1000664138+999506431
835+991995984+980767563+973209419+973317425+978621746+983477171+986159923
825+989364374+994670914+1000989441+1007469918+1014642802+1020198164+1019753646
815+1014996361+1012254059+1013354086+1014902717+1016285661+1021888896
807+1031885699+1038661937+1037093457+1032048350+1030707207+1033989889
798+1038352281+1040527114+1038988875+1034044885+1026668483+1017717645
790+1009914474+1007816355+1013296521+1022568341+1028906601+1027773647
781+1018777038+1005755600+993721629+984517531+976815360+970197452+967543307
771+970985779+978029756+984633127+988974385+990232859+988521810+986840420
761+988675237+993844347+999395856+1002360592+1000475799+995684185+993127070
751+993810719+993659861+989563689+984373329+983151868+987152528+992889107
741+994092118+988197792+982151674+984257733+993348570+1001212458+1003462019
731+1003264689+1003079036+1000648725+995651258+991315138+990798110+994477087
721+1000392780+1006859830+1011126593+1012824915+1017052562+1024109032
713+1026402379+1020988418+1015884696+1019714063+1029890098+1032798320
704+1020713790+1002613034+990793206+987563184+987141318+986886191+989144859
694+994064445+998523050+1000382622+998997810+992940482+983203127+974226835
684+969308008+968053445+968645727+971013744+975040325+977729324+977472854
674+978113125+983435720+990961579+993031791+987044405+983394853+985824346
664+983711048+971194844+954440893+943894485+943553712+950152996+959218437
654+967956824+973338033+972679314+965637438+956581047+951935387+951208127
644+951880508+954596947+958128043+957726377+948945138+933202649+919528329
634+917909407+929196502+942818629+946466254+940126302+933739935+930133644
624+925222114+920079452+914595957+907617718+900705158+894769381+889911972
614+888491547+893576236+902918873+910123983+914045477+923702382+947063207
604+975685384+988360911+978642822+960790362
##END=
