##TITLE=<SNM>
##JCAMP-DX=4.24
##DATA TYPE=INFRARED SPECTRUM
##DATE=29/4/2025
##SAMPLING PROCEDURE=Instrument type and / or accessory
##ORIGIN=Admin
##XUNITS=1/CM
##YUNITS=ABSORBANCE
##RESOLUTION=4
##FIRSTX=4497.3318
##LASTX=599.83466
##DELTAX=-1.4281778
##MAXY=2.1866984
##MINY=0.54038322
##XFACTOR=1
##YFACTOR=2.0365216e-09
##NPOINTS=2730
##FIRSTY=0.55156332
##XYDATA=(X++(Y..Y))
4497+270835977+270279624+269756344+269082978+268315223+267714881+267249551
4487+266607355+265816977+265511976+266357320+268452548+271150548+273205211
4477+273603137+272767305+272296970+272963839+273801280+273679262+272935303
4467+272734057+273393579+274143539+274212230+273556894+272644175+272014506
4457+271992204+272375818+272492333+271926146+271039330+270497582+270517543
4447+270892405+271581430+272713130+273928156+274394247+273838216+272990472
4437+272605132+272603581+272343828+271422681+270325780+270008077+270580410
4427+271067222+270777822+270034008+269293560+268781373+268838211+269384466
4417+269507567+268667550+267869240+268580800+270746534+272536499+272293136
4407+270569317+269423246+269701964+270202825+269864635+269396261+269829162
4397+270839021+271553567+271901825+272184816+272307858+272212006+272212386
4387+272470704+272732184+272536499+271380945+269230166+267058256+266071373
4377+266312043+266861927+267210039+267535527+267918117+268155362+268339018
4367+268998628+270345769+271594688+271613302+270407642+269288029+269268273
4357+269916966+270103519+269439256+268581971+268416315+269301111+270838348
4347+272057530+272142114+271409715+271194245+272165616+273284615+273120656
4337+271690043+270141070+269114587+268529669+268628038+269827318+271490231
4327+272161197+271303473+269791407+268536810+267724686+267419480+267721905
4317+268348120+268935585+269484914+270054876+270493104+270656126+270538967
4307+270301370+270338335+270785753+270947897+270123187+268842601+268128202
4297+267895464+267274224+266140679+265346174+265672950+267139738+269021662
4287+270395818+270912893+270978043+271147943+271542884+271790900+271440622
4277+270573561+269930693+270160533+271139807+272218123+272798944+272593951
4267+271737222+270751217+270103139+269771973+269456934+269211171+269549127
4257+270718613+272079569+272570332+271895181+270855908+270223664+269715340
4247+268675862+267372271+266693257+266836494+267181357+267390212+267815592
4237+268589814+269066003+268699452+268038583+268142982+269218957+270517747
4227+271461197+271983336+271841445+270793334+269486670+268986453+269388476
4217+269879298+270094973+270396315+270877801+271077642+270742115+270159392
4207+269611995+269100480+268689325+268623385+268968892+269496679+269956097
4197+270227527+270264551+270066378+269720930+269416398+269374925+269692745
4187+270172387+270473202+270614244+271076910+272076554+272990970+273005780
4177+272260795+271741466+272029784+272768651+273355940+273653009+273792061
4167+273629888+272757061+271249737+270074339+270115812+271055603+271889357
4157+272253859+272396159+272309117+271887689+271443080+271268088+271190499
4147+270971780+270603122+270151782+269866508+270176982+271089407+271974409
4137+272346053+272432510+272683833+273131339+273402506+273150392+272513553
4127+272108573+272309380+272653248+272364901+271504514+271034179+271471938
4117+272097217+271994048+271370789+271184060+271836323+272862777+273545186
4107+273364077+272318365+271242449+271243210+272352667+273279171+272962405
4097+271856635+271146275+271224654+271587547+271809338+271996770+272491602
4087+273432505+274427613+274704838+274002526+273056559+272713306+272828768
4077+272615697+271846948+271066725+270827928+271279239+272178728+272898542
4067+272813782+271986175+271120900+270696018+270529396+270396578+270592176
4057+271396808+272378218+272866113+272854992+272777783+272665980+272244903
4047+271615731+271115953+270679657+270071383+269667984+270232503+271779193
4037+273300390+273824724+273371862+272707101+272425047+272428822+272269312
4027+271909874+271880313+272555464+273513694+273884635+273359979+272664107
4017+272829587+274002643+275216001+275433052+274526245+273113134+271753554
4007+270566010+269609214+269389091+270494128+272594361+274378560+274892152
3997+274344287+273251864+271760110+270276785+269795007+270820670+272481329
3987+273412193+273333609+273086413+273298107+273707594+273769437+273459783
3977+273306858+273698491+274360150+274752544+274814446+274837363+274827031
3967+274620020+274450383+274805841+275754705+276658087+276687560+275681185
3957+274418715+273946332+274579249+275695994+276547513+276987263+277156607
3947+276818973+275769778+274684526+274584196+275487197+276358531+276339536
3937+275426408+274307439+273875094+274417603+275251415+275671058+275942927
3927+276661600+277685097+278321058+278317400+278183090+278413369+278834300
3917+279001419+278817763+278374648+277729116+277117856+276862231+277110891
3907+278166700+280598479+284259977+287708903+289569402+289532349+287535432
3897+283944587+280462354+279179134+280737970+283300781+283925475+282472559
3887+281653791+283007195+285114833+286179744+286523788+286465486+285104940
3878+282785637+281549421+282640030+285483901+288678781+290706927+290377488
3868+288540227+287430770+287736912+287967484+286767794+284801374+283458272
3858+283661449+286408765+292533242+299216648+299967602+294573769+288102116
3848+283838842+282565631+283661069+285891397+288066585+289823243+291636504
3838+293492994+294242749+293294177+291483872+289761897+288430853+287561744
3828+287093224+286751580+287051371+289527052+294101766+297151039+296348953
3818+294274329+292851677+290517945+286297840+282222114+280712565+282617581
3808+286525047+289536798+290886954+292541759+294988875+295922842+294553837
3798+292995792+292239217+291434292+290260680+289555207+289981465+291446175
3788+293542486+295972392+298567867+301376119+304717280+308526873+311777802
3778+313631658+314848264+316914049+320705994+326208470+332238763+336783536
3768+339009708+339839569+340196872+340768707+342772971+347014616+352380675
3758+356769363+359945453+363810158+370243908+379257680+388054547+393826346
3748+397662193+402254233+408263863+413061013+414638463+415217089+418235338
3738+425640957+436376177+445820625+449548356+447978135+444634310+442176629
3728+441529985+442563228+444635013+446692749+447356398+445683797+442197321
3718+438835351+437740147+440152727+445583731+451026003+452667725+450314179
3708+446893994+444742484+444777489+446701997+449138694+450947536+452405163
3698+454112182+456104241+458412744+461461373+465779788+470956484+474196437
3688+472506803+467542651+463100052+460791461+460461583+461744101+464552850
3678+468636332+472489886+473625684+472388912+471671995+472013112+471091555
3668+467996595+464430862+461657760+459977609+459520621+460086310+461198431
3658+462586488+464097120+465893435+468776467+473204227+477933417+479860618
3648+477033459+471220158+465448154+461719662+460238064+459741622+459391813
3638+459980975+462445329+466001434+468927928+471176051+474535329+479014542
3628+480987636+478702898+474999050+472966074+474024547+478043405+482749327
3618+484954632+484522404+484143297+485514789+488214223+491153859+493391563
3608+493898072+492487537+490753269+490658588+492313861+493781235+493566409
3598+492775591+493554409+496129045+498712344+500486445+503009921+507394072
3588+511259479+510879582+506953590+503791138+503689520+505135353+505161987
3578+503109841+501323389+501653238+503131675+504151484+505101812+507116963
3568+509471329+510363297+510029058+509871538+509881606+509376560+508511167
3558+507937810+507680780+507276532+506617654+505927166+505417671+505547971
3548+506869182+508893172+509863987+508523401+505567581+502825299+501520771
3538+501700066+502884830+504573176+506134090+507173275+508047330+509138963
3528+509852514+509149792+506892654+504033828+501796065+500767299+500378622
3518+499339437+497099333+494717807+493698700+494190751+494866897+494839795
3508+495025354+496633096+498993491+500132831+499477933+498641340+499138894
3498+500502659+501031998+500010842+498571273+498209112+499131753+500338994
3488+500628102+499412256+497184503+495001588+493198278+491069684+488134585
3478+485325953+484307636+485555852+487593306+488704899+488916711+489072152
3468+488888496+487666768+485943505+484722947+484068020+483698074+483920013
3458+484830068+485477122+484956915+483711040+482677123+481828853+480666918
3448+479447473+478681796+478056108+476932075+475235651+473277748+471562592
3438+470958035+472062107+474292962+476261812+477048737+476746370+475992225
3428+475429375+475440467+475931026+476359361+476309869+475950431+475460282
3418+474392444+472455760+470468559+469719536+470631142+472368132+473565831
3408+473452126+472489066+471848978+472240436+473294284+474023025+473814784
3398+472918338+471882870+470860661+469927631+469512729+469804764+470097823
3388+469478779+468072282+466926942+466801208+467616230+468852446+470067238
3378+471083594+471938450+472638976+472973391+472860856+472751863+473287962
3368+474762009+477095039+479696718+481368762+481447288+480889969+481036981
3358+481757264+482118663+482362728+483641558+485965076+487626349+487174541
3348+485418352+484356367+484543477+484785083+484393069+484275617+485249359
3338+486708655+487715996+488237023+488502453+488193414+487153936+486103103
3328+485757449+485821517+485415337+484164253+482546033+481407542+481175594
3318+481234774+480423293+478640558+477281299+477429131+478423800+478941958
3308+478781687+478593466+478549271+478464658+478697893+479750863+481275368
3298+482373352+482743474+482881940+483169233+483396264+483245154+482788078
3288+482418044+482518404+483221037+484328797+485426927+486143375+486428620
3278+486783025+487834414+489107918+488934037+486653573+483970295+482804087
3268+483069869+483691196+484553633+486029699+487522946+487953505+486997997
3258+485026601+482715376+481025333+480603173+481032240+481360333+481206647
3248+480847969+480649358+480718518+480774478+480412785+479730054+479202793
3238+478900895+478671611+478894661+479998001+481383425+481879954+481161399
3228+479807380+478258905+476679464+475450448+474874573+474577768+473957787
3218+473191759+473063595+473689049+474187832+473945084+473478291+473506769
3208+473763828+473511510+472591211+471386634+470340190+469747867+469648093
3198+469787408+469879339+469833651+469687546+469477315+469093994+468237060
3188+466685278+464624264+462605132+461190528+460541630+460203147+459518484
3178+458390179+457328223+456698730+456417788+456446324+456836230+457121768
3168+456532606+455156401+454049666+453838967+453866918+453040130+451255580
3158+449600892+449129182+449759992+450460226+450311545+449274994+447955862
3148+446904765+446258940+445841141+445443830+444982832+444460137+443891755
3138+443262496+442549004+441836917+441289052+440925252+440697402+440690933
3128+440878862+440950247+440661724+439969802+438793117+437150370+435447127
3118+434208920+433675748+433765688+434133760+434327689+434165896+433817404
3108+433431917+432991787+432553822+432305221+432267583+432160872+431789785
3098+431372542+431122126+430753263+429931626+428884276+427976855+427145091
3088+426291377+425720624+425714244+426116560+426608845+427059219+427452755
3078+427673142+427489633+426801750+425853734+425007951+424304528+423566480
3068+422910148+422678288+422826793+422889046+422598767+422080170+421465896
3058+420747662+419974756+419283566+418823915+418729818+418919386+419013746
3048+418707136+418153066+417805773+417920035+418304439+418515987+418203875
3038+417235284+415725179+414164060+413218298+413129266+413517943+413892835
3028+414067008+413999663+413596878+412828421+411866269+411011384+410472943
3018+410255863+410322038+410664531+411016565+410850528+410093163+409421173
3008+409332111+409384149+408888966+407907907+407020564+406515459+406272360
2998+406097134+405822513+405355925+404810021+404371383+404028481+403628155
2988+403109323+402533917+402069495+401971769+402227863+402284408+401682515
2978+400835239+400480923+400611750+400649213+400324047+399716738+398889921
2968+398076479+397665178+397628681+397604623+397592506+397801713+397966022
2958+397682241+397220950+397134259+397286101+397038085+396194234+395119956
2948+394132020+393341202+392911345+392993851+393484088+394109483+394666363
2938+394988046+394839014+394082176+392893960+391681597+390827385+390540911
2928+390768586+391130453+391176521+390862448+390483546+390064518+389336948
2918+388428239+387857399+387671723+387360781+386787512+386415546+386460853
2908+386560276+386400064+386097024+385909944+385969153+386249217+386555710
2898+386611436+386215061+385313318+384081580+382963782+382416180+382518881
2888+382916573+383140209+382981167+382663025+382648157+383142696+383832657
2878+384233861+384229178+384043678+383790921+383411258+382975138+382599514
2868+382171735+381625596+381225797+381058268+380661162+379754004+378876378
2858+378697346+379075809+379315454+379129516+378879305+378884983+379017332
2848+379093633+379115789+378984932+378577758+378076897+377669371+377180832
2838+376490110+375899367+375682785+375681176+375613742+375423882+375170276
2828+374899431+374760847+374974210+375486954+375872207+375797457+375362331
2818+374752038+373977317+373193641+372727316+372528587+372101247+371175534
2808+370071930+369338595+369242976+369523216+369600542+369248098+368910932
2798+369076793+369585264+369899513+369787212+369367716+368763539+368079520
2788+367524660+367248371+367156851+367063193+366938278+366860952+366774554
2778+366482168+365927542+365321199+364858006+364466343+363978302+363413871
2768+362935224+362616848+362446275+362454002+362639150+362810894+362703364
2758+362259224+361669916+361175318+360882405+360659033+360218844+359463879
2748+358656847+358128504+357943823+357932819+357912770+357823825+357713632
2738+357602882+357423763+357149669+356867498+356672164+356620301+356717032
2728+356807147+356663501+356314745+356029237+355897941+355721661+355304330
2718+354584282+353604628+352645959+352199536+352475005+353055446+353329627
2708+353156186+352799381+352407221+351965218+351591145+351444133+351430611
2698+351325481+351111357+350991329+351107903+351316905+351243677+350665754
2688+349827024+349178683+348889721+348867536+349071738+349433050+349617701
2678+349295695+348598740+348007383+347820010+347919901+347981978+347759893
2668+347242789+346662231+346308061+346243993+346245662+346085449+345783112
2658+345502814+345336368+345255940+345163775+345001777+344912569+345135268
2648+345595300+345834565+345533282+344880257+344307046+344066289+344113966
2638+344224013+344198784+344030728+343824243+343594198+343254047+342807829
2628+342446166+342353533+342434400+342385669+342086405+341720762+341496775
2618+341497243+341761912+342198882+342509618+342488077+342259525+342031996
2608+341793258+341408415+340909778+340547852+340532398+340826716+341302612
2598+341912993+342510116+342758249+342529521+342161799+342055206+342218989
2588+342381542+342366879+342221242+342060445+341928242+341815326+341742332
2578+341754537+341837979+341894203+341835579+341701533+341617095+341582500
2568+341393869+340878286+340163389+339633992+339594949+339948183+340241388
2558+340129292+339728761+339416941+339389400+339560208+339814223+340162687
2548+340586983+340884930+340877876+340716815+340742571+341031767+341275656
2538+341148721+340678211+340182999+339910456+339851247+339906768+340051996
2528+340243934+340371454+340419483+340525345+340787292+341126829+341375254
2518+341402854+341150682+340651753+340105058+339833218+340021967+340521101
2508+340960821+341047337+340775849+340423785+340302558+340471258+340720562
2498+340825223+340777312+340776727+340967670+341226954+341361469+341435546
2488+341624441+341822028+341746927+341395069+341061708+340933690+340914344
2478+340840472+340677596+340489726+340353074+340305280+340298899+340258480
2468+340235886+340368615+340639694+340865145+340933134+340875125+340779536
2458+340795224+341055796+341459985+341718771+341701503+341533945+341328923
2448+341048976+340705752+340524350+340735956+341242876+341670275+341778624
2438+341655611+341500872+341421820+341418512+341399693+341269627+341095717
2428+341065600+341225315+341418190+341503126+341491389+341496862+341658187
2418+342049791+342603744+343168906+343637134+343963149+344122015+344128951
2408+344078844+344087859+344155087+344149614+344036260+344025196+344335348
2398+344917047+345573174+346211155+346868921+347725709+349180117+351708538
2388+355668657+361427578+369544582+380590451+394859970+412394115+433119395
2378+456735432+482569798+509815519+537766391+565299084+590393470+611571407
2368+629708646+646162045+659414360+666307177+666267197+661767438+654773472
2358+643967190+626348928+601089822+570633562+540297301+516660922+504156636
2348+504088149+515668859+535623515+557335765+573855545+582562618+585217507
2338+585011929+584329812+584247804+584941335+586034548+586837366+586383480
2328+583487015+577617929+569713966+561190519+552516811+543323715+533446630
2318+523300689+513428579+504041203+494976652+485987026+476861979+467426135
2308+457748276+448281087+439528092+431647894+424584328+418382028+413045735
2298+408238488+403517171+398814556+394399821+390474619+387047206+384100253
2288+381651674+379648786+377961611+376547914+375511919+374891763+374495007
2278+374081482+373580035+372972142+372160895+371172548+370299371+369788939
2268+369510163+369166997+368742906+368439544+368231947+367835924+367161416
2258+366491885+366122349+366048623+366078974+366091647+366102095+366132095
2248+366111080+365974165+365808743+365798265+366025326+366387223+366677882
2238+366724272+366492997+366103090+365714472+365374291+364986960+364461339
2228+363837084+363191259+362528459+361904761+361508562+361422866+361439461
2218+361292624+360975565+360708056+360680398+360898883+361228673+361536542
2208+361795797+362073666+362425027+362790143+363039125+363163455+363348633
2198+363788236+364509572+365408183+366324502+367087398+367626629+368025462
2188+368382384+368703453+368996336+369352965+369840099+370382638+370838368
2178+371144685+371338497+371481646+371625791+371819134+372083364+372370746
2168+372589318+372707355+372776837+372799930+372707999+372569270+372593445
2158+372784622+372891128+372858436+372980542+373456613+374142388+374853041
2148+375622435+376592548+377858178+379454096+381382380+383645226+386279773
2138+389318509+392682060+396178605+399691217+403298979+407128153+411180757
2128+415381896+419640927+423799686+427713561+431419371+434991777+438211272
2118+440646710+442148093+443015826+443548004+443630100+443012812+441848712
2108+440602661+439486883+438333846+436990743+435512335+433986192+432412254
2098+430700669+428637723+425990737+422797993+419450774+416396086+413823119
2088+411648107+409698076+407824494+405891761+403807099+401642476+399656359
2078+398122576+397169058+396727406+396498385+396064577+395263779+394405938
2068+393946022+394004763+394299081+394436376+394253072+393962471+393926296
2058+394227901+394632149+394993578+395407777+395902111+396334397+396696177
2048+397193292+397950042+398903648+399996861+401197312+402350349+403332110
2038+404362661+405853010+407894239+410130041+412166470+413922630+415555103
2028+417192202+418802959+420263806+421501427+422596455+423807325+425411672
2018+427322689+428947875+429794272+430141272+430696981+431758146+433078303
2008+434336762+435384610+436209994+436941485+437777551+438789722+439868331
1998+440870580+441786342+442770415+443968759+445305949+446525980+447428309
1988+448008690+448487308+449228868+450455426+452054154+453798665+455601507
1978+457412632+459151436+460911108+462954649+465385901+468040234+470715873
1968+473269699+475510330+477294938+478739220+480096458+481524847+483172687
1958+485274617+487882150+490680861+493283038+495539649+497548010+499621989
1948+502184567+505419895+509037755+512364985+514675449+515844466+516697917
1938+518213290+520588963+523450014+526545032+529750098+532776805+535428474
1928+537932867+540699441+543768938+546609911+548739968+550536723+552715950
1918+555073535+556685960+557435627+558289547+560009561+562287654+564091960
1908+564766057+564734858+564952786+565907446+567426975+569135457+570842945
1898+572607036+574409059+575879359+576817453+577725869+578929891+579592222
1888+578822653+577279183+576315626+576431293+577310500+578438893+579277125
1878+579508165+579347543+579275076+579674933+580924496+583225711+585817791
1868+586884487+585380412+582366816+579605452+577922900+577092747+576480346
1858+575571813+574239188+572808633+571760317+571257905+571029205+570788448
1848+570766673+571480867+572569222+572334377+569802472+566301977+563477393
1838+561637322+560343156+559558894+559830266+561344351+563043936+563230255
1828+561594357+559296069+556796007+553670784+550267634+547744627+546629462
1818+546386188+546197820+545800362+545544034+545732753+546048671+545896419
1808+545246263+544595814+544336091+544686135+545762373+547134216+547866322
1798+547765290+547973092+549723837+552824065+555224089+554994395+553153270
1788+552168231+552859362+554277859+555549782+556908747+558659610+560385067
1778+561876734+563985191+567886129+573466399+578184380+579199623+577249564
1768+574956017+573621460+573722786+575673899+578813287+581253584+582226331
1758+582687709+583214941+583901506+585642944+589393973+594281590+597685911
1748+598320731+597666360+597627258+598801485+600819270+603051004+604790686
1738+606059682+608333971+612915738+618041713+619865920+618209242+615390454
1728+612690259+611005951+611125716+612909885+615876944+620383903+626775244
1718+633179756+635863444+634180776+631210790+629072655+628263106+629157590
1708+632111713+636295086+639653691+641739963+644768661+649875962+654131627
1698+654895343+653656317+651373306+648058194+645585234+645735261+648062701
1688+651474749+656829656+665156716+672199033+671780971+666490628+662320133
1678+662024293+665471170+670380328+674083181+676473137+678861278+680558580
1668+679753948+677573901+676972622+678886214+681472089+682587721+682785045
1658+684360886+689220230+698249718+708908548+712966538+709601494+707151130
1648+708166257+708851183+705322357+699921089+696785798+697105695+700481978
1638+706252255+712501940+715268105+713404854+711009337+711061727+713358903
1628+716702757+720840004+726292198+732481357+737715564+742135070+748275762
1618+757355298+765899876+768727152+767024231+765256803+764665943+763927456
1608+761934315+759101068+756883559+756738624+759222530+763420478+767558955
1598+770727318+773471122+776373500+779077792+781253683+783246298+785225391
1588+787086534+789240064+792032628+794442545+795109325+794885953+796447159
1578+801323537+807667640+810944763+810051742+808859779+810419347+814233125
1568+817329783+818432069+819176175+821338310+825870322+833746481+844424570
1558+851433638+849950753+845008288+841564631+840959839+842114281+843047575
1548+843215865+844092145+846931889+851304918+856077922+859415279+857730562
1538+851037352+844487027+841203816+840657619+840223284+838670273+837863709
1528+839312468+841857543+843871758+846388678+851355727+857718094+862001914
1518+862593184+860683046+859279827+861324597+866591291+871992969+875736271
1508+879110739+882624229+883730203+882496270+881851733+883292824+886657400
1498+890530944+892286430+890624542+888171953+888508534+892297494+896655947
1488+898579314+899023776+900525745+903420395+906311417+908002163+908451425
1478+908768688+910532663+914785401+920740007+924957799+924541025+921507352
1468+919844762+921210927+923996584+924921273+923293921+922036691+924092466
1458+929008004+931092227+926111129+918369076+913178829+912364012+914765674
1448+916679793+914514907+908670934+902881340+900278314+901503409+905359567
1438+909787093+912012505+910538809+907453566+905417049+904828121+904886364
1428+905407801+906498438+907521936+908288403+910366187+915177649+920757919
1418+922210366+918109821+912147547+907663358+905722137+905846292+907000441
1408+908107352+907763864+904986812+901185911+899476258+901250885+905044820
1398+908727947+911487615+912916823+912062670+909371138+907467907+908272305
1388+910865790+912697490+913144820+914485932+918661169+924859108+930216650
1378+932531621+932403603+932175724+933194304+935256577+938017707+941016551
1368+942994240+943375717+943784004+945968382+948672382+949145760+948009582
1358+948847345+953095459+958401840+962398719+965965418+970716647+975722740
1348+978561489+978624473+977790632+977836056+979235469+982148734+986877953
1338+993169023+1000018992+1006112562+1010258999+1011699563+1010659149
1330+1008757323+1007665281+1007933374+1009928272+1014375817+1020700603
1321+1026468246+1030056604+1032427184+1035313581+1039441053+1045013421
1312+1051589911+1056996739+1058605536+1056719280+1055480313+1059123928
1304+1067177040+1073741823+1072728804+1064984292+1057954501+1057814250
1295+1063181976+1066428720+1062467255+1054305618+1047236725+1042867150
1287+1040290641+1038105033+1035234207+1032705697+1032575631+1033651869
1278+1031788676+1025285356+1016466011+1008663198+1004414323+1004406245
1270+1005902067+1004194931+998095273+991438941+987679542+986141340+983999751
1260+980030970+975377203+971268639+967558937+963453533+958656763+953386030
1250+947785565+941864207+935624532+928725803+920117889+909072021+896896002
1240+886356936+879178523+874856888+871423943+866821747+860264808+852836857
1230+846361283+841790696+838931459+836998492+834949683+832052223+828639531
1220+825714559+823752499+822559775+822071177+822573414+824146211+826223234
1210+828055578+829555498+831218908+833442388+836234015+839452252+842921606
1200+846420053+849964392+853695459+857306880+860190760+862322807+864351246
1190+866776616+869762465+873476265+877593141+880968897+882884655+883920093
1180+885007863+886726589+889641435+894105136+899680196+905695211+912443152
1170+921000667+931417218+941425541+947959358+950465331+951447854+953140473
1160+955382743+956677787+955641939+952306456+948147784+945124531+945572505
1150+950748586+958789464+966239014+970857015+972718335+972741105+971713042
1140+971002652+971556986+973090915+975365672+978122003+980665614+982504632
1130+982848939+981358326+979937664+981126700+984173485+985665210+984820539
1120+984917943+988921787+995655504+1000639939+1000500038+996658221+993156262
1110+991491506+990630094+989935041+990011254+992025118+997683767+1008165293
1100+1020835821+1029118276+1028206758+1020110914+1010972316+1004390792
1091+1000555764+999516404+1001697562+1005551204+1006909233+1003554667+998503619
1081+995861784+996064669+996666182+996328899+995111590+993062605+991561398
1071+991857940+991534237+986807359+978509509+970597761+964838488+960789981
1061+958504688+959268286+963094123+967693452+971083256+972358750+971419076
1051+967923907+961432704+953630241+947571207+945353991+947039059+951048874
1041+955446781+959218414+962027895+963405826+963385339+963613979+965764231
1031+968431236+967881293+962199990+954395186+949880267+950599378+953191165
1021+952536326+948023337+944521613+945956850+950845872+955231486+958143581
1011+960850449+963424792+964599487+962697895+957430498+950400708+942896485
1001+935171817+927900801+922096690+917771894+913694412+908337982+901247607
991+893708966+887372882+882240703+877376618+873179547+870835366+870202537
981+869719031+867785011+864058567+859591061+855361913+851535374+848386502
971+846256504+844232748+840811276+836178172+832155070+829935863+829007896
961+828195420+827261307+827056490+827919307+828817187+828793889+828321096
951+828511923+830110241+833645741+839331375+846217109+852312260+856432239
941+859656563+863756523+868342798+871096026+871311555+871536624+874669691
931+881279078+889824300+898099029+904799673+910128708+914997359+918812133
921+919281238+916431192+914009276+915117357+918679374+921260682+920986911
911+918594204+915421743+912228092+909823385+908256969+906194287+903238642
901+901953197+905088781+911590169+917357227+919739514+919541956+919036383
891+919680569+921103924+922076436+922955819+925230517+928273439+929300097
881+927645409+926171362+927397979+930517406+933029233+934372219+935716024
871+936753804+936261343+935608493+937567743+941672210+944021659+942033903
861+937055790+932406179+931374194+936116701+944909646+951635109+951931008
851+949034074+949054854+953362967+959542351+965595999+969467611+968379373
841+963169283+959036251+959331212+962713992+966115972+967475348+966224263
831+964067514+964349071+969332979+977058994+981969615+981040536+977611981
821+977945166+985613816+998176170+1008698905+1012914999+1012920151+1011324818
811+1006912277+999376621+992499725+989848057+991191218+994033596+997256925
801+1000143205+1000833341+999952729+1000610320+1003109913+1003821473+1000638534
791+996568076+995101873+995133833+993213393+988863368+984611450+980924577
781+974389062+963191937+951367016+943988294+940771462+937757692+933702160
771+930931137+930089101+928621610+925617205+923434992+924706447+929992224
761+937532095+945318752+952595739+958524473+961251770+959314237+954972524
751+953299163+955930052+959177439+959192775+956724909+954724099+954481410
741+956320017+960969979+968759153+979278376+990722229+998991104+1000303592
731+994615792+985086526+977121510+975868494+981881577+990295621+995702918
721+995701396+988515315+975552167+965374266+965410558+973740896+982904079
711+988804833+991923851+993601836+994287758+994500594+994847360+994193398
701+990034083+981962708+973385057+968400446+968422924+970446387+970626853
691+968352681+966965560+968006091+967050963+961258326+954117317+948900847
681+945846452+945693088+949266695+953834707+955418918+952664577+945632211
671+935932430+928464441+929755739+938976815+945249914+945615587+945416566
661+948582061+953449132+954441898+948427527+937492232+924697725+912693275
651+905178341+903306134+904437863+906952793+911480590+918172688+925475197
641+930937400+932217694+925912342+912986130+902749634+903765990+915473079
631+925206928+924440226+921549966+922885810+922533249+914448294+903980290
621+899076810+898509481+898369054+904556457+924007647+946231793+950590364
611+937206285+922353193+914219477+909649534+902947017+894884188+887826944
601+880519226+876237922
##END=
