##TITLE=<SNM>
##JCAMP-DX=4.24
##DATA TYPE=INFRARED SPECTRUM
##DATE=29/4/2025
##SAMPLING PROCEDURE=Instrument type and / or accessory
##ORIGIN=Admin
##XUNITS=1/CM
##YUNITS=ABSORBANCE
##RESOLUTION=4
##FIRSTX=4497.3318
##LASTX=599.83466
##DELTAX=-1.4281778
##MAXY=2.2121005
##MINY=0.61540169
##XFACTOR=1
##YFACTOR=2.0601791e-09
##NPOINTS=2730
##FIRSTY=0.62442958
##XYDATA=(X++(Y..Y))
4497+303094800+304037802+304999755+305213560+304485376+303325068+302281498
4487+301623329+301537142+302158509+303250481+304147453+304417994+304456387
4477+304838691+305335016+305408213+305387961+306061551+307199553+307619296
4467+306655086+304902920+303595088+303533261+304725076+306657140+308504579
4457+309588190+309762330+309015254+307280186+305017663+303205377+302329323
4447+302149164+302660794+304096389+305865741+306847801+306696198+305884691
4437+304920684+303945683+302704481+301096829+299978037+300653131+303268680
4427+306387294+308350257+308728222+308311836+307786811+306822688+304920366
4417+302699505+301365084+301331292+302433969+304781291+308045663+310552283
4407+310601207+308623518+306755219+306262569+306516821+306676525+306972121
4397+307497985+307304952+306019079+304970071+305502849+307379191+309360352
4387+310388211+310202469+309410722+308838510+308420995+307128555+304489687
4377+301621131+300194476+300802043+302707634+304843205+306388567+306581455
4367+305159689+303147224+302148296+302814132+304550733+306301627+307101764
4357+306341958+304207834+301981129+301318909+302581000+304234393+304681794
4347+304269198+304540752+305974003+307529549+308116112+307699900+306958291
4337+306341900+305895945+305744082+305979819+306179332+305795986+304939605
4327+304279903+304265264+304536615+304247384+303309878+302816997+303399278
4317+304050011+303658419+302601976+301715332+301179632+301256127+302310691
4307+303655353+303987634+303101627+302008382+301746926+302719728+304461971
4297+305747410+305633766+304535284+303684516+303672278+304042807+304286557
4287+304633565+305430491+306204705+306181473+305514596+305020557+304874798
4277+304585336+304092223+303894705+304173174+304599252+304987864+305546710
4267+306331745+306946892+307040891+306707655+306176699+305507363+304842568
4257+304498888+304599483+304978779+305389205+305601044+305527036+305376880
4247+305496860+305925571+306304491+306446633+306769916+307683813+308608618
4237+308357577+306762799+305028339+304143229+303972387+304072318+304335568
4227+304639843+304754934+304649709+304444785+304262457+304172827+304067746
4217+303887791+304019633+304861605+306113831+307114725+307589033+307578126
4207+307229035+306964222+307203228+307627773+307231436+305386862+302597115
4197+300066886+298712706+298787697+300210446+302572726+304862039+306037393
4187+305984679+305255425+304163771+302805279+301547441+300874604+300947338
4177+301591360+302597433+303891262+305357872+306691974+307586661+307943476
4167+307845108+307459419+307079776+306980193+307091985+307075957+306639752
4157+305617332+303962464+302002914+300544232+300253323+300950723+301853597
4147+302536966+303184488+303917938+304533519+304959308+305280769+305340716
4137+305049402+304827090+305065401+305571880+306011296+306338862+306485286
4127+306257911+305901095+306097021+307016647+307880636+307846497+306937750
4117+305729096+304665303+304067515+304280916+305317744+306592767+307444982
4107+307843314+308232042+308792566+309178053+308976196+308259556+307600345
4097+307536580+307995669+308303214+307888882+306904652+305905782+305051051
4087+304071363+303030976+302514226+302802184+303437496+304005688+304796596
4077+306030102+306856914+306257795+304868954+304482136+305637758+307053940
4067+307581164+307367097+306770611+305704214+304429278+303658738+303515063
4057+303298219+302550188+301770476+301861640+303060689+304536557+305142128
4047+304614991+303822231+303668401+304123787+304675516+305269833+306149417
4037+307104484+307624040+307539241+307005305+306252038+305578245+305110332
4027+304640306+304101857+303790406+303828162+304072404+304636632+305680838
4017+306771710+307252499+307087211+306774951+306602778+306296940+305400546
4007+304034272+303074229+303206823+304131686+305042921+305508259+305621036
3997+305587735+305395628+304967582+304601248+304805709+305508578+306071822
3987+306244718+306267892+306149677+305772927+305420567+305357727+305350292
3977+305287684+305651125+306657488+307571095+307515054+306615594+305875462
3967+306058744+307014130+307948366+308131996+307445879+306470299+305971920
3957+306158877+306528886+306520351+306291009+306674557+308124647+309895301
3947+310870620+311003417+310878055+310255096+308488464+306118141+304582848
3937+304640653+306045667+308331625+311007872+312993952+313111820+311779512
3927+310922176+311703566+313214354+313882591+313618039+313451016+313789518
3917+314003266+313373045+311901633+310192025+308841750+308111165+308147995
3907+309308593+311958628+315774672+319521684+321950449+322498417+320961445
3897+317614762+313822905+311550777+311884216+313729195+314710619+314542844
3887+315119830+316933505+318238271+318276952+318300445+318387298+317188250
3878+315123099+314080687+314476706+315473405+317094974+319545669+321293437
3868+321094097+320080068+319482800+318854228+317573823+316347666+316091070
3858+317227250+320518558+326553350+332018389+331046369+324889860+318602985
3848+314703502+313571488+314801580+317557506+320791905+323959327+326852129
3838+328403480+327375128+324497719+321579833+319425978+317880066+316858977
3828+316428414+316532019+317632584+320725478+325179843+327595328+326349555
3818+324073289+322384628+320070896+316731330+313911147+313012439+314578748
3808+318088520+321678259+324210108+326539752+328691090+328805747+326986401
3798+325555522+324864863+323303212+320543612+318193253+317621300+318976638
3788+321798384+325409966+328730235+330860308+332126999+333537829+335371235
3778+337307552+339583268+342862425+347440184+353020777+358586933+362762049
3768+365116603+366093630+365978713+365683869+367140237+371243689+376348440
3758+380101702+382532984+385755781+391778423+400610918+408512910+411387398
3748+411180767+412891069+418928408+426205444+429675406+429831522+430597404
3738+435095948+443719701+452872066+457798714+457945716+456622522+456373159
3728+457138202+457590608+456957291+455584276+454092235+452579479+450743642
3718+448605295+447118896+447872887+451390991+455246873+455608636+452412717
3708+449187431+448316006+449845745+452597475+455061913+456434494+457075217
3698+457767555+459463738+462971253+467735854+471970049+474655930+476061754
3688+476061436+474243999+471470686+469298199+468700295+469679867+472014314
3678+475979299+480764528+483096950+481862286+480439363+481381122+482676716
3668+480442691+474888050+469459725+466582980+466024973+466448419+467755499
3658+470249418+472404864+472700171+473079351+476922822+484516140+490229414
3648+487183129+477694837+469053262+464699464+463974318+465005736+466796063
3638+469046145+471342200+473503982+475923750+478920734+482057894+483920059
3628+482990654+480321264+478550784+479004116+481747687+485676536+488196552
3618+488160156+488382004+491510166+496311337+499691957+501134438+502126219
3608+502412296+500887360+498777539+498398533+499947077+501226441+500618989
3598+499127035+498579530+499284713+500222971+501154632+503301775+507075462
3588+509950355+508774279+504352346+500057828+497813301+497492853+498236978
3578+499329847+500359760+501080219+501230954+501078368+502258032+506659366
3568+513231855+517331488+516170109+512201305+509196162+508796903+510045309
3558+510760792+510045888+509029920+508961062+509655425+510170989+510264728
3548+510175792+509607572+507949665+505233492+502396500+500740734+501033234
3538+502858309+504662205+504699643+502562799+499878914+498918379+500228642
3528+502000481+502137155+500640688+499300626+499499040+500805483+501111350
3518+498756651+494852712+492155460+491900571+493088452+494334370+495148511
3508+495488459+495211408+494530181+494318516+495023352+495841137+496050546
3498+496097820+496456401+496785529+496874349+497104935+497513163+497594982
3488+497156434+496333498+495118595+493646199+492364811+491527352+490967059
3478+490423546+489820319+489411166+489660210+490681560+491906647+492570458
3468+492384542+491529377+490289071+488875118+487366325+485767787+484192741
3458+482975581+482439562+482324992+481840848+480855084+480494016+481671076
3448+483576465+484457206+483689617+482245806+481078322+479956232+478113856
3438+475615944+473436253+472325389+472256994+472939292+474289075+476174154
3428+477982245+478985223+479259236+479661677+480665118+481529252+480926112
3418+478532239+475700454+474181160+474317023+474945769+475151155+475179132
3408+475099483+474049723+471911230+470185739+470006767+470724535+471146737
3398+470817580+469812635+468554131+468012152+468961346+470814803+472068966
3388+472047152+471619569+472142019+473882815+475625318+475828072+474140858
3378+471853135+470794724+471613291+473291768+474470420+474928872+475453116
3368+476596269+478156820+479515745+480066346+479920009+479986060+480814898
3358+481803757+481973066+481260100+480613330+480915841+482226277+483897347
3348+485087138+485312835+484774385+484104383+483896479+484352444+484926422
3338+484515909+482778787+481078119+481153631+483076755+485199567+485936633
3328+485147779+483926742+483371194+483621946+484069318+484173096+483827448
3318+483191007+482561191+482246356+482211319+482102854+481847300+481872644
3308+482556649+483655651+484336792+483858347+482528845+481785212+482681518
3298+484660394+486495479+487769114+488420021+487821712+485770333+483463024
3288+482342351+482773348+484269352+486193547+487959774+489238269+490093608
3278+490548532+490401095+489845142+489577813+489885994+490155985+489632725
3268+488396528+487215591+486552532+486249327+486208129+486678675+487515845
3258+487817256+486926215+485498432+484883024+485496291+486369279+486266744
3248+484841739+482701568+480944397+480619059+481770312+483082281+483242853
3238+482420322+481585235+481007439+480456173+480096580+480133294+480169922
3228+479613969+478458607+477380725+477045811+477500474+478416338+479563078
3218+480506225+480308245+478549742+476408530+475713300+476996337+478955887
3208+479772660+478796125+476807037+474763180+472849835+470827562+468810814
3198+467344957+466735162+466677327+466793951+467157768+467809196+468207963
3188+467828291+466852451+465733254+464683870+463897099+463559928+463446631
3178+462970848+461685756+459703264+457823740+456913922+456960011+457201678
3168+457117255+456667800+455907386+455137685+454938779+455363382+455567698
3158+454797505+453369085+452226975+451939132+452377073+452923883+452809429
3148+451713175+450145131+448791297+447707339+446705750+446018909+445820293
3138+445622168+444937266+444036330+443426477+443136263+442955266+442799034
3128+442541223+442020191+441395004+441061305+441047909+440877038+440271843
3118+439596894+439276735+439148798+438685948+437655109+436325231+435176002
3108+434603095+434707857+435233085+435778680+435985022+435589553+434628931
3098+433517662+432627691+431925025+431227393+430629836+430512547+431182549
3088+432418110+433412321+433493330+432844362+432158563+431793502+431588867
3078+431275536+430796021+430249413+429572293+428494527+427064226+425886790
3068+425505614+425890898+426661033+427382997+427720631+427735039+427808467
3058+427950204+427620498+426507203+425020457+423867641+423527201+424112664
3048+425316805+426424747+426744125+426159761+425123164+424095942+423174262
3038+422235108+421213382+420247900+419687896+419799110+420350549+420692031
3028+420368545+419536872+418711969+418215037+417986939+417852782+417655670
3018+417085049+415827992+414113553+412718144+412175152+412245862+412382940
3008+412482871+412809453+413275081+413332973+412733131+411923475+411493346
2998+411597269+412028063+412376575+412123191+411096749+409777692+408818314
2988+408390789+408174379+407880490+407633037+407716968+408016123+408047340
2978+407707334+407531949+407934043+408616573+409009987+408882340+408279633
2968+407272634+406047113+404954099+404227420+403788785+403424707+403008234
2958+402495534+401859411+401107648+400386639+400027798+400291280+400974186
2948+401474619+401394449+400935359+400597581+400626744+400805803+400715015
2938+400172515+399370555+398617895+398121165+397926165+397863586+397655769
2928+397247628+396945060+397078753+397616653+398146538+398193813+397646192
2918+396790304+395837030+394737044+393606882+392888246+392851531+393302491
2908+393887636+394362812+394565855+394397819+393868397+393145218+392549918
2898+392306977+392245179+391985111+391438966+390925196+390847745+391352026
2888+392121640+392574510+392536320+392439861+392548413+392480481+391884024
2878+391042109+390428697+390136978+389970505+389750247+389438912+389196406
2868+389187177+389220940+388907985+388239169+387698174+387704105+388067488
2858+388097693+387376887+386350156+385815844+385895377+385966492+385627498
2848+385213513+385227863+385682150+386175755+386379782+386257314+385942796
2838+385605192+385366128+385174079+384833089+384281071+383715715+383368620
2828+383291893+383387339+383518169+383582339+383518574+383256626+382746356
2818+382061193+381349356+380688670+380108732+379672268+379417610+379296357
2808+379187255+378925683+378442262+377947152+377759704+377860184+377882490
2798+377663014+377482277+377579111+377724551+377534412+376991854+376423171
2788+376081458+375921349+375736765+375436713+375151735+375038930+375055797
2778+375025332+374838462+374507222+374130299+373826920+373607386+373354985
2768+372973606+372485035+372003466+371664443+371475635+371212529+370655939
2758+369938345+369482177+369582223+370081094+370483535+370460361+370157011
2748+369840439+369477924+368989556+368577770+368393532+368241988+367950182
2738+367655367+367538483+367592498+367702613+367728709+367593395+367395183
2728+367297336+367291376+367186528+366795312+366085789+365228946+364498158
2718+364093026+364084462+364398372+364743384+364791815+364586197+364455888
2708+364409569+364034758+363163159+362203723+361649737+361601740+361811350
2698+361910181+361671205+361278832+361172479+361452857+361702625+361514453
2688+360909200+360162644+359541218+359259452+359378217+359673929+359784795
2678+359517610+358950403+358284798+357689961+357281618+357157066+357327330
2668+357595527+357689411+357608691+357623447+357801927+357829094+357511134
2658+357161175+357156777+357331438+357202981+356716175+356311448+356231192
2648+356201276+355927466+355519325+355263713+355283705+355508013+355712445
2638+355608030+355174025+354818077+354889741+355161034+355108812+354627966
2628+354144169+354013253+354072100+353888875+353342556+352817907+352813336
2618+353426979+354236982+354668905+354498149+354023610+353725671+353732730
2608+353751073+353562235+353307751+353132540+352949634+352800577+352989965
2598+353532754+353886242+353601496+352914742+352364026+352133410+352079655
2588+352149091+352435024+352937511+353522599+354045135+354347154+354258131
2578+353790738+353231314+352853320+352635869+352410635+352176143+352077804
2568+352144549+352280934+352492772+352841921+353211177+353418849+353482789
2558+353473386+353302312+352963839+352724053+352775291+352929844+352868509
2548+352529718+352123689+351848432+351717950+351693127+351807262+352009582
2538+352080899+351914860+351681294+351555151+351522863+351543578+351638388
2528+351760017+351776739+351629940+351425884+351352195+351514126+351854595
2518+352213117+352439509+352499658+352517972+352640700+352836887+352948187
2508+352875192+352613852+352266352+352070426+352202876+352533710+352765570
2498+352754084+352560154+352342182+352265050+352337495+352366138+352253477
2488+352224777+352531975+353047365+353382627+353338216+353008626+352518579
2478+351955943+351531572+351479668+351774917+352192749+352606300+353007729
2468+353346722+353557635+353647989+353603434+353300171+352675534+351955364
2458+351544591+351627307+351992484+352322393+352512677+352615240+352636129
2448+352564436+352500728+352578555+352785909+352973271+353029804+352986261
2438+352936585+352926112+352962798+353060905+353170412+353143679+352953395
2428+352861102+353105750+353521441+353782927+353888094+354032434+354202987
2418+354252547+354184384+354101986+354050748+354034199+354048087+354092323
2408+354215515+354447287+354690112+354838069+354950064+355118533+355264089
2398+355303784+355442077+356008070+357056876+358439120+360272787+363093549
2388+367561281+374241079+383622207+396116714+411929666+430934864+452725267
2378+476844156+502861838+530006211+556956162+582581037+606642150+629163166
2368+649401524+665464446+674908762+676830180+673204565+667180795+660436393
2358+651645993+637237447+614555859+585100127+554957959+531350150+518588053
2348+517655466+527357854+543955667+561377863+575076076+584343503+590081890
2338+593353784+595334165+596863556+598200667+599199855+599437038+598482174
2328+596217452+592514879+586777071+578615995+568876054+559111290+550094065
2318+541417830+532463850+523245433+514174453+505378961+496557546+487505603
2308+478416656+469543309+460941457+452631528+444723547+437372937+430737405
2298+424878459+419693914+414999675+410576672+406209188+401892567+397906492
2288+394520837+391799312+389736244+388290581+387238738+386275483+385282429
2278+384322646+383474308+382833151+382482527+382284315+381920672+381305785
2268+380715490+380384076+380245667+380141657+379963784+379567332+378884108
2258+378130030+377607841+377352257+377183035+376979037+376715932+376395657
2248+376087042+375905958+375887557+375994923+376240698+376627777+376981439
2238+377046796+376798648+376473599+376238413+375999060+375638223+375284387
2228+375153442+375194641+375102059+374668980+373941230+373059302+372168724
2218+371430588+370916759+370575046+370401427+370436232+370541804+370514000
2208+370436174+370554823+370851432+371108838+371281531+371460243+371637305
2198+371786246+371993485+372336934+372805281+373379085+373999874+374497414
2188+374760491+374933734+375261618+375777501+376295958+376672852+376924935
2178+377104746+377199237+377189487+377138712+377172851+377354456+377584435
2168+377725333+377868313+378312821+379146838+379990430+380321497+379993989
2158+379354510+378922067+378958955+379264069+379428199+379342764+379311546
2148+379609457+380148253+380657858+381014471+381304685+381672350+382164509
2138+382724483+383343739+384145468+385230583+386510554+387805366+389062134
2128+390365048+391762800+393218647+394739793+396388962+398079388+399515532
2118+400489578+401150988+401852960+402758003+403682952+404349425+404677974
2108+404736908+404522495+403968596+403123180+402181277+401343760+400658945
2098+400011220+399326637+398712299+398260732+397879585+397469448+397040274
2088+396543429+395913815+395354188+395215026+395511982+395848603+395886504
2078+395693847+395583299+395772975+396252086+396810845+397161614+397199833
2068+397140002+397224888+397429175+397657157+397989815+398476332+398953388
2058+399300945+399622869+400029534+400479481+400937008+401506588+402305395
2048+403291621+404312016+405270699+406148952+406902944+407482158+407945674
2038+408445007+409087524+409878345+410772019+411737386+412761455+413802391
2028+414795127+415715881+416576920+417423261+418451786+419983203+422074160
2018+424237881+425831096+426762786+427578460+428812284+430487029+432267491
2008+433899127+435399500+436946656+438673652+440502169+442155881+443426825
1998+444433101+445534534+446972501+448599740+449987915+450872823+451441014
1988+452094554+453102855+454531043+456245598+457960269+459526057+461120777
1978+462931327+464830091+466599182+468262817+470033240+472110368+474531321
1968+477044972+479240922+480962392+482477665+484208624+486436227+489199559
1958+492301161+495373426+498027743+500119627+501936542+503936133+506268034
1948+508819239+511647956+514883108+518140537+520573410+521851731+522638560
1938+523744795+525395180+527477921+529949331+532749175+535657686+538472922
1928+541209405+544074114+547209046+550333851+552917054+554978212+557095323
1918+559314564+560938505+561784760+562623897+564091837+565989820+567643676
1908+568629671+569186839+569951506+571300363+573103970+575002184+576620107
1898+577698857+578317245+578802952+579401088+580288714+581575253+582820071
1888+583198152+582719215+582332918+582621889+583240682+583668467+583942972
1878+584407153+585030864+585434578+585728409+586783031+589078709+591455571
1868+591835445+589811898+587164062+585489780+584857274+584430067+583624259
1858+582589601+581776271+581292358+580864052+580354447+579957041+579840966
1848+580049391+580613966+581058589+580200762+577717837+574960233+573146674
1838+572167217+571149513+569734749+568781563+569370035+570989983+571543564
1828+570115318+567958280+565843078+563249402+560242638+557783263+556214235
1818+555019411+553896626+553220201+553402240+554189994+554698326+554264465
1808+553175936+552250639+552131903+553159213+555206657+557307046+558124543
1798+557428213+556595845+557338466+560009332+562599073+562403552+559864789
1788+557916349+558238881+560239629+562498217+564364259+565809112+566761778
1778+567564692+569302856+572984482+578405545+583476071+585618642+584591911
1768+581955763+579300868+578206957+579671021+582824874+585406109+586618756
1758+587625350+588898927+589985315+591480220+594767218+599592980+603337909
1748+604282185+603872800+604158530+605543147+607395765+609193701+610597182
1738+611809539+614125007+618506783+623010882+624169889+622374498+620062734
1728+618251257+617276488+617297724+617918426+619089121+622148831+628531007
1718+636887372+642094224+641082480+636920991+633444375+632201177+633467636
1708+637032205+641838236+646002965+648991850+652541374+657470886+660959769
1698+660572372+658039742+655126486+652418529+651055032+651789552+653891851
1688+656524527+660623061+667182126+672943774+673094798+669497305+666675762
1678+666616683+668907097+671636636+673400317+675099307+677879824+680342671
1668+680096577+678194429+677882891+680285560+683252803+684004450+682958567
1658+682841740+685852092+692801562+701399334+704792106+702420221+701478029
1648+704471831+708289611+708676255+706311140+704497233+704705716+707263111
1638+712232491+717975160+720040426+716805275+713119019+713073422+716689027
1628+721774655+726942159+732874794+739835201+746096327+750803874+755740041
1618+762270522+768513883+771354463+771537139+771804873+773013354+774528916
1608+775533601+775385817+773969259+772228724+771527417+772276403+773921869
1598+776099275+778803007+781607365+783841245+785557073+787427917+789815310
1588+792563308+795306503+797439354+798220396+797693375+797413142+799336063
1578+803649271+807767883+809007378+809142316+811296750+815128648+817830355
1568+818410322+819192637+821644779+825094719+829725135+837922838+850499424
1558+860403350+861050612+856234570+850461176+845723251+843383190+843808256
1548+845916862+848151900+849546411+850426400+852924544+858152400+861173572
1538+857330275+851007293+846623145+843664465+840694271+839299123+841708909
1528+847280127+852896711+856304701+858410240+860555589+862015834+861901206
1518+861095340+860530071+860376502+861287505+864228073+869065004+875051394
1508+882082568+888105469+887903757+881992358+875939888+873440009+875949609
1498+882563298+889302377+892326847+892518318+892986492+895069695+898195600
1488+901207167+903530678+905324564+906782378+908027255+909738338+912797121
1478+916999983+920780209+922757291+923285064+923878918+924916296+925473522
1468+925512233+925600185+924877585+921425966+916142156+912795270+913927023
1458+918603787+922194510+921074214+917215293+913343585+910404348+908670351
1448+907613994+906076385+903996480+902349799+901491393+901163364+901648666
1438+903646290+906527663+908279714+908365120+907833644+907101207+905759119
1428+903687199+901751084+901221807+902659137+905886188+910707379+916049111
1418+918764764+916643196+911196153+905043347+900202019+897982142+898236221
1408+899617655+900909864+901450888+901153759+900756236+901575584+904497231
1398+908905219+913034593+915196550+914770327+912651479+910383633+908747367
1388+907617639+907398625+909693320+915279410+922350221+928015005+931260398
1378+933183146+934787529+935980676+936169195+935279022+934236842+934337061
1368+936386415+940473607+945993906+951421276+954870060+956106662+956652604
1358+957317514+957969405+958934743+960973797+964165261+967454746+969570412
1348+970300997+970561036+971324719+973007970+975361743+977344496+978365209
1338+980133404+985375610+994444334+1003989390+1008979775+1007651459+1004233806
1328+1004443156+1009514318+1016110416+1020814839+1022716467+1022038653
1320+1019861479+1019064814+1021990164+1027936223+1034921048+1042366005
1311+1050275374+1057394674+1062163326+1064874233+1067359589+1070610016
1302+1073452737+1073741823+1070775043+1066326724+1062605172+1060440496
1294+1058744400+1055260319+1049555436+1044198775+1041734482+1041181190
1285+1039612509+1035893156+1030883792+1025587194+1020425070+1015067368
1277+1009544060+1005463638+1004674032+1006897150+1009661639+1011020159
1268+1010934753+1009409701+1005426027+998710730+991270634+985870575+983845814
1258+984341820+984588434+982010382+976837033+971412672+967061506+963153228
1248+958627893+952779739+945419784+937563012+930621642+924178478+916203433
1238+906023440+895722396+887697763+881785554+875982534+869273949+862391716
1228+856298510+851337751+847436995+844278050+841680266+839804792+838449397
1218+836739991+834125427+831078853+828548827+827239837+827319573+828279819
1208+829423781+830593782+831891373+833272807+835044936+837911671+841852989
1198+845707569+848481201+850612316+853386758+857361868+861951953+866388236
1188+870503376+874522521+878159014+880385893+880902730+881437852+884199622
1178+889114726+893986605+897522242+900770644+905271619+911159583+917566583
1168+924072877+931312244+939804531+948014154+953128425+954160884+952751559
1158+951107829+950949862+953727775+959657054+966367027+970367540+970886113
1148+970168489+969865169+969844280+969723461+969522790+969505778+970703611
1138+974246366+979128082+982271115+982542032+983225053+987393891+993024478
1128+995287406+992686555+988912231+988336604+991235105+994399895+996167279
1118+998313091+1001481121+1002631333+1000285428+999046454+1004059637+1013716485
1108+1020288281+1018580496+1011845409+1007855023+1011329498+1019707215
1100+1025590550+1025383514+1023251589+1023442539+1024931600+1024590668
1091+1022075454+1018208665+1013387820+1009054187+1006489559+1005871576
1083+1007036716+1009038911+1009171072+1004164833+995279999+989101213+989292279
1073+992262994+992053527+986770353+979582311+975495640+976699086+979851724
1063+979614368+976035159+974335707+977096724+981296693+983724300+983711454
1053+980293223+973924644+969426042+970626595+973895597+973129483+969140717
1043+966337864+965102593+964373570+965855398+970353421+973451320+970464288
1033+964790014+962960831+965890579+969665250+970244580+967374374+963467948
1023+959487919+955505170+953121423+954047934+957043415+959323933+959854021
1013+959447646+959621410+960904361+962202067+960779028+954384584+944908039
1003+936446477+930435785+925533989+920745954+916573702+913454220+910484547
993+906564696+901785687+897274297+894324529+893013283+891338422+887226811
983+881114568+874602025+868050540+861592388+856645112+854666642+855429399
973+856982283+856899018+853830571+848361308+842400957+837470172+833877018
963+831541298+830885241+832346007+835178775+837538856+838278525+838030407
953+837791604+837470866+836764178+836656205+838958249+844405292+851564750
943+857909315+862478511+866928218+873214515+880633086+886402776+889479671
933+891643305+894737327+898704453+902605266+906703858+912125441+918524514
923+923702897+926287199+926839218+925812950+922712447+917976315+914542460
913+914605936+916609983+918166339+919033482+919355955+917947094+914411399
903+911049353+910908166+914594537+919569588+923051990+925288764+928025131
893+930243678+929128184+925404722+922748727+922428510+923196244+924953386
883+928593293+933458461+938209753+942750654+946659221+948435806+947873661
873+945841088+942169935+936951626+932473739+931833942+936266695+943237807
863+947503740+946822801+945284094+947491241+952309019+955514486+956136114
853+956557187+958292920+960758313+962696684+962821554+960123376+954952978
843+949628316+947539210+951371282+960909626+972502474+981200639+984801835
833+985977160+988387061+991748702+992304308+988951347+985227248+983657989
823+983544460+983541799+983459864+983392395+983444472+985631946+992271210
813+1002469083+1011668810+1014566385+1009549731+1001649967+997449304+998838839
803+1005883149+1015095952+1019398455+1016843663+1011672860+1007161007
794+1000929334+989562501+976490198+969714897+972165708+977794674+978359538
784+972518791+965179841+961185809+960806976+961156819+959609895+955844656
774+951042443+946217317+942387155+940787459+942304757+946930254+953592085
764+960675047+966271842+968925754+969916899+971685556+973826970+973126474
754+968557799+963019158+958714456+956115226+956314797+959831107+964377447
744+966428305+966076842+967162767+970956591+973313258+970462147+965698530
734+964772481+966738685+965522567+959524373+952616911+949458949+952539374
724+959858130+968746319+979343103+988401990+989137320+982753003+977653603
714+977855547+980190804+980973235+979603258+977784722+977700241+980102967
704+984336728+986800905+984508814+980177611+977993031+978708803+980492042
694+982180153+983342864+981968951+974395885+961325029+949521095+943806143
684+942455723+941633656+942887038+951827015+968584648+982613551+982677317
674+970355736+954939670+940915164+928038845+919481519+922036311+931808771
664+942812626+956871329+971041535+973628151+961712946+948210543+941824779
654+938902669+933525930+925267065+918563109+916910526+918155923+918069244
644+918500327+925398010+939447802+952476302+953962933+944346126+935359742
634+935484380+942262690+945965611+941293129+932213237+923569637+914739196
624+904746276+897710762+896945748+899894880+903939195+908386761+910993109
614+910059134+901108973+890679356+890700187+899986304+910499186+922181722
604+934934271+939295679+924266257+898199477
##END=
