##TITLE=<SNM>
##JCAMP-DX=4.24
##DATA TYPE=INFRARED SPECTRUM
##DATE=29/4/2025
##SAMPLING PROCEDURE=Instrument type and / or accessory
##ORIGIN=Admin
##XUNITS=1/CM
##YUNITS=ABSORBANCE
##RESOLUTION=4
##FIRSTX=4497.3318
##LASTX=599.83466
##DELTAX=-1.4281778
##MAXY=2.0672438
##MINY=0.40914941
##XFACTOR=1
##YFACTOR=1.9252708e-09
##NPOINTS=2730
##FIRSTY=0.42712319
##XYDATA=(X++(Y..Y))
4497+221850963+222192163+222357779+222124518+221497751+220611717+219628425
4487+218734481+218365077+219267210+221668955+224311283+225259126+224090033
4477+222363816+221683413+222215971+223177700+223723958+223144527+221320417
4467+219379112+218975978+220602600+222973710+224254798+223862902+222849487
4457+222532466+223110627+223676637+223300592+222019675+220805800+220519351
4447+221072373+221798395+222180616+221928485+221027792+220030692+219599169
4437+219715064+219929905+220070351+220150132+220001544+219538443+219195246
4427+219594664+220708186+221795701+222318956+222362191+222063513+221373744
4417+220407031+219422098+218559052+217900737+217459168+217030756+216536649
4407+216274549+216383850+216527407+216521247+216724632+217384510+218032174
4397+218062158+217783588+218156367+219335274+220276631+220100861+219126826
4387+218247030+217987237+218351610+219012293+219447330+219135618+217989280
4377+216639015+215914201+215954803+216236825+216438276+216640439+216762015
4367+216596694+216380708+216606415+217245442+217611146+217114283+215949989
4357+214895801+214584740+215144465+216243822+217221975+217542045+217412961
4347+217538501+218104789+218576126+218557767+218253392+217965535+217736639
4337+217605450+217677321+217808928+217560729+216584775+214998013+213394858
4327+212515248+212715352+213737606+215129248+216647575+218001385+218629840
4317+218253176+217325099+216550302+216192523+216035994+215857112+215763600
4307+215993657+216490365+216985138+217414509+217772660+217701345+216911145
4297+215887854+215535416+216230277+217583438+218894633+219682310+219955044
4287+219955771+219667449+218841337+217515575+216189396+215485123+215721604
4277+216636198+217558547+218071012+218317462+218493387+218439054+217992810
4267+217406801+217065941+216958033+216818082+216684355+216848980+217348628
4257+217931186+218418977+218736447+218837420+219001132+219798592+221267524
4247+222472560+222408924+221259939+220180349+219862074+219975910+219960972
4237+219688114+219361573+219254393+219442996+219615299+219467128+219292070
4227+219677279+220636593+221446281+221317523+220141030+218674096+217840290
4217+217819686+218152001+218565197+219141129+219892816+220704796+221350494
4207+221379611+220634441+219829892+219830666+220521858+221060887+221003613
4197+220662149+220520991+220731095+221156752+221678444+222309344+222929052
4187+223143041+222764860+222204594+221942463+221862480+221527348+220879807
4177+220298937+220219713+220926277+222306356+223659826+224251470+224120760
4167+223891756+223964045+224338341+224844290+225099563+224686135+223713896
4157+222836144+222552357+222812367+223273116+223628712+223786418+223925734
4147+224294441+224851503+225193122+224929814+224185016+223638124+223890579
4137+224849336+225845259+226261071+225959669+225230396+224498415+224095343
4127+224128345+224349951+224199133+223298765+222005883+221178346+221265945
4117+221866675+222343197+222604337+222946234+223364940+223554472+223520092
4107+223654485+224173762+224913731+225668808+226347617+226841647+227088205
4097+227208543+227340104+227362673+226962558+226004621+224806411+224016893
4087+224125760+225016887+226093582+226895996+227411774+227812942+228258660
4077+228883817+229523835+229691834+229299195+228884220+228679534+228227546
4067+227355645+226663926+226663849+227153947+227560827+227411542+226637905
4057+225675898+224987476+224557949+224264039+224368155+225090214+226017036
4047+226492320+226392322+226122637+226015751+226026122+225919530+225551721
4037+224964752+224351452+224019927+224267429+225074718+225968848+226436841
4027+226486701+226561885+226948998+227561802+228197748+228631423+228577570
4017+228020709+227478692+227429545+227622977+227437904+226735411+225917069
4007+225323134+225031298+225163029+225919608+227157507+228228057+228583220
3997+228417744+228299170+228290285+227998960+227403988+226951861+226878860
3987+227048485+227332906+227624076+227650608+227246329+226707284+226600584
3977+227210029+228264837+229159539+229374921+228807085+227868313+227236081
3967+227276080+227748129+228303814+229055516+230261513+231633403+232411513
3957+232135714+231092331+230018515+229548432+229936318+231000940+232104090
3947+232521790+232210496+231883413+232103532+232633738+232877881+232659279
3937+232262027+232044942+232246331+232866457+233467915+233362283+232412349
3927+231375235+231114312+231612150+232113517+232351824+232990464+234561112
3917+236460793+237397693+236783387+235231160+233741176+232896875+232880466
3907+233938153+236371631+239792874+242809219+244186403+243794260+241980707
3897+239319881+237022019+236345300+237441515+238881516+238921685+237946257
3887+238029630+239968273+241945104+242094017+241148403+240309473+239324927
3878+238166593+237952418+239288752+241611071+244295704+246637032+247148152
3868+245590584+244008295+243827525+244095647+243282614+241585514+240243468
3858+240187943+242383469+248016833+255245704+257567219+253410387+247303040
3848+242804497+241008359+241499030+243346003+245755766+248342956+250730893
3838+251986315+251522471+250214929+249059535+247911603+246360660+244912007
3828+244418968+244975736+246402718+249131562+252903153+255141929+254200757
3818+252279885+251463973+250807563+248807157+246226608+244940907+246199100
3808+249518272+252471429+253711062+254777107+256669668+257631846+256530135
3798+254980756+254117818+253265344+251973328+251049199+251323140+252825013
3788+255209823+258128879+260991960+263269714+265380815+268247348+271768698
3778+274965627+277762317+281113113+285713356+291583974+298077118+304019686
3768+308936393+313484191+318161832+323117083+328860707+335499359+341682943
3758+346088825+349717138+354969535+363547991+375297649+387006905+394730209
3748+399506640+405392739+413759713+421101167+424496235+426589751+430893065
3738+438128918+445911570+450585279+450773944+448512351+446811118+447338320
3728+449888978+452697216+453590510+451895901+448698879+445251553+442122455
3718+439670743+438670888+440235963+444785123+450344263+452851144+451064154
3708+448151646+446977368+448266876+451650086+455716564+458122797+457918715
3698+456846818+457233002+459844061+464001372+469014269+474394589+478367879
3688+478753382+476319470+473888067+473379842+475152405+478386176+482006471
3678+485547201+488232902+488395778+486404582+484660501+483482538+480652660
3668+475570725+470527952+467678446+467708291+469580016+471366696+472366149
3658+473424702+474794673+475591436+476131951+477949838+481010826+482642928
3648+480887021+477440499+474592201+473161921+473256904+474606442+476457269
3638+477967176+478875670+479657759+481178284+484347505+489519222+495100249
3628+497890871+497169462+495113685+493754055+494255066+496999620+500793441
3618+503368154+504399061+505943053+509317192+513229865+515566564+515876155
3608+514953048+513480726+512093263+511849306+513655119+517282194+521649438
3598+526139560+530456496+533468073+534331461+534477711+536276930+539939825
3588+542479214+540939927+536828250+533980137+533964348+535323885+535956875
3578+535824061+536685652+539388134+542254017+542827937+541168158+540025643
3568+541259735+543377151+544192923+543993052+543870268+543836708+543639684
3558+543630025+544293850+545523236+546407490+546297647+546328358+548190919
3548+551399768+553638172+553744919+552617327+551391780+550548207+550199112
3538+550199607+550365734+550744116+551353329+551945824+552290151+552304702
3528+551853999+550855754+549577329+548469799+547636875+546667484+545398842
3518+544439791+544351248+544985353+545882423+546422969+545834065+544218681
3508+542984652+543118767+543966798+544460410+544578302+544767958+544836501
3498+544326171+543351827+542588995+542802736+544172057+545871030+546778380
3488+546613244+546001863+545536672+545197918+544544000+543114247+540968038
3478+538885358+537950269+538853904+541230448+543591326+544434466+543501173
3468+541651553+539951032+539116808+539229933+539650853+539486522+538554343
3458+537585571+537307187+538014293+539700449+541605734+542191046+540664949
3448+538111071+536247767+535741152+536261884+537090164+537313998+536509681
3438+535072931+533493088+532116090+531403349+531355734+531261185+530904908
3428+531033079+531913989+532563015+532063150+530719958+529471626+528736533
3418+527981069+526401969+524285110+523220675+524179725+526010894+526684131
3408+525544898+523711005+522723100+523217888+524561327+525779506+526851495
3398+528329978+529817872+530170930+529310514+528510531+528581799+528779133
3388+527814509+525492143+523017707+521920578+523002908+526036342+529881586
3378+532919726+534052643+533468073+532085688+530581262+529380915+529153676
3368+530419779+532629577+534591331+535885360+536966389+538064570+539012786
3358+539936110+541040544+542094021+542915861+543705875+544387532+544381217
3348+543397708+542035446+541390940+541920959+542925272+543365387+543071895
3338+542835181+543183224+543859246+544653843+545581191+545939821+544722943
3328+542339155+540317835+539266650+538663691+538555706+539682493+541718301
3318+542837225+541639170+538859414+536703670+536758716+538773534+541143948
3308+542286524+541802076+540622163+539911590+539930042+540222915+540491392
3298+540730149+540841787+540736464+540583712+540684639+541244936+542462248
3288+544421216+546692313+548339647+548716481+548295313+548174325+549020004
3278+550849005+553203630+554984707+554690534+551902296+548349863+546391081
3268+546611510+547845354+549151518+550394278+551115873+550775694+550122829
3258+550440841+551551281+551923162+550655821+548626452+547490748+547735016
3248+548361256+548864651+550142333+552307550+553268211+551155129+547002338
3238+543482660+542149995+542799207+544386108+545809793+546416715+546533926
3228+547226172+548848367+550221588+550008404+548299276+546131830+544215214
3218+542733264+541697497+540928039+540120502+539274638+538861767+539226899
3208+539855430+539724783+538589513+537391148+537195363+538063270+538874522
3198+538270696+536211359+534199699+533418910+533323061+532848210+532000798
3188+531214127+530441326+529814405+530006970+531122922+532063893+531672632
3178+530112665+528590220+527853146+527414703+526417820+524853457+523373736
3168+522291035+521356256+520370518+519691399+519871458+520650203+520804069
3158+519651834+518146169+517539371+517711441+517710946+517088792+515990209
3148+514670237+513319367+511932059+510435930+509049675+508043628+507369029
3138+507150427+508016229+510137051+512313475+512790122+511087495+508449037
3128+506271312+504786855+503682760+503134784+503318681+503580595+503101751
3118+502018988+501151761+500887092+500817496+500369301+499490682+498600546
3108+498088173+498098235+498515316+498871284+498617109+497689327+496437527
3098+495134985+494052624+493550591+493569786+493496723+492935527+492197648
3088+491710290+491284355+490419419+489227525+488473981+488554629+488905086
3078+488735121+488121790+487857523+488234543+488508872+487826812+486393963
3068+485188973+484659356+484343790+483764421+483096417+482763142+482768993
3058+482818032+482966605+483554487+484296608+484224783+482937473+481157108
3048+479876020+479591785+480255331+481294752+481761368+481027420+479411294
3038+477931325+477467217+478076616+478951582+479055047+477950581+476062572
3028+474149176+472674099+471677309+471005156+470486343+469947562+469318442
3018+468703935+468250446+468128344+468488739+469072844+469115475+468179767
3008+466867163+466126250+466073558+465967708+465245092+464172669+463385844
2998+463088482+462909321+462404100+461520992+460606893+460019259+459731711
2988+459383173+458796529+458282856+458273599+458692847+458830337+458025524
2978+456456919+455035278+454496342+454806738+455406199+455779472+455795323
2968+455594399+455138526+454165822+452773685+451498325+450533546+449592514
2958+448723244+448353097+448447058+448492166+448293161+448038646+447726392
2948+447186280+446459020+445707952+445052548+444745310+445118305+445980361
2938+446416668+445761109+444486244+443477504+442925287+442605232+442543654
2928+442728511+442825258+442724022+442808664+443280883+443641432+443236333
2918+442100722+440890562+440007516+439224251+438352690+437722084+437661931
2908+437951584+438080900+437835395+437420976+437093862+436893000+436800153
2898+436829410+436698669+435850762+434248350+432696463+431894406+431628622
2888+431360950+431146682+431371197+431890969+432136661+431964931+431718620
2878+431514847+431211201+430931516+430808485+430421124+429346627+428029751
2868+427297104+427267259+427358093+427143856+426751078+426490589+426383780
2858+426148305+425602155+424941303+424498928+424352894+424321440+424203888
2848+423878817+423318148+422680112+422257458+422116564+421930871+421392183
2838+420585296+419739060+418889666+418057795+417445579+417163108+417019427
2828+416797884+416507085+416203810+415777410+415127733+414441123+414058468
2818+414093823+414322116+414384684+414014351+413215824+412310146+411636817
2808+411248744+411076364+411136146+411290168+411156301+410587613+409896823
2798+409414728+409172689+409004365+408647685+407891912+406854813+405936287
2788+405363823+404952717+404396753+403669308+403070621+402872823+402957960
2778+402942605+402650629+402228905+401784177+401208555+400424949+399575246
2768+398923464+398652665+398703469+398801052+398705821+398365179+397808410
2758+397096103+396406923+395972938+395882600+396044268+396245285+396161665
2748+395564061+394678446+394032948+393766669+393443921+392756350+392014322
2738+391653959+391620647+391539379+391192111+390617324+390028358+389706817
2728+389710161+389724371+389423975+388868073+388368765+388053137+387687541
2718+387010868+386199523+385726530+385691546+385664643+385317932+384827385
2708+384525472+384468352+384428198+384125264+383458993+382601859+381834383
2698+381283528+380915486+380726450+380752239+380908675+381002760+380891927
2688+380517198+379902845+379268122+378944352+379009273+379154564+379020511
2678+378580459+378129075+377884312+377680818+377224636+376574835+376073577
2668+375868256+375800518+375690551+375523619+375379691+375210313+374745215
2658+373822634+372739003+371978431+371740511+371971342+372537398+373089956
2648+373117602+372447555+371487977+370783132+370472890+370309550+370058441
2638+369685972+369257622+368904038+368816579+369024407+369263659+369266848
2628+369032426+368703176+368413677+368317580+368493335+368745466+368712092
2618+368230523+367475214+366773186+366396166+366417404+366618916+366647151
2608+366395268+366102859+365978342+365904566+365661940+365286437+365031798
2598+365031458+365121394+365006195+364545152+363865291+363259916+363013203
2588+363234437+363748358+364169092+364202869+363894454+363473565+363038776
2578+362599930+362324333+362432751+362868996+363283105+363335395+362969211
2568+362455723+362153655+362180187+362384858+362597825+362700052+362534669
2558+362040500+361434011+361028725+360914734+360943959+360972844+361021419
2548+361184914+361450295+361676792+361741559+361631004+361421132+361250609
2538+361253767+361434073+361644378+361746698+361777843+361918211+362242570
2528+362528136+362475351+362135761+361880936+361911648+362070963+362162262
2518+362158732+362091613+361987900+361897685+361829916+361771775+361807687
2508+362001491+362197555+362185698+361984216+361765552+361641375+361634440
2498+361698092+361749546+361802888+361947746+362117092+362101210+361867655
2488+361656638+361697101+361954805+362185481+362195016+362037744+361927437
2478+361976569+362118919+362251393+362320215+362274674+362044153+361599394
2468+361035815+360585112+360476105+360728639+361109714+361328595+361309277
2458+361263364+361415931+361679052+361745119+361509706+361240950+361278596
2448+361660848+362068053+362121860+361770258+361336304+361152159+361245965
2438+361429924+361564194+361652365+361749763+361830566+361780195+361602057
2428+361574565+361994494+362737884+363291835+363305581+362939737+362602995
2418+362557176+362857479+363421833+364013925+364349677+364353608+364206955
2408+364123366+364204757+364471903+364874991+365301916+365686428+366029022
2398+366264156+366298149+366245921+366420066+367027638+368048886+369430807
2388+371284638+373941671+377883817+383524967+391043786+400528817+412186155
2378+426184155+442352234+460199410+479163125+498753732+518485945+537595107
2368+554888053+569120259+579344500+584778812+585106112+581225823+574566707
2358+565179661+551724095+533690298+512585203+491650570+474948013+465756165
2348+465869382+475437724+491543792+507874777+519619698+527194027+532635831
2338+536302626+537760428+537409104+536402624+535309087+533406093+529473483
2328+523139500+515417868+507885396+501385657+495590858+489665658+483121401
2318+475938828+468198621+460033252+451847481+444164548+437237079+431077519
2308+425666550+420772691+415915890+410972373+406504789+403088794+400647638
2298+398733313+397059045+395504682+393984838+392553878+391404614+390632556
2288+390116932+389653506+389138470+388608946+388155302+387870509+387854194
2278+388110876+388422386+388498607+388321800+388202948+388423779+388907391
2268+389307011+389384533+389219769+389051754+389013891+389067852+389138130
2258+389248901+389482611+389814864+390113960+390350085+390653887+391116694
2248+391654113+392095559+392350600+392473786+392557066+392559203+392336607
2238+391868443+391291180+390685899+390009535+389249520+388504459+387885463
2228+387420147+387058886+386727747+386381748+386006679+385581084+385121744
2218+384786271+384777572+385069857+385424122+385800275+386518526+387803204
2208+389352490+390590947+391280004+391717672+392377751+393490390+394945065
2198+396445405+397743520+398851051+400046691+401602571+403507856+405455586
2188+407034221+408021104+408610225+409219283+410004003+410755287+411268930
2178+411572515+411817556+412126249+412480204+412722212+412776669+412770074
2168+412779145+412637941+412195288+411581431+410977729+410269230+409242564
2158+408020856+406916886+405948857+404895814+403697449+402465773+401293507
2148+400240030+399321350+398565484+398232890+398706750+400040035+401912472
2138+403990570+406080309+408171720+410529565+413423033+416724820+420070941
2128+423299696+426511672+429886585+433557529+437507754+441599804+445784824
2118+450192780+454977539+460105666+465266887+470132760+474901141+480379539
2108+487276700+495671661+505456562+516903161+530216687+544746410+559268827
2098+572994480+585731362+597100718+606197492+612323058+615886760+618083432
2088+619460740+619331269+616776524+611548771+603909676+594347340+583510171
2078+572030971+560459761+549240123+538616447+528822290+520253121+513101973
2068+507049593+501565499+496297499+491195966+486485757+482334451+478541962
2058+474865941+471415828+468375459+465723658+463462839+461718573+460521632
2048+459742422+459198967+458856373+459071167+460415969+463152815+467220314
2038+472731033+480097719+489760765+501963664+516428063+532148906+547988509
2028+563429791+578260932+591913088+603826211+614181471+623592665+632134155
2018+639101872+643873659+646710069+648396721+649365803+649432550+648183599
2008+645342297+640846726+634837318+627662981+619848038+611810561+603520397
1998+594695321+585463256+576493911+568266964+560561555+552933977+545422247
1988+538497317+532570383+527719898+523708466+520193061+517019227+514333154
1978+512373072+511172880+510477880+509952689+509543070+509612821+510549086
1968+512165243+513682889+514508042+514838066+515319604+516392429+518055521
1958+519987307+521842623+523596270+525515672+527709743+529952482+532020116
1948+533943110+535972045+538516635+541847958+545571656+548779947+550996371
1938+552493367+553749563+555191142+557218406+559897049+562773273+565417427
1928+567982388+570863813+573999227+576896503+579357751+581746617+584248669
1918+586280700+587173437+587259998+587582902+588770988+590672434+592730780
1908+594386720+595343542+595810839+596366059+597349877+598580625+599793912
1898+601057167+602479180+603799090+604724582+605490448+606485659+607455298
1888+607749533+607292762+606558041+605868458+605385434+605371627+605927900
1878+606706769+607203229+607279450+607367498+608161165+609899085+611666973
1868+611752792+609535316+606313341+603610859+601758143+600207154+598503227
1858+596711625+595164599+594024561+593092630+592089246+591058432+590309036
1848+590156903+590747479+591503128+590911190+588267160+584878563+582196576
1838+580446335+579214906+578318206+577988863+578457460+579245122+579162832
1828+577797289+576027791+574271419+571910293+568886270+566256604+564796450
1818+564203707+563768979+563239950+562804975+562551358+562292230+561887223
1808+561430762+561115847+561256896+562271488+564136526+565982864+566821856
1798+566698948+566667370+567874155+570668709+573702391+574598471+573055470
1788+571246715+570982510+572366011+574499154+576702699+578747671+580430422
1778+581778009+583515372+586707874+591558235+596222904+598066271+597025550
1768+595155930+594031186+594382014+596362468+599101419+601057972+601899812
1758+602589519+603504546+604489726+606189628+609510363+613867670+617144380
1748+618247639+618323117+618928863+620676256+623246604+625675159+627007763
1738+627765146+629935688+634468533+638782002+639222798+636976839+635186413
1728+634891930+635864355+637700972+639831887+642018033+645106760+650155383
1718+656400886+660605193+660743580+658625854+656722675+656153399+657164770
1708+659712456+663326497+666942272+670108211+673854200+678967652+684022839
1698+687205620+688466522+687706290+685481632+684081228+684924182+687417442
1688+690740839+695436777+701793422+706953003+707816700+706172462+705026666
1678+705755753+708682130+713033370+717237553+720786766+724303967+727445076
1668+728935138+729161015+729880938+731618920+733086319+733152819+732688061
1658+733425445+736572128+742802646+751072935+756343287+756366878+755512160
1648+756017907+756047318+753099393+748324572+744487378+742737570+743067222
1638+745202781+748038758+748622089+745334728+740961261+738447692+738245467
1628+739244455+740658604+742686425+744694123+744808176+743135270+742270459
1618+743630678+745496335+745110151+742790386+740719841+740062332+740778107
1608+742104766+743301211+744362860+745677445+747091100+747952939+748192253
1598+748690137+750326511+753022862+755707326+757159431+757192929+757019124
1588+758164425+761001579+764539522+767474816+769142830+769940646+771265943
1578+774457269+778765784+780830756+779426947+777090464+775180040+772595265
1568+768888532+765779806+764408318+764478285+766118189+770290484+775987143
1558+777795588+773723910+767943661+763110574+760457194+760626231+762783151
1548+765521050+768811197+773767067+780839672+788959314+794941355+794171712
1538+787878594+782695732+781608325+783374108+785152027+785874117+787227463
1528+790807882+796268633+802165660+808166152+814775671+821020492+825402071
1518+828617112+831861068+834917226+837554383+840575991+844876457+850806548
1508+858119768+864641425+866994564+866170433+865603139+866803547+869745775
1498+873760489+878014517+882238576+887000580+892882746+899396912+904617854
1488+906798736+906667346+906825423+909351685+914177651+919337542+923369840
1478+927010815+931719632+937830772+944441344+949534239+951283118+950917801
1468+951368070+953731302+956372484+957057795+956099363+955141365+954359586
1458+952828844+950554775+948831777+948066468+947635518+946975160+945932520
1448+944585613+942817106+940555420+938682271+938982203+942578473+948768868
1438+955947478+962768386+967674040+969258774+968090440+965624115+962359106
1428+958590765+955435105+953758484+953090820+952813241+953816873+956955815
1418+959998723+959543748+956349946+954166277+955042853+957206894+957251351
1408+954770846+952299939+950844799+949044590+946917267+946812687+950084382
1398+955217091+959396754+960793072+959460654+957406766+956855384+957993564
1388+959029084+958774848+958602963+960067948+962580031+965428949+969319330
1378+974323249+978668854+980663362+980136501+978099454+976430387+977161084
1368+980598720+984681296+987553990+989979883+993538879+997096513+997894019
1358+996365506+996233683+1000061403+1006967635+1013888417+1017565181+1016664828
1348+1013690774+1012570426+1013995969+1015520952+1015998465+1017272865
1340+1021132659+1026757680+1031643273+1034217893+1034961345+1035572973
1331+1037513117+1040893231+1044562875+1046983629+1047599467+1047011492
1322+1045873559+1044876924+1045085341+1046991678+1049438561+1051015741
1314+1052537319+1056264051+1062628003+1069420924+1073741823+1073654023
1305+1069971872+1066938747+1067929438+1070636502+1069639124+1064270940
1297+1059398102+1058571990+1060160068+1059992641+1056242380+1050545287
1288+1045676659+1043148663+1041987450+1040147984+1037103219+1034413678
1280+1033117854+1031702900+1028201364+1023233668+1019532817+1018642557
1271+1018942675+1017290574+1012303125+1005380176+998428497+991821516+985389083
1261+979888952+976248967+973828151+970808215+966432209+961667295+957737347
1251+954490914+950419298+944361841+936866829+929088852+921143757+912417255
1241+902850151+893157601+884266644+876998191+871707591+867956216+864835167
1231+861499634+857410371+852698521+848342328+845373722+843859823+842932350
1221+841840794+840688806+839915696+839615083+839922321+841317462+843959325
1211+847249224+850391449+853001424+855004664+856706052+859083463+862925982
1201+867613684+872011672+876161367+880339916+883439417+884358964+884342308
1191+885814785+889261213+893040823+896159643+899591273+904631723+911153505
1181+917839988+923387487+927137438+929695217+932923693+937915847+943353255
1171+947680099+952146753+959295518+969607807+980769428+989415685+992880008
1161+990537271+985626663+983485284+986395006+991865416+996296220+998992571
1151+1001532456+1004550163+1006935685+1007855356+1007609850+1006506716
1143+1004460134+1001705950+999332131+998943470+1001862604+1008559180+1017943687
1133+1026439358+1029543069+1026334345+1020829818+1017353297+1017323452
1124+1020858548+1027249434+1033035751+1033677595+1028993793+1023353355
1115+1020449702+1020623506+1022077903+1023000669+1022718508+1022150161
1107+1022873428+1025421237+1029843930+1035607709+1039957276+1040362716
1098+1038746280+1039321624+1043300734+1047645286+1048733808+1044731912
1090+1036530847+1029016022+1026980709+1029845044+1032095833+1029284685
1081+1022303409+1015101023+1009982122+1005929638+1001150978+995958270+991750991
1071+988804552+986778465+986103681+987135238+988948140+990281796+991052492
1061+992588868+995447198+998518835+1000796620+1001882665+1001506450+999157769
1051+994437436+987964198+982603631+981663837+984973859+989310176+992642551
1041+994714334+994538053+991821083+988809444+987541978+987360372+986131606
1031+982239180+975903340+969852632+967480360+969640624+974326469+978933059
1021+981971199+983579957+984958256+987119882+990202355+993269287+994318986
1011+991445177+985191811+977725468+970008975+962413533+955623769+949488110
1001+943115490+936614203+930921073+925933687+920676832+915268340+911073630
991+908832315+907608440+905703094+902105709+896827430+890172154+882924443
981+877184070+875180707+876903395+879509593+879724140+876811013+872319034
971+867840429+863944598+860178796+855535179+849746695+844130281+840367822
961+838916336+839211748+840636795+842570376+844116597+844654233+844866241
951+846882235+852551031+861135432+869144054+873767238+876266690+880036084
941+886327653+893529668+899649909+904208760+907905895+911287557+914303035
931+917432071+922533387+930982372+940728481+946924140+947013116+943563406
921+940488486+938456641+935816140+932598994+931304223+933616001+937356850
911+938120797+934338895+928861488+924968010+923164519+922813381+924649689
901+929548656+935759113+939704726+939790049+937699320+936235512+937378150
891+941305807+946134373+949753120+951757536+952222355+950826410+949121616
881+950357627+955104090+959661517+960834123+960292091+961491818+964642711
871+967588593+969711149+972209734+975364713+976969323+974339162+968540523
861+963667624+961988340+962913584+965659284+970382466+976143334+980759026
851+983539958+985490814+987695721+990379937+992655244+993053317+990759000
841+987079883+985628211+989283799+995620197+997764115+993315231+988216639
831+988495518+994083078+1001166210+1006722748+1009346470+1009241766+1008963691
821+1010565639+1013240133+1015423369+1017379364+1019158707+1019415296
813+1019199450+1022299074+1028672066+1033587752+1034927847+1034790760
804+1034191887+1032966526+1033337354+1037227922+1043110398+1048318089
795+1050510489+1046210518+1034741907+1022259571+1015055327+1012222136
787+1008700353+1003054962+997725168+994623810+993940542+993849213+990663584
777+983182876+975320070+971270435+970557570+969642048+967342344+965946275
767+966846194+968249322+968621265+969995353+975143294+982310634+986351353
757+985810250+984229974+984472879+986347453+989343674+993847294+998178471
747+997902440+992593326+987680861+987177032+989877037+991587775+990092141
737+988088035+990967788+1001090855+1013668731+1019546625+1015407703+1007853622
727+1003323439+1001473819+999387114+996794414+995455804+995763352+996817200
717+998481313+1000122702+1000819963+1000826464+1001751027+1006010317+1013970396
707+1021663113+1023973900+1020226053+1014105502+1009316811+1005052753+996332380
697+983359900+973549891+971810237+976889015+983794008+985741583+977681754
687+962007225+947281965+939812526+940025091+945932148+956738235+969913312
677+979355836+982229212+980326527+975665512+968711356+960577596+957958395
667+968371177+984301923+991846098+985885171+969810466+951369866+936985465
657+930496067+933262695+943385762+957137545+971431484+982292121+985666662
647+980059350+968242325+956924237+949013569+942099164+933334211+923029228
637+914878008+914611202+923171454+933362322+936428573+930885346+925800810
627+928668799+937984019+946832996+952172635+960021509+971926148+974095266
617+955760794+929579616+910978214+903804744+906059743+913796359+920877323
607+921490251+915860464+912167415+918599043+933489749+942272721
##END=
