##TITLE=<SNM>
##JCAMP-DX=4.24
##DATA TYPE=INFRARED SPECTRUM
##DATE=29/4/2025
##SAMPLING PROCEDURE=Instrument type and / or accessory
##ORIGIN=Admin
##XUNITS=1/CM
##YUNITS=ABSORBANCE
##RESOLUTION=4
##FIRSTX=4497.3318
##LASTX=599.83466
##DELTAX=-1.4281778
##MAXY=2.1071022
##MINY=0.37506294
##XFACTOR=1
##YFACTOR=1.9623918e-09
##NPOINTS=2730
##FIRSTY=0.38578671
##XYDATA=(X++(Y..Y))
4497+196590054+198334464+200409184+201328710+200566063+198879956+197347402
4487+196451369+196280260+197005290+198517403+199940977+200346296+199798784
4477+199032567+198437688+197950087+197618698+197696241+198270664+199151950
4467+200084385+200876161+201364657+201474685+201339007+201187109+201009485
4457+200583163+199876494+199156962+198704655+198672581+199161199+200002878
4447+200476021+199831192+198329467+197149762+196939122+197116882+197026081
4437+197111324+198214701+200160289+201719313+201836646+200592928+199017305
4427+198082926+197907807+197850705+197281461+196213211+195234016+194872055
4417+195146783+195800845+196632243+197396576+197710714+197398885+196706005
4407+195917935+195175410+194804626+195221274+196290359+197280914+197607976
4397+197291970+196711852+196188365+195799145+195464535+195077699+194605498
4387+194293987+194580834+195323618+195472129+194306440+192561910+191430270
4377+191125412+191192993+191382280+191611509+191874452+192429968+193369966
4367+194184947+194406749+194259696+194201288+194345896+194563810+194657846
4357+194465719+194110182+193927304+193980366+193966470+193752398+193638498
4347+193834239+194033246+193950266+193920044+194353200+194946060+195092005
4337+194705153+194024727+193138702+192324283+192262686+193261198+194660155
4327+195552831+195859573+196159556+196653216+196933001+196688465+196047432
4317+195283798+194670634+194456622+194643328+194977026+195362541+196008524
4307+196997211+197987431+198509065+198497523+198331639+198249448+198034601
4297+197392491+196309966+195036269+194000230+193638543+194076787+195009313
4287+195900334+196304650+196175943+195872831+195685897+195534728+195336405
4277+195309661+195631210+196156534+196659883+197044928+197294522+197446996
4267+197587079+197696940+197577207+197081528+196463306+196303648+196847697
4257+197558588+197804006+197816307+198268492+199158891+199886305+200094758
4247+199777978+199033190+198293566+198199894+198777931+199308677+199338398
4237+199242919+199513182+200023411+200335164+200363214+200382714+200568462
4227+200850936+201131298+201318383+201242131+200906686+200742001+201204240
4217+202189570+203189085+203868115+204137603+203903910+203191409+202326175
4207+201716185+201605139+202084509+203018280+203985295+204624277+204893599
4197+204785697+204123540+202945536+201831847+201495871+202049974+202822219
4187+203083963+202902345+202834460+202858576+202441290+201755078+201751828
4177+202761533+204049216+204983292+205716477+206488950+207070268+207129542
4167+206671586+206016582+205529543+205260829+204939189+204497316+204225109
4157+204210925+204159320+203981514+204021455+204386347+204663611+204648834
4147+204738573+205220994+205689475+205550364+204811135+204077676+203933326
4137+204494765+205433016+206261468+206605417+206389857+205962593+205854342
4127+206220221+206714093+206948698+206786124+206254133+205603366+205315547
4117+205601528+206126944+206532247+206809709+206976247+206916791+206720320
4107+206728627+207110270+207680835+208236837+208792610+209334701+209621351
4097+209470789+209056283+208660941+208285662+207752137+207118106+206775843
4087+207040806+207766488+208592282+209398060+210180769+210773659+211091290
4077+211323647+211553832+211587714+211333290+210846130+210026472+208836956
4067+207705119+207209864+207471835+208084681+208488010+208357890+207871064
4057+207626041+208088219+209087977+210006516+210416467+210432170+210539662
4047+211144519+212037180+212330846+211453007+210105823+209502454+209883094
4037+210465824+210604904+210411668+210401782+210926559+211790335+212354446
4027+212241897+211703710+211059382+210351438+209803075+209910278+210807040
4017+211970009+212643192+212393279+211449955+210604525+210472719+210907895
4007+211408434+211813662+212247714+212720264+213115226+213330619+213300063
3997+213065884+212784383+212548153+212390773+212456668+212827179+213226119
3987+213329845+213291483+213477961+213787178+213697364+212997680+212145689
3977+211820815+212290829+213282052+214330863+215084216+215282023+214829580
3967+214119418+213934292+214700599+215947992+216703487+216471342+215708847
3957+215235051+215334129+215647462+215887412+216265137+216975116+217625701
3947+217710519+217499530+217764720+218622406+219233217+218875265+217811799
3937+216899350+216927491+218234097+220344870+221985296+222076750+220888252
3927+219748047+219711568+220623714+221398678+221458210+221512062+222427063
3917+223713546+223831183+222195253+219943257+218475034+218141731+218623166
3907+220038508+222930199+227096604+231122364+233584437+233920201+231979883
3897+228366109+224869682+223313725+224136117+225842985+226339439+225899221
3887+226774265+229527423+231798493+232046431+231699050+231315387+229457883
3878+226616718+225511109+227221575+230371881+233725051+236752314+238029260
3868+237010109+235605564+235056138+234136840+231680370+228753218+226985346
3858+227214043+230423334+237672934+245645985+246230340+239398117+231749956
3848+227185993+226346167+228268762+231558512+235198225+238887675+242423997
3838+244773962+244855637+243070816+240437816+237424585+234467181+232372976
3828+231557920+231711078+232987842+236556603+242168177+246070196+245841635
3818+244109558+242771956+240222771+235723717+231510977+229879831+231732552
3808+236165909+240267436+242343371+244055615+246462393+247506815+246043133
3798+243919374+242150014+239976260+237295042+235364080+235202872+236764296
3788+239374076+242049219+243633955+243964525+244611312+246934199+249836840
3778+251138404+250871816+250946337+252880595+257101718+262811869+268256617
3768+272386011+275443010+277800811+280297358+284790718+292240722+300677439
3758+306979417+311002899+315626895+323885472+336582128+349761024+357631974
3748+360912855+364361277+369344834+372389227+371839346+371331896+374754531
3738+383405137+395058222+404636708+408573261+407809672+405490719+404133602
3728+404786905+406836871+408747028+410043641+411449841+412804528+413018540
3718+412098861+411714516+414043249+420229778+428362396+433668337+434433050
3708+433858961+434861376+438123031+442701163+446225974+446848842+445978703
3698+446327634+448577852+451926345+456208761+462049487+468917718+473471309
3688+472329205+466955471+461691202+459289633+459906913+462291443+465967118
3678+471722009+478370002+481264381+479950030+480077356+483767125+485954166
3668+481939492+474748270+469710223+468750603+470375280+472478916+474834743
3658+478085221+481261891+482929728+484650689+490098656+500658782+510802275
3648+511413572+502889349+493132510+487308246+486073746+487570035+489831613
3638+492264042+494969953+497612232+500074457+503692849+510148699+517797710
3628+520969368+517944475+513028954+510352505+511872272+517295333+523752307
3618+528023667+530199319+532177056+534134444+535253646+536240784+538156256
3608+539780143+539344284+537677449+536893023+537537852+538736632+540365986
3598+543306806+547267507+550253583+551088307+551263805+553127460+557189486
3588+561797809+564508945+564098174+561399188+558450896+556538886+555379045
3578+554616428+554701109+555830820+557506463+559254760+560810125+562064974
3568+563325048+564724171+565497844+565250908+564758372+564563253+564253079
3558+563454317+562777900+563371823+565341664+567263576+568386604+569966632
3548+573092062+576665804+578100525+576209291+572780552+570529452+570517971
3538+571597809+571854464+570583760+569149464+569865245+573311480+576777882
3528+576830489+573483272+569667575+567394242+566538136+566278807+566420530
3518+567352874+568911701+570036005+570214115+570117588+570098514+569738831
3508+569334378+569858745+571368611+572879387+573730208+574260833+574851597
3498+575175742+575098594+575353913+576545282+578499633+580844707+582946126
3488+583682986+582832043+581935297+582227065+582941388+582743474+581760710
3478+581322968+582374376+584599779+586887023+588428476+588726015+587391951
3468+585298065+584476524+585629257+587100731+586825972+584213186+579976694
3458+575464716+572313833+571588940+572745744+573883655+573665209+572684571
3448+572229759+572479490+572683356+572370935+572047518+572965526+575442908
3438+577359534+576193618+572800355+570442098+570411786+571385194+572008762
3428+571929912+571233327+570419257+570356324+571464226+573287120+575185766
3418+576873073+577884934+577564069+576425611+576298467+578189155+580941356
3408+582460880+581771220+579553713+577265619+576028812+576163488+577247942
3398+578179071+577694128+575663662+573665391+573746003+576635552+580989164
3388+583979857+583329318+579422439+574343145+569343429+565146423+563720450
3378+566967191+573468328+578789456+580200000+579384776+579477112+581513592
3368+584252914+585965735+586271231+586616091+588391724+590876821+591208074
3358+587786928+583207702+581160470+582105145+583591441+583772770+583158011
3348+583297729+585031872+587964795+591178186+594238678+596937846+598349180
3338+597599502+595641993+594283752+593664376+592728023+591640228+591786810
3328+593624101+595894092+597127073+597216614+596888398+596306260+595201395
3318+593937798+593489850+594538464+596912393+599164768+599014298+595584162
3308+590819172+587459927+586186003+585919203+586178714+587457072+589420049
3298+591043571+592425807+594226103+595856065+596268051+595680871+594781269
3288+593533406+592089633+591574317+592960441+595942690+599453073+602504939
3278+604160536+603717144+601593066+599250239+597668267+596551678+595639927
3268+595703347+596984439+598060450+597659702+596130702+594228351+592329159
3258+591378165+592365424+594521515+595960610+596069833+595707721+595566606
3248+595620245+595818341+596219089+596224920+594775984+592020746+589804394
3238+589833553+592112839+595403379+598356105+599907217+599738523+598846940
3228+598622784+599143082+599046615+597176096+593878752+590565979+588494569
3218+588194115+589592631+591939588+593741282+593880332+592778078+591605359
3208+590905979+590603885+590498732+590185521+589229060+587825441+586682184
3198+586111041+585685266+585016807+584317245+583761471+583190268+582893944
3188+583571394+584776310+584497542+581601493+577733796+575190565+574143531
3178+573133856+571241285+568846276+566781913+565566853+565221264+565384430
3168+565875022+566930318+568353862+568962485+567780167+565458480+563498602
3158+562384321+561532588+560739719+560415452+560517628+560652851+560996800
3148+561697273+561744109+559973639+556939877+554395917+553175997+552651508
3138+552215527+552328212+553423419+554447187+553862012+552131575+551405223
3128+552344614+553027470+551654286+548901174+546515338+544959366+543678638
3118+542664894+542460662+543129790+544288355+545768819+547435897+548708606
3108+548768928+547085327+543893986+540403832+538108266+537575211+538168466
3098+538754492+538266815+536338647+534082931+533448247+535120063+537496240
3088+538340076+537316126+535958796+535330551+535109615+534880174+534717372
3078+534286494+532989486+531156690+529715469+528887306+528223524+527408604
3068+526420252+525555215+525474786+526538344+528068012+528762046+527961341
3058+526317893+525029876+524519905+524212465+523544735+522684983+522241774
3048+522589975+523377073+523695873+523016419+521771349+520737376+520160644
3038+519715066+519091923+518546537+518711162+519592903+520135009+519406896
3028+517796799+516245687+514838362+512984366+510718809+509074906+508935279
3018+509823034+510227731+509199619+507259605+505694156+505328521+505943280
3008+506566938+506448633+505786036+505270689+505256991+505679061+506294579
2998+506536261+505663206+503772002+502213570+502204093+503238704+503553708
2988+502222135+500222680+499051509+498786197+498223772+496877103+495900171
2978+496523283+498278626+499360013+498561008+496354983+493959640+492021813
2968+490599484+489845584+489966957+490658378+491264572+491487270+491423486
2958+491007977+489962522+488425503+487098122+486421280+486020380+485386729
2948+484683735+484374867+484445091+484444787+484076448+483459806+482997552
2938+483120565+483899219+484738104+484763739+483867387+483008851+482937321
2928+483089158+482450222+481006875+479533549+478458207+477665945+476994023
2918+476347949+475482366+474170779+472763364+472124336+472600714+473465659
2908+473822335+473594443+473223279+472954048+472785628+472720507+472816183
2898+473075937+473255536+472831826+471440782+469435282+467829589+467422949
2888+467826157+467657068+466086212+463810268+462125421+461589421+461821838
2878+462110356+462062427+461823691+461610318+461235479+460463810+459533653
2868+458911726+458795396+459019673+459176218+458880198+458165298+457493498
2858+457236234+457226727+456898998+455921580+454685774+453981231+454167664
2848+454824490+455199086+454926271+454315036+453888866+453698363+453375098
2838+452844869+452474009+452444638+452489044+452260817+451654229+450816863
2828+449934088+448961044+447750813+446476798+445569816+445184559+445007481
2818+444585685+443719980+442673645+441975328+441792541+441659718+441046174
2808+440003422+439109440+438873651+439269872+439825889+440069454+439818994
2798+439183338+438485204+437938634+437215806+435828194+434105684+433097194
2788+433281774+433916397+433827281+432622700+431044737+430173262+430339192
2778+430903683+431051966+430590138+429901693+429358220+429021318+428835979
2768+428832334+428959811+428822614+427917515+426300705+424753997+424011427
2758+423951226+423856643+423380782+422772098+422202656+421573257+421030969
2748+420918800+421044334+420702055+419662857+418527041+417836561+417350161
2738+416520266+415350098+414355732+413863013+413732650+413681805+413548010
2728+413236226+412691934+412024932+411474626+411169524+411025858+410867855
2718+410534597+409954738+409241174+408618396+408172939+407804600+407466968
2708+407250831+407126178+406793831+406000142+404937770+404101254+403719672
2698+403537887+403181302+402508378+401604646+400700823+400095905+399905888
2688+399915122+399837669+399626452+399400200+399165565+398776542+398184107
2678+397554982+397058588+396734291+396584458+396515116+396205033+395415778
2668+394461991+393983275+394171590+394499289+394287647+393355242+392061515
2658+390941463+390384322+390454455+390864497+391190313+391174184+390823158
2648+390306597+389829642+389492709+389198056+388773253+388179300+387468409
2638+386613882+385623038+384811125+384628277+385108876+385744046+385983359
2628+385691834+385104867+384542198+384164474+383883185+383565631+383298800
2618+383229396+383222076+382996584+382557292+382205476+382166720+382351725
2608+382423922+382113080+381550351+381170986+381200449+381423663+381549136
2598+381549227+381532552+381523987+381446626+381140461+380496604+379728247
2588+379268909+379248042+379349945+379321485+379223713+379074853+378765104
2578+378430085+378394092+378627634+378672829+378233963+377564532+377145469
2568+377151817+377367104+377536771+377608604+377606447+377482615+377196588
2558+376785665+376288057+375720923+375196161+374962680+375196009+375715547
2548+376063263+376000724+375755822+375610759+375515447+375301162+374968876
2538+374609953+374359281+374468747+375064340+375840534+376310533+376293099
2528+375947752+375542023+375361484+375562374+375911000+375943895+375587918
2518+375332811+375586126+376130692+376451193+376419695+376393817+376675288
2508+377107806+377295788+377064858+376574995+376134306+376063050+376493108
2498+377096872+377306813+376964899+376430447+376019768+375741881+375550832
2488+375478118+375521430+375622756+375729003+375803752+375826684+375796523
2478+375736262+375734409+375938914+376389200+376867036+377082292+377037765
2468+377012221+377138453+377260797+377258550+377195464+377093288+376892428
2458+376705692+376807747+377252445+377661606+377566628+377005873+376583682
2448+376740986+377198137+377416674+377349549+377332782+377466061+377529724
2438+377408625+377271215+377329532+377593387+377891108+378054912+378040758
2428+377930715+377862678+377902103+377975880+377985812+377936607+377882573
2418+377839017+377830816+377918504+378085224+378244958+378453685+378916820
2408+379662154+380375505+380705149+380652997+380581043+380855831+381484957
2398+382124015+382474373+382588698+382716601+382957037+383157654+383128982
2388+382926087+382816256+382833509+382489408+381181739+378805106+375731220
2378+372393996+369157976+366270948+363599874+360736142+357689380+355072766
2368+353313596+352175775+351240850+350444305+350092338+350615187+352241807
2358+354844753+358210437+362374275+367447889+372930179+377432893+379559036
2348+378855799+375970988+372423367+369842898+368709056+368212723+367595686
2338+367050179+367072655+367531690+367952848+368282886+368855821+369875671
2328+371153786+372226213+372827182+373269238+374066025+375317351+376769901
2318+378199489+379478000+380531746+381349613+381950613+382438988+383035340
2308+383866146+384850125+385885070+386936326+387959426+388960718+390011761
2298+391039114+391815034+392280629+392645992+393088624+393537058+393821627
2288+393914722+393895222+393748214+393436826+393127836+392998506+392861795
2278+392406284+391750187+391285807+391066328+390829901+390538437+390434165
2268+390581507+390713966+390608509+390392584+390370745+390676728+391217375
2258+391895585+392714605+393621435+394423325+394974847+395308894+395486852
2248+395473731+395248512+394899035+394525411+394136296+393675409+393102596
2238+392465573+391891636+391438373+390980645+390368619+389686765+389217252
2228+389127833+389301387+389499513+389622100+389751370+389971486+390223920
2218+390394376+390517176+390814654+391481108+392458587+393478407+394286402
2208+394789113+395063811+395309532+395721244+396335092+397066182+397917550
2198+398973301+400127372+401067096+401664512+402177733+402923523+403896537
2188+404782409+405287368+405496520+405870387+406712127+407733708+408434302
2178+408767742+409056837+409417795+409715516+409943560+410197634+410369275
2168+410282285+410129081+410413590+411348728+412545989+413417890+413723508
2158+413646390+413554540+413784650+414465532+415454097+416540525+417684087
2148+418925359+420221790+421615568+423408058+425840547+428705859+431608651
2138+434490091+437536762+440740434+443975452+447352920+451047792+454859419
2128+458284757+461041787+463398009+465951354+469058803+472452522+475482123
2118+477751264+479393133+480774791+482155478+483676126+485585220+488417303
2108+492892955+499572900+508550477+519313285+530740513+541312302+549523344
2098+554320530+555542393+554140354+551558913+548552973+544763761+539453628
2088+532367680+523865418+514506380+504666197+494568993+484642761+475634173
2078+468183713+462313858+457478979+453147935+449238931+445952521+443366160
2068+441388361+439951058+438968051+438194530+437395131+436611556+436075464
2058+435893224+435953940+436111305+436314534+436570279+436948003+437659016
2048+438955841+440923191+443570452+447113669+451922670+458220183+466095750
2038+475758886+487416163+500782463+514952081+528923025+542079901+553950763
2028+563771963+570787748+574820859+576154801+575245419+572871004+569994393
2018+567071311+563855247+560085171+555976734+551852746+547643287+542967899
2008+537586693+531645582+525536262+519630445+514162735+509237616+504816606
1998+500785774+497163555+494129762+491754071+489859830+488251190+486905433
1988+485889228+485275927+485142526+485473354+486110407+486915122+487885372
1978+489048190+490345836+491671486+492942706+494192848+495681209+497731205
1968+500239750+502543820+504137121+505340913+506859860+508930237+511261157
1958+513559153+515755520+517869817+519936063+522035477+524281716+526723865
1948+529303605+532046451+535190651+538753095+542066536+544361130+545770824
1938+547145223+549102672+551611884+554206265+556487373+558471732+560374144
1928+562328616+564597150+567487003+570667287+573295017+575179387+576811536
1918+578118263+578465007+578026961+577936387+579043864+581185255+583437812
1908+584950410+585624762+585962819+586383734+586880644+587220523+587308121
1898+587368382+587766942+588714048+590277735+592380733+594376513+595174424
1888+594588641+593764123+593520041+593532920+593391622+593164429+592815741
1878+592154936+591354292+590817714+590873844+591970448+594353550+596917496
1868+597300506+594473890+590002551+585878988+582884772+580894034+579464537
1858+578039171+576234076+574127068+572085364+570506429+569747153+569982305
1848+571207813+573325998+575491141+575698956+573015824+569234874+566328923
1838+564501655+563015056+561635493+560993945+561640292+562773101+562419433
1828+559883248+556625208+553804181+551152334+548385432+546043820+544709757
1818+544350803+544535717+545015982+545867047+546912927+547438995+547023668
1808+546201459+545746160+546028634+547262465+549389944+551546156+552606737
1798+552648227+553088460+555296794+559233317+562779783+563438219+561774361
1788+560534030+561148485+563073495+565376229+567836237+570216545+571875908
1778+573031376+575209518+579720524+585998234+591131836+592390331+590572539
1768+588040060+585997566+585227781+586533536+589386577+591813296+592974777
1758+593820010+594785400+595753889+597669300+601798087+607528406+612087342
1748+613489260+612596827+611560363+612020156+614434057+617720527+619852866
1738+620589058+622564792+627724637+633208202+633908857+630661083+627264357
1728+625212811+624814858+626162590+628596416+631443868+635502492+642221893
1718+650731810+656259052+655400941+650808776+646555458+644776787+646186116
1708+650579335+656474096+661660973+665952987+671604882+679283598+685462898
1698+687616924+687620386+686076928+682612652+679521119+679199646+681618468
1688+685876889+692664812+702556053+710863683+711564399+707573447+704684444
1678+705348955+709399803+714723665+719035421+722926202+727999908+732348416
1668+732194726+728911112+727346696+729344298+732557993+733992714+734063727
1658+735286199+739567218+747870109+758365964+763386273+760864911+758615148
1648+759843330+761106927+758322044+753697927+751344469+752008129+754904240
1638+759772378+765293120+766756635+761564230+754423549+750097092+749358044
1628+750555245+752075680+753793421+755467850+755764538+755117158+756430446
1618+760917822+764726776+762586115+756135519+750605726+748152461+747824974
1608+747795694+747292770+746625222+746044603+745600482+745777984+747323872
1598+750296888+753697259+756127683+756835445+756125557+754866455+753839892
1588+753439509+753678852+754214276+754503796+754405203+754804432+757227324
1578+762106093+766635749+766352729+762497303+760552854+762360197+764779504
1568+764067672+761163847+759181857+759825227+764418789+774472225+787216142
1558+791240566+783913210+775589118+770768909+768788195+768397410+768803867
1548+770273336+774245396+781484122+790450613+798576791+803747935+803485812
1538+798706000+795055960+795978523+800241865+803444929+803432658+802939211
1528+805047190+810409140+818324041+828492045+839827363+848286799+851156363
1518+851357739+852030815+853295930+854794193+857497188+862822386+871411942
1508+881860901+888615596+886636765+880712845+877512636+878968315+884433959
1498+891680826+897352403+899646389+900337811+902357768+906965848+912669682
1488+916041562+915417327+912761228+911249297+912480091+915833079+920108205
1478+924967838+930451100+936015094+939987761+940076148+936959041+935156436
1468+937454614+942290738+945141349+943092659+939116893+938245539+942760920
1458+950834613+955209972+950326586+940651300+932522327+929155125+930928388
1448+935024737+937101917+935391587+932001179+930077992+931238380+935446381
1438+941840725+948214901+951703415+952936092+955048749+958426218+960486633
1428+960508623+961211344+964134668+967397508+969164818+970398285+972428873
1418+974073596+973767310+972602062+972334715+973183775+974227468+974615398
1408+973781950+971130286+967023793+963915676+964627812+969622243+976556020
1398+981957819+983693785+981529311+976292013+970559204+968261754+971229911
1388+975939377+975675311+969887585+965583604+967216421+972599632+977587928
1378+981083428+984609059+988990431+992761783+994008371+993667338+994491309
1368+997347752+1001160108+1005044389+1007795314+1007386183+1004402294
1360+1003112636+1006212309+1011787663+1016215325+1018150479+1018465270
1351+1018166881+1017817343+1017723246+1018640282+1022290383+1029486222
1342+1037648666+1042426656+1042767932+1040935926+1038670308+1037513201
1334+1039731436+1045739065+1052457433+1056671448+1058620453+1060212387
1325+1061493540+1060759231+1057507083+1054122750+1054177665+1058959907
1317+1065769395+1070573384+1072227645+1072485941+1072820413+1073390706
1308+1073741823+1073163391+1071696595+1069754516+1066802579+1063071502
1300+1061157731+1062832038+1065336148+1064020977+1057898050+1049996089
1291+1043635641+1040008928+1037741488+1034384977+1029631529+1025900938
1283+1024732288+1024016082+1020252566+1012917495+1004702930+998208232+993497247
1273+989220237+984974877+981271987+978142426+974715205+969522618+961410897
1263+951224973+941797716+935146838+930553276+926015116+920360001+913374164
1253+905307032+897048000+890098976+885411256+882148781+877897407+870585420
1243+860562114+850272859+841732751+834824913+828218502+821494909+815556289
1233+811070006+807616786+804733979+802792568+802193056+802582262+803400037
1223+804436684+805298986+805168381+804035329+803377561+804562855+807321799
1213+810700483+814723509+819878980+825441273+829661545+831664068+832306710
1203+833389281+836342129+841030942+845744479+848923973+850817273+852983934
1193+856411944+860419663+863421351+864988622+866703994+870190322+874901611
1183+878996623+882012890+885482026+891145645+899130283+907632910+914707013
1173+920363707+926166801+933234160+940629735+945624652+946891954+946902585
1163+949281860+954553722+960041236+963403943+964329241+963612305+962881824
1153+964147790+968094883+973101888+976779568+977783958+975784473+971457651
1143+967086241+965891895+968787823+972727991+974640426+975661157+978827469
1133+983884469+987492898+988388126+988437877+988754369+988809770+988934605
1123+990508376+993692487+996765128+997426723+995063667+991889397+990536866
1113+991195241+992444259+993963783+996623345+1000656698+1003692466+1002521386
1103+998505467+995896872+996173271+997740116+999104007+1000128504+1000527733
1093+999419587+997223403+995493026+993926545+990769102+986719468+984229451
1083+982927158+980194579+976503534+975940046+980401179+985282681+983788428
1073+975252330+965221188+958247501+954057967+949339874+942247973+935170286
1063+932271382+934630611+939154799+942425050+943937163+945019977+946840198
1053+949669608+952282455+952271885+949156782+946531786+947521657+950301741
1043+951204987+949917030+949025508+950061183+952170073+952888345+950208494
1033+945606974+942701934+942755878+943802851+944012489+943714647+944016923
1023+945716319+949204833+953525095+956117349+954883760+950430889+945608432
1013+942448559+940312940+937908697+935358966+933043840+929843630+924232132
1003+916477057+907888230+898737676+888632848+878583240+871058577+867412972
993+866116389+864220234+860390261+855605286+850918903+846351219+842432252
983+840425842+839877297+838211676+834226981+829849132+827188173+826121275
973+825293112+823627795+820357241+815297871+809550422+804704881+801385061
963+799281881+798367640+799118593+801240909+803182806+803955082+804839071
953+808014800+813768446+820018516+824726586+828186427+832401354+838284026
943+844611002+850331541+856344637+863825804+872075360+879460668+885872325
933+892647067+900314363+907434754+911615054+911768197+909251087+906346716
923+904034687+901819429+899292356+897018598+895850556+895783188+895818725
913+895361240+894991048+894932427+894346462+893029347+892254763+892966474
903+894398887+895480182+896366662+897601526+898735489+899295940+900349292
893+903137759+906813920+909548990+911555826+914833609+920274044+926884708
883+933354014+938541802+941954808+944179239+944997318+944001190+942684257
873+942406522+942359079+941087767+938098957+933518030+928414377+925326002
863+926192740+930326751+935001106+937456011+937135693+936349810+937841511
853+941955598+946521641+950671325+956397027+963517480+967132469+963513774
843+955701961+949925960+949432209+952974484+956374733+956983539+957382586
833+962053478+971142374+979182778+980639186+976760798+974364149+977072004
823+981528825+982470341+979242431+975241699+972846143+972963446+977078322
813+985094973+992149333+992459567+987660620+985519534+989494996+994173846
803+992740765+985068791+976490838+972555652+974106825+976501347+974945497
793+969891352+965638034+963911059+961667675+956488877+950395473+946090095
783+943691198+942524614+942545815+942478872+939441646+932912262+926226697
773+921968884+919505960+917851031+917809541+920692408+927115789+936539887
763+946369956+952907784+954270338+951842344+948225350+945128653+943801940
753+945564998+950420076+955906982+958793798+957425898+952072939+945368239
743+942110502+945711520+954206554+961640946+964550846+964406754+963731612
733+963772981+964942785+966742899+968870864+970966937+970652936+965217665
723+957042585+953425956+959204447+972122769+984954041+991561971+991321291
713+987114991+980448015+972306589+965931198+963510494+963139087+961810005
703+958939894+956206221+956916839+963117643+970663263+971374124+963291015
693+952610124+944267626+937667957+930046464+920977858+912788321+907604906
683+906962447+912685051+924946516+938780416+946886244+947359463+943061374
673+934692026+921562487+908406158+905783166+917373925+930832469+935601833
663+933152395+929207489+926346429+922408448+914696989+904738501+897457434
653+898247144+909162761+926270070+941279180+947223450+942091428+926092507
643+902918766+882490604+874092583+879013206+888433720+890571526+885552371
633+885121615+895990031+908876400+906808089+889984346+873592028+863627283
623+858464826+860229646+869725243+879514429+881003276+873928263+865740791
613+863304656+868649779+880292901+891339003+893379432+889740508+892523629
603+903965132+912108016+903085152
##END=
