##TITLE=<SNM>
##JCAMP-DX=4.24
##DATA TYPE=INFRARED SPECTRUM
##DATE=29/4/2025
##SAMPLING PROCEDURE=Instrument type and / or accessory
##ORIGIN=Admin
##XUNITS=1/CM
##YUNITS=ABSORBANCE
##RESOLUTION=4
##FIRSTX=4497.3318
##LASTX=599.83466
##DELTAX=-1.4281778
##MAXY=2.1137207
##MINY=0.37627599
##XFACTOR=1
##YFACTOR=1.9685558e-09
##NPOINTS=2730
##FIRSTY=0.38678879
##XYDATA=(X++(Y..Y))
4497+196483530+196068504+196448210+196854864+196732040+196322358+196322812
4487+197078197+198166553+198875218+199032120+199083200+199311453+199415868
4477+199104077+198736558+198799976+198977347+198537735+197436784+196320360
4467+195794228+196125367+197081452+197924568+198204931+198279385+198525291
4457+198783399+198944994+199161848+199284233+198971412+198255102+197427836
4447+196716870+196284404+196170255+196235293+196478776+197121919+197961614
4437+198124859+197120132+195725708+195124652+195542282+196380114+197273553
4427+198146100+198474060+197541759+195525810+193561547+192606840+192718234
4417+193409655+194347967+195544265+196930893+197976283+198016433+196984410
4407+195511352+194373900+194100320+194770259+195711159+195781693+194621214
4397+193221279+192712511+193155469+193900029+194465235+194674140+194520402
4387+194206007+193861393+193213209+192090049+191143169+191370605+192858589
4377+194462222+194945056+194235982+193302621+192937025+193068176+193305104
4367+193678149+194410416+195206161+195344624+194563503+193471030+192993071
4357+193545075+194688992+195537891+195509187+194764143+193996359+193768136
4347+193957573+194009197+193743005+193481445+193335685+192986046+192330323
4337+191757532+191572062+191646879+191802737+192086173+192547055+193108507
4327+193753708+194513529+195168525+195270881+194660984+193732287+192998839
4317+192632501+192571081+192774733+193178510+193624465+194028712+194470609
4307+194983298+195416112+195630392+195724255+195950994+196404700+196835576
4297+196828643+196280801+195643093+195467403+195790928+196167272+196205529
4287+195895403+195539799+195493337+195778952+195927180+195492368+194750745
4277+194493666+195042098+195835588+196153435+195940321+195656159+195598085
4267+195770565+196193615+196781772+197050734+196616830+195911511+195704998
4257+196046310+196356845+196394769+196466574+196863705+197593005+198415517
4247+198894323+198763021+198325226+198125147+198270922+198443267+198432048
4237+198214680+197732300+197111473+196851245+197316094+198248622+199101549
4227+199643970+199990657+200231386+200355042+200445847+200664048+201030795
4217+201283332+201087461+200523042+200164486+200426197+200966469+201053383
4207+200524798+200006387+200008189+200263738+200333681+200473189+201278729
4197+202540519+203159243+202503686+201222230+200353498+200140793+200125926
4187+200091772+200361643+201148714+201973603+202043515+201268541+200537091
4177+200686485+201574064+202495268+203085258+203406693+203542309+203511168
4167+203373598+203211110+203109102+203107769+203109450+203027941+203058068
4157+203508261+204253775+204656689+204196806+202998904+201710045+201056047
4147+201365129+202221840+202772376+202629341+202186278+201967244+202147446
4137+202686264+203416351+203988128+204108787+203863290+203614887+203610163
4127+203796405+203989581+204111982+204239484+204471340+204821752+205197582
4117+205426063+205389047+205168575+205020075+205145761+205407048+205356574
4107+204828413+204356616+204629151+205681355+206952819+207902651+208272880
4097+208060416+207522203+206948807+206373851+205796443+205469436+205533566
4087+205670364+205630865+205757202+206414394+207258570+207653399+207600397
4077+207712215+208331181+209092348+209392891+209064992+208463754+207977211
4067+207612826+207044002+206039850+204890938+204276696+204575362+205420734
4057+206160873+206613095+207015995+207457589+207820112+208041598+208028503
4047+207686403+207326242+207472744+208069803+208528898+208605048+208528217
4037+208407830+208224237+208224086+208680563+209329080+209475476+208789262
4027+207817069+207438302+207852434+208512412+208997547+209275487+209215521
4017+208701440+208092012+207830816+207867286+207980330+208261586+208835497
4007+209467194+209781923+209716567+209612985+209847324+210371337+210719432
3997+210536732+209981957+209513838+209397357+209541982+209747103+209967408
3987+210298184+210803878+211428142+212025232+212427116+212492624+212169205
3977+211585771+211079381+210993179+211335718+211714197+211716952+211329677
3967+210917937+210888037+211453697+212546201+213747056+214474615+214447031
3957+213837089+212985828+212245931+212045170+212670161+213846248+214829220
3947+215213240+215497872+216414716+217800118+218557137+217973900+216550621
3937+215248817+214793552+215646857+217634707+219393638+219370142+217892694
3927+216907300+217540193+218964593+219839971+220099532+220445992+220869269
3917+220603440+219245470+217341098+215817309+215113231+215002079+215379908
3907+216959681+220591707+225815618+230581508+233065045+232988410+230619537
3897+226411239+221977260+219679587+220722706+223527225+224856354+224158256
3887+223940388+225499254+227380752+228402162+229357142+229980316+228525440
3878+225725676+224526592+225916475+228313189+230577329+232765198+233905209
3868+233132429+231938009+231802982+231762485+230238181+227884387+226442637
3858+226873710+229898746+236264787+243222028+243905789+238061853+230975399
3848+225974897+224139756+225379791+228771149+233020082+237375003+241318048
3838+243285113+241956256+238646104+235593652+233407221+231555139+230084776
3828+229553270+229950249+231332684+234786400+240243999+243845868+242741056
3818+239865641+238126618+236336910+232917953+229328498+227918950+229764552
3808+233830497+237247849+238877143+240864600+244185107+245953817+244272762
3798+241436391+239279346+237398000+235540452+234363003+234137974+234648225
3788+236032688+238421953+241108613+243433598+245975708+249285709+252103655
3778+252726784+251809637+251653446+253871094+258736660+265139777+270920431
3768+274915601+277999270+281303881+285488865+291620355+300406318+310178024
3758+317865125+323189484+329160619+338802945+352268157+364756074+370942791
3748+373072117+376553614+382354524+386061443+385353142+383751325+385053628
3738+391011835+400966482+411076700+416646011+416702026+414161611+412110100
3728+411690775+412485764+413708344+414931832+415655878+415217205+414048188
3718+413677036+415167428+419004090+425653703+433731455+438560278+437355835
3708+433257538+430832393+432229376+436823966+441789647+444463287+445306449
3698+446394472+448289564+450603588+453979777+459447080+465759362+468774572
3688+466020149+460384801+455878866+454318652+455917531+459552388+463563544
3678+467626749+471967576+474668255+474491793+474174354+475884295+477095399
3668+474161123+468518023+463904509+461939867+462081752+463646265+466774020
3658+471020681+474222376+475190769+476749983+482842959+493389094+501547568
3648+500351422+492850109+485996965+482624712+481901756+481817249+481374186
3638+481604725+484070110+488552247+493495220+498656257+504737636+509252867
3628+507878380+502869431+500122638+501825039+506792719+512683587+517078612
3618+519155950+520562925+522401185+523176553+521821354+520644253+522030881
3608+524269239+524194027+522376902+521649797+522932388+525323107+528434330
3598+532507194+536565645+538399969+537229831+535218924+535587775+539827049
3588+545806541+548798406+546830434+542786274+540167196+539863685+540791959
3578+542043364+543648723+545430786+546505244+546974922+548602142+552500723
3568+556822112+557950102+554910215+550244561+546621937+545206666+545665928
3558+546608615+547069633+547668660+549364975+551770349+554202428+557027278
3548+560448491+563430667+564383830+562371712+558245195+554780987+554190559
3538+555511906+556069028+555145841+554721762+556391432+559051265+560295524
3528+559045391+555918484+551854038+547955093+545772387+545857651+546700842
3518+546373594+545202003+545558319+548422833+551687083+552841960+552201936
3508+551871357+552894887+554885689+556864562+557729433+557259392+556364606
3498+555611401+554502184+552902941+552042733+552983905+554980521+556383075
3488+556829257+557494534+558964124+560036947+559365615+557545825+556494742
3478+556739755+556769609+555430760+553629258+552907543+553305825+553617389
3468+553399506+553573304+554861527+556659638+557754685+557411692+555812026
3458+553953842+553100174+554006345+556295934+558643052+559485881+558220911
3448+555979162+554727939+555389097+557009474+558083327+558182095+557926000
3438+557942956+557948225+556676231+553388061+549539136+547543368+547610041
3428+547551846+545956419+543787640+542782338+543629890+545733570+547663149
3418+548262721+547972534+548180667+549139764+549384293+547524353+544398173
3408+542630583+543763115+546637803+549003512+549922339+549877406+549509039
3398+549370546+550061438+551462781+552362291+551785488+550340241+549578801
3388+550290948+551613022+551805835+550170016+548039207+547333479+548584823
3378+550964823+553495912+555539702+556670478+556874069+556827138+557494049
3368+559489333+562511719+565273772+566353982+565073632+562010733+559466503
3358+560165085+564011043+567515218+568099046+567287707+567657466+568992439
3348+569234484+567655528+565579462+564495860+564548847+564868950+564945251
3338+565161257+565981498+567116634+568044544+568974877+570029715+570045581
3328+567820242+564197497+561103412+559238083+558197355+557763224+557959367
3318+558769979+560263187+562181866+563584360+563739204+563130063+562898192
3308+563613427+564850904+565597023+565067334+563511813+562009825+561260859
3298+561028806+561080884+562191192+565190688+569024050+571145897+570454702
3288+568579018+567601027+567870928+568532511+569074372+570018996+572394576
3278+576314534+579966529+580959538+578783068+574898052+571326416+569756968
3268+570348546+571323933+571367776+571453161+572616577+573984251+574413416
3258+574040326+573491622+573392975+574453202+576306177+576897393+574575527
3248+570307125+566793382+566003056+567845252+570246266+570907364+569778405
3238+569095385+570560798+573208095+574679503+574063641+572319183+570509324
3228+569080428+568464384+568972879+570053029+570533244+569811226+568436346
3218+567370911+566779091+565784749+563743140+561311848+559671972+559224458
3208+559468077+559678936+559368704+558361403+556902652+555617760+555035628
3198+555214876+555833281+556333540+556108753+555054582+553825099+553233096
3188+553695568+554897619+555818868+555757827+554935104+553594014+551617806
3178+549578316+548627515+548664213+548289003+546970199+545565101+544651482
3168+543774741+542390051+540779788+539633873+539139548+539079112+539290637
3158+539355857+538558082+536842753+534979604+533473558+532315895+531618221
3148+531523147+531793109+532012567+531835378+531060494+529968777+529307619
3138+529518175+530236377+530646044+530158562+528888142+527543783+526743284
3128+526478711+526206872+525450095+524350748+523345325+522260391+520582121
3118+518737745+517882260+518311608+519102115+519282392+518686575+517765325
3108+516984083+516466505+516163842+516063560+515932455+515279351+513984164
3098+512575977+511608160+511120194+510887171+510881661+511277157+512043320
3088+512671899+512512151+511434302+510000258+508808683+507690019+506001092
3078+504003810+503142602+504255483+506176827+506934513+506044390+504794892
3068+504444542+504838433+504778906+503477753+501467906+499950809+499460360
3058+499577628+499727294+499730897+499669008+499556736+499266427+498658013
3048+497759927+496893118+496441758+496372118+496184302+495534588+494742476
3038+494383496+494482446+494603832+494757979+495421983+496341295+496297633
3028+494769151+492919900+492183864+492460093+492279150+490557461+487797407
3018+485487622+484614364+484892047+485212634+484707985+483549746+482733957
3008+482938638+483719487+484079709+483623505+482715184+481771105+480917043
2998+480106461+479180579+478058584+477067634+476721007+477033752+477446325
2988+477448414+476901163+475852048+474506780+473299098+472606662+472481521
2978+472856337+473709158+474701319+475053638+474328199+473020204+471786270
2968+470541314+469079445+468041745+468266259+469464404+470341144+469924362
2958+468325332+466357450+464820793+464139984+464324167+465056389+465784644
2948+465914266+465230641+464213984+463683538+463923766+464345665+464133959
2938+462984743+461143546+459222990+458075531+458229345+459278914+460207400
2928+460379351+459949882+459379014+458849355+458133211+456968917+455590858
2918+454613321+454302029+454313686+454264181+454202413+454295852+454358286
2908+454031795+453286826+452469462+451973199+451982131+452330030+452598024
2898+452509126+452130253+451616762+450915879+449790947+448125395+446277143
2888+444977081+444605808+444751325+444728919+444302055+443811606+443763978
2878+444157052+444263359+443438001+442016160+440931347+440666532+440969225
2868+441311643+441374077+441258656+441273825+441441749+441456585+441149956
2858+440546176+439558132+438241296+437136378+436710482+436720717+436645233
2848+436338725+435862931+435240862+434679077+434475425+434591754+434754742
2838+434867136+434924937+434741208+434082775+432955905+431597557+430259617
2828+429007546+427792748+426770126+426279465+426392192+426762133+427010234
2818+427009628+426821115+426563810+426253577+425677259+424605859+423220019
2808+422131421+421844261+422281389+422885443+423175933+423128427+422924926
2798+422537908+421839961+420997193+420363346+419987622+419574080+418971843
2788+418370303+417940926+417611376+417267656+416907828+416486020+415868341
2778+415087220+414403050+413975853+413651693+413170085+412460027+411682812
2768+411074913+410761139+410676087+410623554+410317924+409478244+408171218
2758+407004078+406588447+406778595+406830281+406402326+405924170+405775958
2748+405696568+405330351+404803477+404373524+403973547+403407221+402639362
2738+401778608+401052806+400720925+400708510+400502860+399719286+398565832
2728+397515263+396824432+396570155+396766086+397139358+397112713+396412314
2718+395482253+394954592+394900030+394883256+394589526+394098956+393612958
2708+393175193+392697976+392100433+391350014+390483840+389683129+389211756
2698+389150200+389282486+389355881+389328085+389242185+389041470+388670984
2688+388206605+387773806+387428754+387107046+386629647+385899787+385153032
2678+384784635+384843920+384902721+384486272+383527417+382414869+381669476
2668+381542156+381897260+382420046+382817450+382882185+382558721+381948249
2658+381167400+380274855+379358813+378595677+378197820+378264129+378597524
2648+378765751+378461786+377718453+376758568+375840377+375217520+374990584
2638+374996791+375010719+374996852+375018592+374991371+374712387+374156476
2628+373614645+373411446+373504068+373485659+373027547+372224716+371487468
2618+371164550+371252539+371409138+371295806+370937916+370679581+370767116
2608+371069445+371250601+371153528+370921263+370745164+370623566+370455491
2598+370257168+370137114+370097934+369965950+369527156+368764808+367982233
2588+367555308+367523819+367596305+367576412+367574051+367764199+368116033
2578+368404828+368418817+368130022+367674242+367190272+366712450+366246647
2568+365912616+365890907+366158053+366381598+366235686+365805068+365532229
2558+365736063+366283496+366799924+367105493+367260851+367262759+367020017
2548+366638752+366393406+366366852+366379266+366268872+366054773+365848457
2538+365700638+365515818+365160623+364722919+364544701+364871858+365568200
2528+366276320+366751297+366926094+366787389+366388744+365912707+365528868
2518+365237469+364962481+364694245+364490502+364474394+364794588+365422531
2508+366069943+366427015+366379236+365993702+365473671+365107878+365054770
2498+365157201+365129951+364955003+364928176+365231172+365632178+365806460
2488+365794258+365871498+366103491+366293458+366265087+366010506+365669723
2478+365456291+365463770+365505615+365306837+364883425+364560657+364580035
2468+364857113+365200500+365572045+365979955+366270264+366227451+365878038
2458+365557572+365579887+365852060+365946437+365609863+365047442+364630661
2448+364505763+364571679+364735030+365088651+365756895+366572019+367093018
2438+367044936+366587430+366101099+365877342+365978623+366227542+366368851
2428+366324099+366250371+366369941+366813246+367515068+368152095+368323955
2418+367942599+367367946+367092110+367328887+367884222+368367435+368551315
2408+368545774+368602001+368817583+369123818+369470596+369874177+370315151
2398+370708376+370997928+371233705+371499004+371780593+372015432+372232104
2388+372456194+372507092+372118984+371215720+369825701+367833021+365125167
2378+361964409+358928700+356361004+354004348+351383363+348553183+346182509
2368+344769236+344063417+343457002+342742463+342323531+342809711+344538969
2358+347377202+350839805+354543757+358602451+363118226+367260548+369589469
2348+369221829+366508797+363098545+360995441+360835874+361577482+361932768
2338+361522708+360815193+360476772+360961741+362326023+364109903+365597055
2328+366331881+366323221+365974203+365926302+366591215+367772132+369044883
2318+370275456+371436177+372349554+372969927+373559810+374352135+375289401
2308+376187246+376949261+377572360+378089877+378591620+379251325+380191953
2298+381283245+382238770+382972717+383670543+384452451+385142162+385447852
2288+385278839+384841589+384472707+384365825+384431832+384461383+384410697
2278+384425140+384561302+384641691+384462110+384014021+383422412+382747628
2268+381936410+381009832+380259958+380069053+380471694+381131006+381785473
2258+382417352+382990642+383430496+383878464+384558698+385350326+385809921
2248+385651686+385022260+384363009+384114848+384390744+384829871+384947654
2238+384647050+384170862+383660097+383091045+382557147+382275376+382313436
2228+382522902+382754804+383005751+383324461+383694735+384130108+384775309
2218+385738282+386913053+388116103+389297443+390515996+391817966+393217401
2208+394727111+396366472+398165128+400152569+402291978+404442226+406515174
2198+408676746+411158936+413827489+416231954+418150967+419822181+421607423
2188+423614273+425642923+427439187+428976420+430417034+431871788+433350402
2178+434793892+435994793+436688531+436863297+436809220+436791235+436798683
2168+436658222+436257730+435543736+434478513+433209153+432051823+431098085
2158+430096598+428861271+427524633+426293939+425120470+423715342+421960106
2148+420131353+418548067+417468008+417598901+419907596+424490317+430304520
2138+436228966+441829918+447193820+452564596+457981728+463144976+467904039
2128+472576868+477470790+482488793+487279132+491376249+494378924+496329789
2118+497746332+499176076+500823371+502549419+504224388+506153846+509082339
2108+513751323+520497584+529202977+539429736+550330067+560471018+568319048
2098+573055371+574523690+572871703+568826453+563529193+557642171+551138136
2088+543795149+535472233+526199787+516162449+505566688+494829315+484717674
2078+475865946+468393942+462121356+456813014+452292848+448518196+445365250
2068+442508365+439806263+437431138+435471007+433896290+432770813+432007829
2058+431270036+430443164+429809801+429659924+430018419+430717304+431684426
2048+433142874+435313923+438119849+441575670+446153789+452421713+460678198
2038+470976899+483021752+496155688+509849714+523874772+537726154+550279987
2028+560257616+567017079+570897251+572667142+572826648+571771326+570098931
2018+568141617+565590725+562010249+557485692+552551591+547633961+542736860
2008+537631565+532115210+526067471+519641918+513469431+508220435+503877640
1998+499825153+495754470+492101688+489374062+487393645+485582757+483777803
1988+482237361+481069585+480212375+479762499+479891818+480599605+481737768
1978+483097812+484459642+485743232+487059190+488532414+490205869+492109924
1968+494225201+496352528+498207078+499738406+501222046+502945369+504925574
1958+507032615+509243299+511624389+514158688+516685841+518975007+520901013
1948+522661276+524773495+527661566+531067579+534006700+535781678+536952966
1938+538688885+541413877+544562524+547447143+549934935+552233910+554429092
1928+556536708+558834351+561636735+564643679+567117482+568954894+570720183
1918+572428851+573387646+573521234+573732093+574780148+576596789+578527216
1908+579938672+580700294+581108265+581474088+582033148+582970748+584133800
1898+585066253+585611626+586084696+586858005+588106987+589569190+590392943
1888+590027362+589132818+588659991+588664351+588641279+588375133+588098267
1878+588122490+588346671+588217443+587601520+587384667+588495398+590337292
1868+590748411+588447195+584753780+581715770+579873937+578372978+576437404
1858+574155081+572054914+570462151+569274088+568248500+567395800+566987042
1848+567440249+569036585+570918627+570790610+567683384+563685005+560901939
1838+559447609+558489723+557711508+557562963+558373454+559355260+558982776
1828+557029942+554803696+552866183+550600453+547899260+545553232+544052273
1818+543155428+542479918+542070554+542353112+543464873+544649241+544748251
1808+543571998+542299216+542358925+544175203+546810753+548735669+549235323
1798+549063281+549694404+552248202+556520539+560131173+560230365+557497561
1788+555213967+555229954+557079841+559482248+561755486+563741444+565362305
1778+566942654+569390902+573658940+579698020+585263183+587340097+586058838
1768+583785538+581897561+581028815+581899560+584300573+586642302+587978728
1758+588888109+589809419+590986702+593491752+598106477+603439768+606702262
1748+607094488+606278486+605911391+606861466+609436761+612899819+615532401
1738+617051225+619826055+625578580+631200667+631383851+627230992+623072743
1728+620694317+620227001+621325803+623146380+625338473+629280292+636775155
1718+646614049+652867439+651499826+646029797+641337681+639423483+640486798
1708+644218001+649627170+654836501+659186896+664410338+671350502+676944369
1698+678499344+677282881+674055147+669528168+666617085+667389365+671172344
1688+676515143+683826519+693452374+700484584+699300761+693500698+689145822
1678+688939808+693081464+699627404+705917491+711569796+717073857+720234676
1668+718771443+715448151+714368788+716049055+717974941+718117552+717485219
1658+718520799+723300723+733191574+745826069+751347267+747621757+744552500
1648+745783739+747173516+743895157+738093520+734395078+734391203+737836638
1638+743815464+749496169+749543040+742946839+735979182+733221671+734288135
1628+736197913+737351761+739284973+742892216+745811051+746555293+747623756
1618+751232512+754984183+754441110+750483365+746966412+745075226+743848286
1608+742537293+741324948+740663911+740887607+742018504+743685812+745766662
1598+748710991+752448673+755588297+756712714+756125314+755254751+754722396
1588+754039740+753084822+752669523+753165604+753810352+754365717+756290755
1578+760750940+765424223+765533346+761650752+759326524+761352752+765536677
1568+767408728+766189842+764796916+765575918+769781037+778806654+791709051
1558+799528923+796404680+789202669+783299054+779894919+778995470+779977942
1548+782192259+786001459+792454323+802025919+814221922+826071480+829656014
1538+822489247+813831089+810298997+811317742+812676756+812494299+813218497
1528+817068936+823655751+831284506+838661889+844423801+847198995+848007124
1518+848945814+849957111+850492190+852079140+856841805+865229214+876279242
1508+887885847+894821590+892771563+886635472+882572660+881827268+883462784
1498+886653215+890905387+895349887+899597215+904452895+910166362+914525780
1488+914808761+912255629+910643912+911625718+913904104+915849610+918150766
1478+922718317+929721157+937260106+942753328+943629886+939783989+935393687
1468+934450093+936980637+939441359+938582120+936142956+936415037+941233596
1458+948036902+950145427+944625015+936377431+929643100+926085877+926023685
1448+927663864+928452373+928352636+929153256+931246521+933801530+937275003
1438+942818487+948586212+950433737+948846122+948115263+949926030+952060049
1428+951807890+949927241+949343898+951324769+955240003+960678118+966256483
1418+967602840+963362477+958650498+957111509+957315403+956376714+953753881
1408+950860420+949071938+949081021+950694192+952952836+955068204+956932564
1398+958446785+958959337+957932598+955879180+954027355+953101443+953012606
1388+953167692+952564123+950710663+948976137+949847488+954483105+961273815
1378+967441093+971850107+975018072+977566299+979769050+981638194+983066666
1368+984205496+985433223+987418272+990719704+994641176+997169359+996819280
1358+995413153+996909510+1002355558+1008259535+1011242681+1011936297+1012610112
1348+1013689172+1014329984+1014467811+1015381733+1019064066+1026355459
1340+1034631747+1038928004+1037913921+1035954306+1037273837+1041573243
1331+1045856057+1048157091+1048755513+1049523978+1052545758+1058092633
1322+1064462232+1069307981+1071329001+1071429283+1070334175+1067281147
1314+1062448842+1058669739+1058701713+1062036087+1065950231+1069096032
1305+1071950313+1073741823+1072490358+1068708106+1065586770+1064600543
1297+1064124204+1062155989+1058180683+1053119473+1048618655+1045868289
1288+1044012468+1040883381+1036214942+1032297648+1030557490+1029145065
1280+1024974281+1017174091+1007557138+998650758+992402575+989552231+989021815
1270+988264674+984769885+978050813+969562941+960464898+951105251+942460536
1260+936111466+932504647+930340350+927865154+923977413+918380336+911429756
1250+903652032+895435817+887323396+879715897+872051838+863465500+854288915
1240+845662913+837929032+830677364+824076075+818936021+815559741+813293224
1230+811286677+809328394+807679494+806519228+805863459+805514894+805067259
1220+804433957+804156546+804720269+805896402+807192800+808602742+810612681
1210+813724085+817953851+822489913+826188415+829029737+832389182+837128532
1200+842283060+846361737+849172599+851542305+854208133+857579326+861745144
1190+866399594+871211311+875882293+879420562+880711449+880881432+883251501
1180+889454751+897072120+902731267+906496200+910831456+916660404+922968961
1170+929287632+936014394+942741277+948524020+953052028+956005683+956768092
1160+955796035+954884475+955211542+956046861+956608283+957789260+960851190
1150+965753014+971254290+975948284+978470169+978040519+975792290+973796946
1140+972955510+972905248+973228802+973731787+974715833+977450878+982899348
1130+989460851+993113148+991555992+987480161+985563783+987277115+990303982
1120+992183542+992669328+993302146+996448310+1002670876+1008484080+1010335723
1110+1009459164+1009788532+1012265484+1014482526+1015430905+1015479714
1101+1013733984+1008988759+1001978471+995458147+991497858+989503483+987853796
1091+987537388+991570223+1000258296+1008851417+1011086566+1005743888+997688330
1081+991752681+988002282+983695306+977567328+970688872+964630171+960020533
1071+956521626+953973883+953171810+954307733+955513114+954907668+953199181
1061+952025592+951172105+949515516+947062787+944756968+943265153+942460718
1051+942180946+942250102+942253917+941527599+939330662+936402684+934731621
1041+936224223+941847702+949982771+956357154+957962452+956302895+954529915
1031+953807474+953914296+954618691+955276459+954759607+952746035+950254429
1021+948893961+950112726+953629558+956548937+956381195+954299012+952741191
1011+951633366+948624363+941994915+932749236+923651557+916361314+910384063
1001+905000570+900233545+895171548+888060432+878898926+869906858+863199777
991+859179477+856828967+854667032+851994421+849193249+846307479+842640708
981+838468956+835534740+834834947+835118958+834312100+831467145+827084412
971+822476712+818720015+815941793+813672612+811603994+809768762+808125798
961+806472296+804834176+803564665+803170804+804263611+807399541+812355624
951+817637624+821571389+824037259+826304260+829315807+833036109+837261394
941+842520503+849832304+859041589+867843327+874072616+878751713+884666106
931+892984420+902562496+910957838+915377873+914211006+908643844+901865427
921+896398306+892760179+890620044+890257733+891914141+894110412+894178175
911+891430474+888495774+888261177+890548526+892966677+894646945+897022464
901+900307787+901811532+899566634+895748532+894382251+897025673+901666377
891+905402727+908101741+912153409+918461422+924409667+926655473+925486850
881+924959400+928194765+933712330+937229707+936737926+933972663+931687192
871+931897384+935054691+939170610+941033032+939426886+936444831+935403498
861+937928108+942798927+947254751+949149935+948349193+947047708+947854990
851+950338603+951440493+950183880+948606317+948361910+949163681+950131256
841+950771341+950915466+951169501+952486065+954959202+958396947+962534848
831+966612375+969953471+972274247+973502882+973582817+971884201+968277563
821+965013314+965560080+971102837+978954138+984478607+986090506+987489790
811+993766555+1006916024+1022383423+1029907596+1023748371+1010441394+999679193
801+995562425+997336495+1001590847+1003963520+1001696276+995768984+989229161
791+984343929+981435147+979101109+976972904+975028124+970624076+960792510
781+946856894+934484610+928148499+926991018+926340215+922221813+915267236
771+910472779+912118710+919073711+925568783+927712006+928097510+931151871
761+936918687+942231874+946041316+949741513+953246718+955455161+957555269
751+960996344+963650485+962589773+958823448+954631408+951026406+949550154
741+952069677+958185361+964109686+966984677+969198692+973779263+978224308
731+977080634+969804622+961181526+955659904+953708463+953471141+954128969
721+955936890+958147513+958765131+957135247+954483529+952498055+952480555
711+954583205+957891904+960734315+962399928+964849084+970168992+976945350
701+979979303+974537191+962343428+950262301+943342424+942398102+945474505
691+949405666+951951168+954563403+959882766+966534317+968787875+962183195
681+949625547+938407898+932037089+928150619+923566656+918122849+912966141
671+906584189+898143914+894284392+903769331+922770941+940119292+948602562
661+946747892+939651249+932929877+926052086+917433290+910980971+911661931
651+918780132+926803292+928627018+923319040+917748790+916552613+919247266
641+921658998+920725032+915900781+908940270+904542519+905118535+906196808
631+901431417+890223458+877587691+868055760+862903957+861300960+861191716
621+861119593+860686310+860707868+863285283+868074836+872146488+874182829
611+873552797+869796282+863214311+856212136+853570834+858398476+867418825
601+872423353+868932561
##END=
