##TITLE=<SNM>
##JCAMP-DX=4.24
##DATA TYPE=INFRARED SPECTRUM
##DATE=29/4/2025
##SAMPLING PROCEDURE=Instrument type and / or accessory
##ORIGIN=Admin
##XUNITS=1/CM
##YUNITS=ABSORBANCE
##RESOLUTION=4
##FIRSTX=4497.3318
##LASTX=599.83466
##DELTAX=-1.4281778
##MAXY=2.1049831
##MINY=0.38469413
##XFACTOR=1
##YFACTOR=1.9604183e-09
##NPOINTS=2730
##FIRSTY=0.39466277
##XYDATA=(X++(Y..Y))
4497+201315593+202066938+202777328+203065939+202951711+202641939+201987264
4487+200798101+199579674+199243542+200084640+201613629+203229817+204523357
4477+205062983+204491584+203068326+201752743+201420046+202118306+203209415
4467+203920688+203699133+202624305+201533545+201081163+200936789+200668838
4457+200859548+202272150+204240341+205038128+203897261+201686827+199627317
4447+198275949+197762941+198048192+198631798+198768966+198362099+198072926
4437+198455621+199545105+201032866+202277045+202657232+202433687+202551244
4427+203272732+203864045+203729978+203022203+202078111+200931833+199468791
4417+197846172+196648664+196423522+197073302+197942872+198460334+198525110
4407+198354650+198193660+198206111+198496652+199053213+199639327+199951455
4397+199952473+199840967+199730220+199547248+199115328+198271419+197195982
4387+196567074+196950393+197953362+198404026+197706359+196626499+196230638
4377+196555217+196997276+197450236+198130891+198784289+199003502+198945127
4367+199022961+199263548+199436243+199452296+199272867+198812139+198290208
4357+198346456+199342477+200675360+201246895+200684162+199708861+199195428
4347+199263153+199459411+199492430+199484266+199661005+200095220+200706874
4337+201291103+201564967+201349494+200778673+200132845+199507951+198957866
4327+198740614+199016774+199503816+199816294+199918999+199971202+199969819
4317+199822983+199629187+199624627+199978484+200757132+201914370+203155889
4307+203960517+203992320+203486670+203068736+203163521+203669474+204106198
4297+203978455+203172049+202105809+201402473+201392485+201914659+202519943
4287+202892773+203039122+202932967+202250791+200885391+199433294+198660119
4277+198760300+199483278+200556830+201653458+202368105+202563147+202511703
4267+202552171+202800344+203234256+203824505+204554642+205430431+206385240
4257+207107016+207157639+206364306+205026604+203755624+203051406+202913189
4247+202978558+203168476+203861035+205186302+206615581+207575071+208025872
4237+208141544+207847948+207022736+205899900+204936821+204382632+204236707
4227+204504111+205139221+205770379+205864221+205298979+204583572+204398883
4217+204983887+206070847+207298015+208414162+209130938+209158925+208479060
4207+207438557+206624307+206555669+207227067+208030737+208431493+208518737
4197+208673494+209000854+209267619+209197766+208737494+208131389+207814959
4187+208182058+209242840+210423064+210941058+210534571+209664620+209040455
4177+209120053+209887816+210854132+211424239+211505737+211594866+212035740
4167+212491892+212509739+212190208+211798771+211264435+210660824+210498132
4157+210915868+211280823+211123847+210780007+210706901+210886786+211206743
4147+211829555+212834089+213869636+214480514+214524189+214104827+213453861
4137+212977916+212990062+213315598+213473395+213212605+212724498+212453522
4127+212669786+213130635+213353512+213263379+213291549+213841695+214789206
4117+215444930+215270761+214709365+214682549+215270472+215741522+215770132
4107+215675864+215635351+215566547+215680987+216425841+217877999+219531340
4097+220651577+220798064+220076014+218983414+218054510+217622392+217870018
4087+218874294+220340316+221461936+221545426+220813403+220183203+220238265
4077+220708281+220917415+220555242+219970557+219738346+220038982+220609331
4067+221166288+221546338+221541473+221035352+220288948+219754689+219632479
4057+219824648+220203331+220675095+221077949+221254414+221241355+221298393
4047+221697993+222388849+222927822+222945897+222620908+222457456+222649199
4037+222856388+222672838+222247668+222211062+222823034+223514118+223638623
4027+223344950+223243249+223550542+224031717+224510550+224987179+225398667
4017+225596704+225503303+225141632+224660716+224346520+224331516+224339770
4007+224082978+223824422+224102421+224954023+225799073+226097824+225866570
3997+225507924+225344366+225441704+225744939+226125765+226345084+226333744
3987+226461882+227055232+227751743+227904052+227512995+227187413+227301763
3977+227705833+228152301+228555124+228834264+228779840+228194851+227194665
3967+226310272+226142183+226858958+228107440+229378207+230289781+230556607
3957+230080799+229300358+229088411+229976772+231648249+233265334+234101475
3947+234008378+233556270+233490521+233811330+233651815+232371896+230430674
3937+228949708+228885282+230564953+233426110+236000497+236890104+236259387
3927+235570949+235672969+235893003+235378780+234763235+235467453+237654720
3917+239534998+239056499+236274301+233171279+231451976+231371922+232535242
3907+235202847+240080416+246604637+252140469+254192301+252656152+248678695
3897+243500080+239113445+237825196+240231402+243649638+244273757+242579005
3887+242474901+245313013+248352490+249552233+250211667+250566877+248773266
3878+245659360+244564967+246656096+250214722+253623669+256064232+256245957
3868+254425105+253124982+253459837+253456690+251063147+247242164+244483362
3858+244735412+249659864+260260872+271775948+273456167+264837654+254099386
3848+246689495+244458522+246761552+251415804+256428351+261047547+264732608
3838+266210457+264915488+262172496+259362524+256698430+254137482+252288187
3828+251747907+252318925+254203809+258940333+266413100+271613134+270788668
3818+267131609+263575856+259234918+253888777+249774441+248905387+251791567
3808+256850663+260839005+262990517+265916146+269940730+271154763+268157350
3798+264204763+261080383+258210940+255614921+254010166+253365889+253429844
3788+254647510+257159660+259746649+261428144+263130953+265773308+267895632
3778+267481620+265268996+263832709+265081829+269338365+274896102+278954069
3768+280597104+281089193+281405700+282359809+285465612+291161020+297159495
3758+300810230+302884546+306509559+313944625+324614104+333871953+337617701
3748+338915406+342582195+347944921+349180845+345257751+342248146+344914915
3738+354111925+366514799+375844098+378321632+375891376+373148567+373378877
3728+377037670+382117456+386117108+388683148+391192121+394221914+397582382
3718+401596871+406802439+413483758+421821672+430953162+438256426+442044345
3708+443550439+444923243+447492020+451417638+455677184+459065046+461673135
3698+464382227+467638317+471612187+476926844+484171733+491860916+495579878
3688+492624787+486132642+480288163+476686956+475481132+476636638+480749879
3678+488849182+499184368+505537750+505967845+505986118+507948851+508112911
3668+504483702+500285025+498180457+497851942+498061973+498939890+502147759
3658+508724337+516892839+523762755+529729427+537403469+546780623+553175749
3648+552104736+545692523+538873565+534689725+534040842+536272621+540170480
3638+544696000+548579570+550653004+551774001+554943562+562097391+570194596
3628+573018037+570758773+568676461+569755865+573655063+577552861+578242242
3618+575872734+573972298+574822943+577450582+579668922+580716949+581148139
3608+581031205+580004278+578889788+579107420+580838565+583158212+585505951
3598+588349763+592157140+596110578+598707448+599734375+600817489+603382982
3588+606247590+606460358+603330383+599075033+595960503+594931266+595747553
3578+597517130+599481535+601566948+604254666+608109169+613469585+619593081
3568+623590848+622455257+617582157+613456450+611979726+611851421+611970361
3558+613055299+615807048+618827872+619448236+617042668+614687206+615877767
3548+620321987+623871295+623215662+619833881+617514113+617942810+620313049
3538+623435179+626583153+629133323+630934094+632462687+633556929+633031973
3528+630392841+626676798+623401796+622168608+624152715+628316488+631608334
3518+632199753+631159996+630639539+631652663+633363742+634019253+632955354
3508+631584254+631722106+632929633+632768126+630588460+628920373+629427634
3498+630908858+632033139+632766120+632878007+631571484+628930285+626676980
3488+627391110+632311458+639099100+643270048+642731349+639397668+636277544
3478+634614868+634234757+635250617+637842136+640900235+642635394+642622503
3468+641925764+641293238+640926565+641029453+640844414+639243154+636814175
3458+635071537+634277809+634083223+635001972+637306477+639590551+639894044
3448+637937909+635662105+634770476+634603254+633491864+630715732+626945691
3438+623604895+621629361+620877105+621305619+624090934+629757944+635495187
3428+637298329+635702968+635466729+638756021+642491279+643330491+641832606
3418+639672398+637247433+635443865+636052006+639096728+642266958+643863353
3408+644098376+643453749+642151605+640728696+639516122+638428387+637719972
3398+638237024+641049398+646272752+651246549+651596196+646471473+640295499
3388+637621950+639105606+642476807+644846498+644381924+641802445+639630623
3378+639235796+639880545+640789990+642842993+647193690+652712268+656067171
3368+655329265+652587368+651255367+652044108+653240082+653778477+653959259
3358+654290846+655092783+656353517+657297745+656704623+654378956+651674699
3348+649938446+648907080+647370399+645095203+643001094+641616190+640894398
3338+640903762+641938777+644370614+647635643+649601143+648520097+645788415
3328+644692349+646762926+650780030+653928916+654204802+652863011+652753191
3318+654056917+654780351+654981321+656064861+657040344+656293925+655330238
3308+656530590+659281609+661068941+660791838+659425845+658384568+658107100
3298+658345042+659060146+659800058+659310493+657444049+655922387+655805028
3288+656198821+656407940+657349128+659575373+661691251+661929862+660171170
3278+657577644+655295821+654328972+655451672+658717553+663672926+669030483
3268+671980588+670440501+666111269+662870685+662483398+663865626+665287016
3258+665251321+663164084+660591597+659922283+661622720+663849573+664100224
3248+661450755+658116282+657480108+660095829+662870928+663010482+661689974
3238+661796935+663487765+664189916+662320067+658984744+656055192+654369896
3228+653722351+653242757+652036142+650396635+649615190+650500191+652886544
3218+655891314+658099499+658386027+657450069+657387498+658819954+659987469
3208+659157317+656976374+655963250+657455359+660142651+661806178+661094541
3198+658073048+654055214+650517339+648258440+647727281+648774640+649736198
3188+648742472+646085098+643483181+641600623+640007633+638907007+639240843
3178+641192783+643482208+644206128+642604139+640145181+639033609+639638285
3168+640331558+639869295+638763318+638028817+637829062+637468470+636131908
3158+633626372+630359031+626997925+624619660+624498044+626733653+629626355
3148+631167293+630511295+627784903+623848127+620262639+618263877+617748589
3138+617665343+617239929+616717284+616794328+617198458+616772863+615467799
3128+614708063+615340710+616584357+617184898+616721601+615615806+614109347
3118+611949808+609309278+607153327+606277569+606686564+607995640+609622257
3108+610516379+609772514+608059793+607108937+607538364+608441668+608769667
3098+608024828+606301953+604525019+603676503+603276994+601948580+599841276
3088+598600122+598757371+599226202+599296010+599130247+598493039+597110202
3078+596122131+597107162+599613245+601327973+601026061+599749638+598640012
3068+597491834+595955943+594356082+592626092+590165432+587311890+585496769
3058+585539943+586651575+587405048+587364003+587344180+588160467+589571033
3048+590386652+589704871+588050040+586763462+586357629+586084054+585008419
3038+582941187+580437718+578366838+577386612+577604365+578572552+579455789
3028+579481754+578414329+576519367+574434744+573084561+572949932+573243757
3018+572680126+571274365+570418309+571013620+572330358+572884442+571947085
3008+569808221+567134489+564887327+564135495+564901495+565818785+565752322
2998+564991308+564192473+563259798+561875684+560206989+558784505+558201964
2988+558610716+559295293+559344973+558679915+557923463+557571688+557559891
2978+557404465+556772122+555812023+554758462+553638864+552625801+551986343
2968+551391883+550145074+548222566+546344629+545147136+544753525+544801442
2958+544635496+543853748+542689759+541561343+540612068+540070451+540412375
2948+541571316+542491707+542174593+540854875+539524333+538662379+537890055
2938+536744187+535412429+534642477+535045453+536316463+537206025+536735857
2928+535390539+534554975+534887169+535696282+535781899+534438588+531815145
2918+528823082+526547036+525434248+525200380+525314638+525248540+524701693
2908+523901884+523243393+522694053+522080378+521631371+521576765+521526355
2898+520854061+519514215+518176073+517587815+517745186+517810981+517132241
2888+515947395+514747348+513635350+512745241+512429039+512570661+512432870
2878+511598461+510499903+509713046+509303686+509045282+508746319+508330452
2868+507962989+507843015+507715622+507171389+506398671+505848297+505374602
2858+504510032+503175538+501614533+500290285+499926622+500676295+501410036
2848+500822052+499075704+497550881+497223064+497822754+498316394+497895754
2838+496624317+495251423+494385424+493917597+493338917+492487726+491593026
2828+490654088+489476691+488411881+488221308+488970951+489718434+489499403
2818+488245601+486660091+485417295+484632111+484053735+483471619+482736905
2808+481695810+480427201+479346094+478897543+479147586+479565307+479384069
2798+478418467+477319178+476787016+476785861+476701824+476022020+474756968
2788+473393408+472506035+472265813+472252526+471919967+471318089+471012285
2778+471142019+471034997+470026282+468273944+466575605+465712160+465911246
2768+466610600+466895638+466329819+465169539+463906251+462957402+462552086
2758+462479633+462231080+461586909+460691601+459637128+458513364+457691361
2748+457421221+457292308+456623114+455262503+453621810+452126873+450988941
2738+450287307+449929725+449667581+449382057+449207294+449221402+449276433
2728+449347001+449633133+450007924+449848060+448757953+447045172+445276325
2718+443822951+442911833+442560210+442354436+441794788+440922010+440183435
2708+439759177+439423455+438976181+438456151+437934600+437343788+436569762
2698+435659951+434890364+434511074+434437192+434320532+433949663+433464262
2688+433080867+432707840+432032962+431023061+430112733+429731345+429769016
2678+429702978+429212378+428471675+427796492+427225900+426626180+426085657
2668+425893503+426061790+426156437+425796788+425100900+424403219+423829160
2658+423420712+423346070+423585167+423624601+422960699+421833195+420948985
2648+420514815+420093537+419423553+418734871+418173126+417576629+416945319
2638+416551861+416480624+416467793+416251529+415850743+415485560+415319554
2628+415273340+415084713+414583594+413896645+413321309+413006871+412832017
2618+412562303+412030019+411274722+410663448+410613464+410987130+411131336
2608+410715774+410080998+409662182+409539016+409515726+409310225+408865931
2598+408628627+409150543+410311856+411259550+411250459+410390207+409414511
2588+408853830+408589102+408208352+407595346+407009186+406661151+406460424
2578+406292289+406288975+406525671+406707487+406546437+406171464+405821787
2568+405471502+405020944+404569110+404348133+404510339+404951745+405333650
2558+405350676+404962994+404449014+404272488+404595683+404889690+404479965
2548+403454376+402536903+402196865+402344385+402728327+403222971+403737985
2538+404056102+403936037+403405000+402788588+402447363+402606225+403260459
2528+404072764+404540743+404389027+403743609+402985637+402472994+402296103
2518+402311822+402398048+402531765+402686218+402817472+402874267+402828539
2508+402842312+403227744+404036917+404886680+405285368+405008539+404279815
2498+403721019+403854584+404503346+404962629+404861961+404530588+404407512
2488+404446521+404318824+403966289+403662005+403621294+403780003+403901589
2478+403793533+403495421+403289282+403422482+403809100+404125393+404209551
2468+404210068+404312804+404496687+404627546+404638887+404523929+404279238
2458+403948685+403655225+403536467+403644401+403921291+404242601+404429494
2448+404353788+404213170+404486745+405279652+405969034+405907496+405217415
2438+404545759+404308517+404423687+404628732+404871052+405232435+405524770
2428+405389806+404898477+404562086+404685132+405154904+405757877+406244373
2418+406288610+405843860+405392694+405481231+406050668+406483956+406358084
2408+405898831+405586763+405632917+405989587+406538197+407069326+407340074
2398+407331287+407291214+407416144+407614896+407706169+407728364+407831737
2388+407926841+407714195+407053759+406095302+405049463+403918007+402435354
2378+400344741+397764654+395091044+392508433+389930292+387506025+385726629
2368+384753912+384053099+383157882+382546031+383044475+384530868+386142921
2358+387682369+389811017+393002985+397120575+401489454+404880812+406101930
2348+404898294+402265790+399921426+398889148+398646706+398264557+397531333
2338+396789019+396555941+397096282+397968878+398431901+398394231+398402349
2328+398738192+399143204+399368741+399558979+400069615+401078482+402396467
2318+403593231+404294014+404524081+404807052+405688252+407121316+408542219
2308+409521047+410082001+410469075+410928633+411648874+412555644+413255211
2298+413551073+413843316+414592989+415616936+416355846+416575485+416409357
2288+416075885+415826967+415801185+415852111+415806049+415731347+415752751
2278+415892792+416161807+416472445+416559036+416265181+415713895+415080457
2268+414447718+413898165+413570683+413604645+414002329+414539143+415000464
2258+415508607+416323465+417354831+418231015+418814074+419295218+419807374
2248+420240297+420434944+420342333+419970248+419353107+418601032+417846708
2238+417154773+416582021+416220882+416043627+415817481+415326274+414626981
2228+414000566+413688347+413720970+413983722+414391015+414949750+415654789
2218+416349674+416744105+416681169+416390476+416324286+416708624+417348903
2208+417885321+418172639+418396048+418835934+419570709+420470729+421392853
2198+422217350+422784963+423024547+423126614+423448684+424207508+425257755
2188+426186142+426698542+426903100+427101182+427410665+427799928+428318804
2178+428984865+429575676+429859863+429943444+430091299+430299384+430335352
2168+430159829+430049432+430259342+430736442+431243460+431673008+432138099
2158+432777952+433578855+434403504+435154727+435899201+436787425+437823959
2148+438826198+439675414+440445487+441208355+441954896+442817520+444084578
2138+445839803+447825431+449779194+451667742+453500741+455213917+456869266
2128+458688431+460754811+462942930+465241384+467807911+470507243+472721965
2118+473953754+474465941+475046901+476202255+477765570+479244301+480381352
2108+481383135+482758583+485044755+488573783+493241472+498404018+503211962
2098+507226755+510564359+513355876+515331470+516053992+515256250+512837670
2088+508891133+503823205+498175714+492293900+486338356+480599957+475567631
2078+471583577+468556976+466100481+463897647+461890007+460182577+458885054
2068+458031855+457553600+457298054+457125754+456982521+456833480+456589731
2058+456222176+455909501+455906126+456247138+456711043+457093587+457418150
2048+457849127+458501902+459421320+460670896+462339805+464502688+467301866
2038+471030922+475962823+482068928+488977396+496172848+503211263+509832017
2028+515902032+521267373+525739808+529223078+531818489+533833730+535532100
2018+536697669+536657536+535006049+532127029+528852453+525834973+523241022
2008+520829981+518305594+515560838+512551567+509238773+505822788+502703606
1998+500181043+498546887+498222080+499215989+500640053+501371392+501106543
1988+500318926+499599384+499418784+500011754+501207119+502643710+504129039
1978+505611783+507046490+508455565+509896565+511400106+513156851+515481909
1968+518267832+520805475+522561369+523809699+525143707+526843293+528955279
1958+531451512+534059754+536376481+538321732+540197540+542314269+544719837
1948+547207131+549697587+552637415+556361911+559963148+561982950+562488265
1938+562951501+564290678+566341917+568783118+571518692+574257488+576427243
1928+577820477+579144330+581352576+584356678+587216969+589655434+591987181
1918+593630946+593575732+592372765+591809135+592932990+595434878+598289575
1908+600519529+601561780+601328642+600232819+599116869+598850712+599840303
1898+601831950+603924782+605066393+605256723+605754984+607248187+608638808
1888+608677238+607852133+607228972+606769506+605969211+605043225+604516688
1878+604315048+603989421+603509524+603498335+604788318+607555572+610352623
1868+610547938+607212493+602403485+598552874+596327176+594996938+593784790
1858+592503442+591254018+589997784+588554443+586959568+585649276+585219484
1848+586178184+588619568+591292145+591462711+587966976+583111146+579434811
1838+577310906+575781035+574452135+574294095+576223657+579003438+579660348
1828+577291082+573956488+570822804+567202047+563227813+560359070+559254308
1818+559124118+559083134+559240018+560198901+561854037+563083394+562949555
1808+561925425+561304271+561974984+564133428+567268328+569996301+570861235
1798+570079060+569774290+572088889+577066336+581541811+581674920+578243702
1788+575453219+575808459+578771151+582392151+585442346+587748249+589372433
1778+590781965+593286893+598299365+605674474+612290577+614294142+611921593
1768+608050064+604625048+603089340+604533532+607928022+610387831+611079036
1758+611832388+613346874+614957133+617407395+622365991+629309119+634914530
1748+636886658+636379580+635662044+636157752+638364356+641720354+644614941
1738+646577583+649878246+656425209+663168583+664514084+661185753+657033047
1728+653640685+651925411+652688248+655375054+659120163+664878628+674393513
1718+686333607+694327865+693905370+688457269+682955840+679868187+680270554
1708+684628366+692008948+699753588+706342752+713378978+722185935+730261493
1698+734666552+735459672+732272051+726169960+721581624+721397680+725114088
1688+731537490+741194544+753516391+761656040+760310357+755691618+754259466
1678+757136418+762698291+767906261+770786618+773232016+777410808+780768874
1668+779188715+775207914+774835586+779829450+786195996+788535466+786943024
1658+786048293+789895195+800408002+815241710+824143102+823536724+822481217
1648+824531058+825307759+820341319+812890930+807975751+806975884+809775610
1638+816003149+822879267+823817110+816997239+809536999+806182885+806030136
1628+806233295+805829347+805884014+805811226+803358654+799466024+797860812
1618+799332550+799587336+794761120+787827416+783013422+780727829+779195891
1608+777294361+775517366+774457177+773639247+772311442+770518880+768959639
1598+768177526+768021431+767727181+766788608+765727628+765497652+766160643
1588+766713510+766464379+765916438+765893087+766563010+767967373+770857764
1578+775775131+780458206+780242276+775498455+771664626+771417624+772770482
1568+772681398+771523430+771080625+772088884+776221098+786458079+800990300
1558+806469109+798230890+788206616+781735176+777770427+775007490+773432317
1548+774062472+777938987+784846300+793412092+802706305+810985934+812379777
1538+805730656+799395365+798639824+801787677+803741197+803112503+803688842
1528+808100651+815473571+823983420+833119410+841862822+847632902+850090278
1518+850882486+849308469+845095928+842098150+844392621+852595146+865313401
1508+879927349+888651303+884221859+874346200+868815765+869946430+876569526
1498+885743581+892676190+894211777+893111880+894398944+899701531+905570241
1488+907214067+905013543+903215570+904538936+908743937+914090610+919434060
1478+924812292+930437527+936521863+943301722+948657029+948285978+942908233
1468+938334370+938217253+941479729+944978383+948519481+954657389+964195989
1458+973050681+973313129+965078740+957075788+953247979+953033448+955105910
1448+957589738+958433085+957919682+958894983+963082654+969189550+975474978
1438+981869556+987165698+987423463+982030698+975473518+971967263+973478162
1428+979745773+987815554+993022915+993157788+991737736+993884262+999722811
1418+1003741800+1002825605+1000785068+1001437417+1004257271+1006177773
1410+1005523295+1003282152+1000893489+999008134+998091513+998485428+999972550
1400+1002270610+1005604535+1009668278+1012095616+1010234767+1005462122
1391+1002307824+1002943025+1004962766+1004499165+1001167855+997768439+996206827
1381+996837711+1000199729+1007077489+1016519465+1024719071+1027457989
1372+1024817094+1021375113+1020704278+1022459807+1024973979+1028292398
1364+1033196692+1038755402+1042452291+1042947390+1041501496+1040476150
1355+1041468781+1043952305+1045609082+1045479318+1045638270+1048363202
1347+1053260077+1058067322+1061328095+1063492741+1064618421+1062461314
1338+1056597104+1051496278+1051377702+1055877258+1061895556+1066486567
1330+1067911179+1066454217+1064292489+1063627005+1065318200+1067949366
1321+1068515854+1066149325+1063523875+1063339626+1065129330+1067235236
1312+1069663181+1072626359+1073741823+1069885252+1062152288+1055455128
1304+1053180784+1054230696+1054824791+1052682157+1048991958+1046170098
1295+1044991150+1044658287+1044394015+1043786907+1042093402+1038706269
1287+1034146271+1029260949+1024075357+1017859675+1009563202+999309985+990167550
1277+985742910+986001709+987450340+986856063+983181613+976686944+968001177
1267+957908433+947746671+939485771+934179353+930784924+927609221+924229082
1257+920732070+916178881+909648883+902169063+895700420+890619417+885475904
1247+878848674+870580172+861506876+852879120+845729730+840047458+834914951
1237+829711055+824510748+819360424+814191736+809645359+806876706+806123354
1227+806315082+806356006+805974131+805305060+804722944+804891991+806044243
1217+807596917+808939255+810035808+811212991+812945049+815731458+819696814
1207+824416982+829225624+833414146+836472915+838780339+841767414+846528688
1197+852061798+855777051+856517268+856096476+857083513+860157848+863937193
1187+866778876+868603788+870701424+873881869+877908216+882832698+889324387
1177+897629313+907646594+919306059+931160049+940236994+945230919+947704227
1167+949275569+950038650+950227033+951333437+954590622+959346179+963847012
1157+967459681+970751527+973532463+974845249+974779820+974253100+973457244
1147+972217671+970881170+970077226+970104833+970606013+971431665+973637175
1137+977911619+982373169+983719521+980966921+976677397+974151368+974953913
1127+978663997+983688630+988063529+990364203+990678034+990612118+991493227
1117+992679775+992938027+993361373+996560365+1001937138+1005405327+1005086511
1107+1003620671+1002982794+1001478341+998275579+996451823+998617989+1002164864
1097+1002164074+997898508+992796952+989422651+987758029+987212155+987408018
1087+987861221+988782098+990162381+990261498+986963450+979942852+971948656
1077+967175464+967322741+970731886+973347303+971195669+964424567+956996251
1067+952234308+950416390+949503478+947706964+945297443+944120199+945837966
1057+950219007+954792505+956686069+955426186+952878388+949921898+945951191
1047+941736217+939245822+939881814+943908161+949338445+952319075+951340916
1037+949436467+949728346+951317079+951771316+951240400+951290871+951402028
1027+949805633+947267260+946832604+949456291+952472433+953217879+952243186
1017+951784693+952936277+955120990+957212667+957773317+954613851+946111055
1007+933049113+918621968+906666855+899409896+896098287+893747507+889685344
997+883665891+877502808+872746643+869279366+866029781+862244782+858104785
987+854286280+851122861+848460257+845951862+843220606+840257428+837473816
977+834988650+832443953+829855779+827847470+826356212+823971745+819448535
967+813383536+807740789+804001517+802019295+800633357+799338327+798874908
957+799963556+802205307+804913273+808134886+812107722+816709556+822035676
947+828479388+835516647+841363770+844940563+847795928+852952819+861756979
937+872334060+881455030+887836109+892933469+898754810+905464375+911360327
927+915084032+916525488+915534985+912064302+907875476+905467658+904631182
917+902484474+898167829+894977594+896010967+899883408+902008286+899773163
907+895246366+892129282+891959992+893922087+896631939+899024798+900453788
897+901579102+904112124+908049326+910907976+911662482+913048724+917662538
887+923992356+927861149+927336679+924471524+922196450+921912355+923694640
877+926715646+929095857+929136903+927127256+924595268+922621438+921943367
867+922785559+924391257+926217142+928421070+930403414+930955490+930062888
857+928996436+929391871+933069788+940903086+950440835+956772903+957604818
847+954950849+951758607+949041944+946204761+943836590+944601920+949527558
837+955753637+959186923+958299490+955433969+954665537+957387368+961509670
827+966215426+974119687+986248590+998234108+1004377002+1003782603+999213909
817+993158700+987316502+983193348+982129268+984645689+990027387+996489524
807+1001964076+1005307791+1007317681+1009344719+1010123488+1006413465+997857888
797+989232930+985721992+988003816+991954092+991531962+983548650+970394948
787+957291231+947905685+942182306+937822609+933947735+931892482+931915772
777+932085913+931143996+929306497+926503913+922044491+916427891+912752406
767+913956407+919038443+924400865+928526511+932523245+936758893+940383359
757+943522577+947387113+952550085+957209140+957258881+951226536+944626365
747+944518066+951108447+957754588+959664023+959767458+962914641+968846957
737+972894708+971706518+967551562+964978772+963860389+959433743+951114527
727+945673724+947899604+954579798+960136076+964338463+969177084+970972564
717+964579688+953949826+948381143+951671043+959797558+966232026+966911253
707+961541473+954230395+950102620+949365504+948232467+945738119+944521167
697+945521217+945423255+941260029+935539873+932406311+930666166+926063540
687+919654246+917065220+921429295+929909895+935955496+935604512+931588746
677+930932019+936809485+943285243+940383481+925732866+907381897+898211064
667+904394882+914620492+918808041+919627856+920524957+919391981+913006645
657+903474308+897907632+901235598+910310050+915926285+914165465+911454093
647+912764507+912824403+906048984+897922469+897496204+905824298+914150263
637+912905886+903056131+893539239+890805794+893158824+895523711+896552949
627+897833507+899539234+897342420+885252313+864204505+845071787+840699989
617+854879949+876383636+885455230+878934413+872021263+872297454+875712861
607+877117407+875499486+870521614+862751313+856478837+856462662
##END=
