##TITLE=<SNM>
##JCAMP-DX=4.24
##DATA TYPE=INFRARED SPECTRUM
##DATE=29/4/2025
##SAMPLING PROCEDURE=Instrument type and / or accessory
##ORIGIN=Admin
##XUNITS=1/CM
##YUNITS=ABSORBANCE
##RESOLUTION=4
##FIRSTX=4497.3318
##LASTX=599.83466
##DELTAX=-1.4281778
##MAXY=2.2040329
##MINY=0.52507645
##XFACTOR=1
##YFACTOR=2.0526656e-09
##NPOINTS=2730
##FIRSTY=0.54263806
##XYDATA=(X++(Y..Y))
4497+264357753+264035434+263127397+262140813+261301595+260648015+259884788
4487+258835454+258206991+259028322+261119848+262949483+263408424+263012059
4477+262693400+262274154+261217182+260140639+260200254+261467981+263118192
4467+264570221+265399218+265060755+263676761+262249123+261641684+261887720
4457+262563514+263326886+263944111+264077074+263381535+261932874+260436069
4447+259847359+260629431+262194533+263136050+262534099+261101003+260406189
4437+261097402+262368149+262881680+262068858+260905376+261169009+263349187
4427+265762189+266483107+265519870+264233152+263538774+263430057+263399712
4417+262796774+261431858+260108262+260006340+261486826+263700717+265230741
4407+265087963+263409818+261259403+259612357+258707194+258379911+258596561
4397+259355199+260348114+261097112+261273109+260743926+259663318+258653388
4387+258403112+258823926+259152981+259089824+259084917+259369834+259585555
4377+259524082+259375932+259113664+258438160+257528352+257081578+257275637
4367+257371055+256865596+256443736+257058958+258475996+259382030+258908861
4357+257674005+257053266+257601033+258475996+258622898+258148393+257907410
4347+258155362+258407990+258257807+257693286+257011220+256744538+257213816
4337+258074754+258745234+259004279+258920476+258739746+258959096+259844165
4327+260857986+261190293+260652951+259542957+258178970+256927504+256118195
4317+255802236+255835687+256104983+256576671+257257227+258062180+258572285
4307+258257459+257265677+256642325+257335251+258980294+259995945+259299360
4297+257632858+256513224+256364928+256572722+256898757+257673656+258802932
4287+259697060+260080299+260022863+259413710+258243782+257176967+257090028
4277+258098855+259424803+260161111+259965165+259095602+258086921+257545281
4267+257907235+258998471+260084074+260749908+261383162+262326451+263107332
4257+263054658+262174497+260924221+259654868+258684690+258427910+259036453
4247+260010754+260506340+260214715+259599319+259139333+258902821+258990776
4237+259620720+260503639+260864520+260366727+259471321+258741894+258388332
4227+258613519+259624785+261003436+261797065+261644007+261207106+261159368
4217+261444199+261759200+261967574+261889172+261375554+260596996+259803628
4207+259119326+258833334+259263847+260160008+260914784+261334146+261535232
4197+261398726+260825783+260175891+259851656+259795759+259749531+259618165
4187+259437695+259319309+259379330+259570223+259790677+260048677+260202896
4177+259975473+259588227+259739426+260639681+261701908+262375234+262704144
4167+262975385+263272063+263348403+262726851+261221480+259452505+258516649
4157+259007676+260468097+261879212+262611107+262732107+262532647+262241167
4147+262199091+262582795+262830719+262170257+260822328+259800057+259593773
4137+259950791+260649641+261554920+262205480+262195142+261789428+261652370
4127+262097227+262790386+263136399+262929592+262463683+261967777+261389144
4117+260809900+260539704+260704871+261118599+261478260+261501374+261173365
4107+260944373+261358596+262479131+263787104+264582417+264550795+263959530
4097+263149872+262097082+260828774+259891699+259843381+260500997+261130882
4087+261299998+261191455+261084074+260988453+260997425+261504365+262628210
4077+263808476+264449221+264566156+264394601+263865825+262917222+261939756
4067+261534216+261968039+262941672+263800607+264077190+263877731+263664362
4057+263734226+264022687+264332228+264632333+265083520+265694734+266051753
4047+265658234+264546381+263252695+262216282+261520162+261153648+261139013
4037+261391089+261805486+262456772+263428721+264521002+265325143+265571673
4027+265393875+265237246+265379559+265573386+265367393+264766284+264273659
4017+264235010+264427472+264363008+263797354+262997628+262566389+262873724
4007+263720405+264650365+265414985+265992574+266360481+266493416+266491441
3997+266527825+266686226+266904793+267060202+267047484+266830834+266514033
3987+266304903+266340387+266533749+266574808+266197696+265596674+265482643
3977+266390013+267958251+269298136+269923666+269877990+269238348+268197405
3967+267411268+267465771+268055556+268369831+268247988+268255335+268620310
3957+268822005+268341345+267413039+266990192+267970330+270058168+271500760
3947+270880022+269072630+268232105+269180243+270681404+271157825+270443150
3937+269513973+269247262+269863355+271147343+272660641+273825285+274378423
3927+274710237+275234019+275576924+275160960+274530755+274979387+276734018
3917+278195688+277552677+275050326+272730854+272143538+273043532+274335128
3907+275851621+278343809+281753297+284565393+285507753+284723793+282685929
3897+279755766+277060401+276300660+278221473+281213370+282460945+281844940
3887+281840178+283402143+284697979+284393606+283575208+282783496+281114439
3878+279061794+278741451+280925258+284124340+286675358+287940500+287599946
3868+286353794+286092659+287459201+288443230+286808495+283219351+280221850
3858+279974158+283875864+292036701+299776200+299546512+292944070+286109036
3848+281971079+281112435+282832424+285630669+288417415+291306548+294313806
3838+295927808+294799403+291898626+288957719+286725215+285397032+285213717
3828+286010104+287114088+288537050+291360355+295499502+298187839+297949730
3818+296886167+296060132+293943924+290208198+286895521+285851878+287622654
3808+291226898+294345080+295970987+297694779+300282066+301672099+300846210
3798+299791997+299544247+298991747+297569946+296404461+296523080+297886399
3788+300260926+303612339+307306919+310389269+313084720+316495486+320594184
3778+324056346+326486945+329203884+333962608+341568825+350870900+359327369
3768+365643820+370427516+374228751+377274165+380239406+383573599+386656733
3758+388686641+390209377+393142531+399593222+409485198+418168858+421133314
3748+421267672+423296302+427027615+428549741+427570997+428021168+432213454
3738+439761363+448598284+456196341+460962150+462964443+463573654+464359616
3728+466129521+468569789+470796166+472461681+473525621+473341319+471648626
3718+469820617+469577716+471119414+473182889+474349681+473986188+471966995
3708+468631872+465553501+464723342+466232721+467624874+466983693+465612563
3698+465656875+467393096+470008868+473447423+478371603+484257279+488353770
3688+488623820+486345263+483404791+480776504+479673856+481351043+485758237
3678+491589497+496585778+498180527+496746356+495382805+495277282+494316599
3668+490834691+486236807+482457931+480114329+479056544+479514178+482100099
3658+486400754+489888063+490083893+488316776+488151203+491168741+494902696
3648+494931675+490677830+485340704+481580151+479746160+478304817+476043623
3638+473852963+473314169+474504772+476265791+478097575+480618655+483564034
3628+484664881+483060637+480712447+479655882+480950381+484627278+489056191
3618+491690954+492019080+491880570+492766917+494587405+496694495+498462135
3608+498860880+497172745+494210786+491856992+491629336+493676377+496968146
3598+500233840+502394591+502931963+502668707+503516375+506736654+511282038
3588+513802218+512011406+508039110+505514225+505632525+507503945+510192253
3578+513233195+515754537+516758079+516351610+515817142+516697739+519765628
3568+523994327+526877652+527147064+525733568+523702789+521442263+519404109
3558+518145964+517706276+517887180+518805642+520516078+522569042+524546566
3548+526458232+527873354+527505273+524866154+521737170+520760981+522752502
3538+525623515+526462181+525002167+523638790+524105715+525622934+526248638
3528+524967089+522210426+519027490+516147591+514048051+513437272+514417062
3518+515568928+515458353+514876031+515880096+518813076+521574849+522037594
3508+520667945+519579380+519651452+520088933+520400043+521139923+522304160
3498+522750759+521890663+520693091+520258455+520373909+520271058+519958845
3488+519899027+520070001+520158159+519972666+519383434+518495113+517632636
3478+516736069+515298413+513193298+511136733+510280354+511363227+513679505
3468+515049096+513816969+510622185+507293770+504958560+503914946+504138943
3458+505188016+506117628+505888347+504067975+501297374+498843515+497555985
3448+497318631+497440821+497570620+497901940+498213107+497579563+495832018
3438+494318806+494277398+495406732+496623585+497259278+497029357+495789390
3428+493933070+492346451+491510108+491165489+491035690+491345754+492261196
3418+493307714+493846770+493675738+493016350+492318923+491985513+491975814
3408+491809660+491090165+490066587+489621149+490380077+491643971+491861347
3398+490555116+488954385+488414285+488998523+489752225+489815353+489147138
3388+488414343+488213112+488412252+488340993+487682593+487053579+487301386
3378+488517601+490210149+491870523+493014318+493469396+493907807+495107005
3368+496640485+497393200+497097015+496370899+495696005+495157414+494762444
3358+494712441+495463007+497060950+498428683+498384430+497531593+497831436
3348+500022271+502456325+502895782+500989342+498419623+496995151+497163453
3338+498025408+498442389+498191620+498028137+498719525+500294935+502135285
3328+503490589+503977609+503573637+502211654+499984870+497750770+496660463
3318+496827023+496956415+495818602+493958391+493110374+493966521+495534788
3308+496794907+497897932+499317004+500800655+501617833+501242202+499737295
3298+497745717+495973722+494693276+493975755+494135753+495458477+497608195
3288+499754544+501394011+502685084+503865524+504827949+505341800+505235347
3278+504576947+504108569+504792697+506405043+507504758+507278961+506349175
3268+505534319+505004208+504590130+504003395+502903738+501309395+499848684
3258+499399064+500394360+502271878+503590595+503285525+501882715+500816626
3248+500640309+500674109+500316132+499940152+500239996+501141906+501854084
3238+501826614+501245861+500519570+499740664+498919013+498188367+497509350
3228+496683286+495867734+495560864+495961584+496741826+497494657+498070358
3218+498424328+498332394+497423979+495739213+494064785+493106135+492586767
3208+491773421+490579392+489570623+489186338+489241858+489032323+488005550
3198+486445733+485248684+484894424+484923781+484485806+483316343+482100796
3188+481658959+481838208+481719996+480971405+480292910+480213550+480195547
3178+479601001+478790007+478396605+478176267+477451022+476177690+474800172
3168+473566477+472572140+471971554+471731151+471466182+470752087+469521296
3158+468127604+467065115+466578124+466483026+466356305+465812952+464707720
3148+463309730+462242828+461950186+462251684+462651881+462808569+462434680
3138+461274799+459694045+458683331+458565932+458371292+457240362+455728399
3128+454954951+455082891+455290510+454936076+454189373+453532366+453161410
3118+453105396+453420542+453865022+453882038+453311593+452615908+452136293
3108+451699508+451177207+450884652+451080483+451398532+451221954+450526415
3098+449823819+449266702+448555221+447819261+447590299+447700671+447312640
3088+446290979+445509168+445541226+445856662+445570641+444599185+443734327
3078+443576624+443702908+443185457+441776984+440185603+439283983+439377223
3068+440094019+440701690+440620965+439873565+439046542+438658076+438519770
3058+437982137+436928418+436098463+436140945+436732501+436899583+436102935
3048+434845400+433985275+433634355+433202506+432458677+431936463+432109150
3038+432778875+433518552+434130550+434369647+433747456+432063939+429822985
3028+427771618+426267931+425302951+424908387+425258233+426276439+427333323
3018+427711452+427424327+427094401+426958244+426614292+425798043+424792759
3008+424028632+423688311+423677509+423746618+423662612+423280883+422521896
2998+421585199+421030927+421120799+421279171+420750540+419569984+418420789
2988+417787448+417635290+417725597+417879033+417972331+417993499+418066326
2978+418200189+418164270+417805887+417264218+416731289+416241830+415743079
2968+415194093+414636627+414163487+413678122+412887659+411705332+410417046
2958+409471405+409303538+409992893+410894454+411176643+410821483+410391725
2948+409915188+408886847+407366754+406228157+406086657+406540777+406807808
2938+406757776+406839749+407234284+407602075+407553263+407017605+406220085
2928+405431364+404704173+403912577+403097838+402573272+402537149+402695375
2918+402512322+401909500+401450443+401627892+402185561+402408628+401929797
2908+400996148+400092902+399529107+399322446+399314780+399293815+399030907
2898+398394721+397540984+396844602+396555126+396600337+396722760+396754266
2888+396771282+396929276+397074494+396734637+395737192+394606581+393998300
2878+393928203+393939731+393867079+393926838+394075947+393860226+393105421
2868+392315480+392038838+392068369+391694799+390763648+389971906+389860053
2858+390115759+390276715+390409650+390531666+390145058+389075978+388042469
2848+387696688+387782465+387803779+387839234+388128101+388435697+388359125
2838+387887872+387233247+386467959+385669684+385065032+384746750+384529607
2828+384263215+384024119+383927046+383980940+384119711+384191143+383969441
2818+383366764+382637686+382203689+382210861+382374024+382321872+381971590
2808+381450858+380822221+380086406+379338425+378758397+378500397+378562451
2798+378654790+378371354+377723204+377272858+377433785+377855906+377817315
2788+377077173+376056557+375300561+375010446+374980827+374814325+374311276
2778+373704157+373327015+373121748+372778406+372284650+371935152+371836192
2768+371783750+371627353+371458208+371415958+371483558+371476386+371185196
2758+370573866+369847691+369270277+368915263+368636878+368253116+367746728
2748+367338691+367320920+367668472+367861282+367335264+366117337+364806692
2738+364002494+363889421+364158862+364190048+363595386+362691472+362152068
2728+362243043+362670710+363031009+363133919+363026595+362877400+362764995
2718+362610950+362375455+362116090+361815347+361426503+361029239+360646900
2708+360108047+359386751+358807276+358634763+358704337+358634734+358270892
2698+357844560+357714326+357919419+358094110+357930570+357521139+357125558
2688+356865323+356727336+356622277+356424676+356132470+355901475+355795400
2678+355680934+355460364+355187990+354899239+354541553+354111244+353674372
2668+353259017+352898079+352743773+352932837+353287445+353311053+352691243
2658+351805536+351422878+351780041+352283729+352324410+352007755+351768920
2648+351665633+351469657+351204398+351146148+351327924+351402754+351102650
2638+350569925+350120654+349906443+349875431+349863670+349688573+349313261
2628+348928773+348769821+348821102+348768659+348354321+347761865+347443496
2618+347558282+347846278+348023407+348006653+347808819+347509934+347297611
2608+347323599+347523001+347663950+347587668+347351824+347079276+346759252
2598+346364020+346053898+346007960+346138514+346224088+346236864+346308210
2588+346444455+346463910+346207623+345741540+345340965+345237533+345365327
2578+345460339+345412049+345313118+345170455+344886031+344545507+344371193
2568+344361756+344302403+344144409+344109070+344392100+344908884+345347760
2558+345445036+345210905+344883476+344684858+344645774+344650710+344620714
2548+344580497+344527881+344390387+344166623+343932086+343714942+343560171
2538+343604250+343877553+344186543+344351215+344397443+344450815+344581542
2528+344722665+344702455+344488651+344345640+344518211+344834548+344913791
2518+344716364+344576519+344676699+344820900+344819419+344774933+344842155
2508+344987431+345137585+345337132+345642231+345980549+346156169+345997797
2498+345583081+345241307+345205068+345378975+345552824+345666738+345774004
2488+345913297+346061738+346115487+345975728+345727311+345618275+345804929
2478+346225307+346714737+347102332+347219761+346992134+346553869+346197112
2468+346192785+346606775+347187935+347509411+347381065+347056627+346904963
2458+346996925+347148996+347225539+347229750+347198215+347161017+347160291
2448+347213692+347284340+347324500+347315178+347259397+347188545+347161889
2438+347205213+347284892+347393116+347588191+347889718+348204109+348409725
2428+348475147+348478196+348529737+348667318+348831120+348977528+349167724
2418+349489171+349922443+350328941+350572335+350655934+350731287+350938152
2408+351238459+351453425+351486005+351464489+351607819+351978078+352454354
2398+352916576+353303038+353515275+353484582+353345172+353340003+353536937
2388+353783060+353908474+353831001+353475580+352721297+351477323+349756899
2378+347621119+345080003+342072832+338578757+334877934+331685822+329702258
2368+328873929+328391497+327576903+326481689+325565289+325298229+326157338
2358+328446872+331975270+336300722+341171590+346176117+350262329+352338697
2348+352139586+350423488+348678614+348146643+348739709+349544053+350158287
2338+350848948+351728993+352448198+352815147+353237762+354189530+355536442
2328+356768221+357666617+358404378+359206021+360193128+361415817+362844645
2318+364354750+365734620+366766649+367482979+368281138+369501708+370974992
2308+372278552+373266326+374010185+374456232+374515876+374311770+374065008
2298+373909976+373921213+374089254+374247248+374269346+374310870+374626626
2288+375218007+375836713+376264844+376492413+376677586+376930911+377100984
2278+376919383+376418686+375968224+375843072+376011752+376327479+376653339
2268+376830789+376766122+376531207+376273323+376099765+376062190+376126799
2258+376146806+375994271+375746957+375651162+375838019+376122211+376186443
2248+375968660+375722624+375678109+375812582+375973190+376070873+376136556
2238+376271581+376536521+376864298+377118610+377224540+377206275+377142073
2228+377114690+377172272+377318186+377520811+377689578+377697621+377512477
2218+377226456+376887993+376444239+375911920+375440581+375164403+375105108
2208+375183684+375251139+375194254+375040616+374889010+374804539+374845221
2198+375054002+375361366+375635424+375851319+376096252+376430504+376825678
2188+377199393+377486430+377716932+377992209+378366562+378829104+379380703
2178+379996157+380551154+380953558+381280087+381619828+381905065+382083821
2168+382309908+382741176+383293821+383811824+384322074+384883547+385322858
2158+385380382+385052256+384625837+384437789+384618607+385001788+385335344
2148+385590876+385889615+386179847+386303373+386314262+386405354+386606294
2138+386800208+386917665+386964416+387008147+387175810+387519152+387924082
2128+388240012+388431516+388600863+388940953+389577604+390374688+391024029
2118+391400560+391688846+392099468+392630916+393199183+393826658+394546706
2108+395273461+395948877+396676939+397548882+398475126+399295266+399929536
2098+400392658+400755716+401078848+401374858+401688958+402108059+402622055
2088+403142381+403674497+404248601+404738321+405004742+405154896+405446812
2078+405979972+406579542+406974281+407091361+407153356+407435167+407992313
2068+408666771+409249847+409606982+409759430+409867943+410084942+410459789
2058+410962809+411490395+411882432+412099257+412378686+413034328+414058487
2048+415098675+415895846+416540889+417182651+417742033+418113512+418423605
2038+418893928+419599747+420476134+421439052+422438790+423465098+424540973
2028+425696498+426925083+428157384+429315639+430430366+431654101+433099510
2018+434686999+436228552+437676022+439169285+440796730+442452023+443992995
2008+445398912+446713361+447993864+449356080+450913167+452637773+454358749
1998+455927917+457430007+459167360+461275176+463437902+465218086+466535555
1988+467594966+468640206+469944491+471609599+473294307+474583986+475579572
1978+476699730+478072980+479535637+481061915+482856299+485094813+487735732
1968+490510166+493030056+494998694+496414630+497626721+499165253+501358469
1958+504038124+506705351+509004032+510971567+512889912+515029815+517509400
1948+520267980+523206767+526377856+529789957+532982882+535331856+536960754
1938+538676126+540931366+543465601+545913245+548217327+550424190+552550677
1928+554744009+557292066+560315179+563500786+566423487+569187177+572146697
1918+574869444+576370228+576729598+577212843+578671289+580861369+583108421
1908+584973395+586359247+587408204+588304423+589177412+590304480+592114225
1898+594656764+597212602+598814379+599315047+599576502+600377013+601593691
1888+602704441+603539100+604123454+604460465+604792192+605362898+605876575
1878+605872393+605541538+605632136+606662218+608636955+611266665+613776450
1868+614752638+613462204+611073332+609342047+608842774+608979367+609014735
1858+608607394+607779298+606864553+606294659+606264112+606626270+607079780
1848+607579635+608409938+609303253+608931919+606663728+603806072+601709726
1838+600402043+599183680+597748173+596688124+596749684+597508961+597453673
1828+596076184+594418887+592992615+591238623+589039018+587130604+586022004
1818+585433003+584759445+583943138+583676398+584371734+585175613+584709094
1808+582777798+580600495+579578717+580261915+581996452+583404083+583634119
1798+583083797+582780063+583628602+585886804+588288162+588698465+587170792
1788+585913809+586143962+587198610+588287872+589753461+591884595+593885291
1778+595115037+596420164+599324571+604124906+608656932+610131872+608783130
1768+606696425+605023738+604445133+605738820+608541885+610992491+612089012
1758+612649613+613268406+613998588+615763672+619765645+625241861+629169788
1748+629879178+629010545+628584446+628969021+629710063+630635436+631871860
1738+633925230+637833586+643732126+648603429+648869182+646082784+643398657
1728+641784104+641243422+641555926+642190341+643378215+646788574+653774691
1718+662520782+667545288+665973246+661106763+656840721+655047412+656376990
1708+660294231+664741816+667559342+669479139+673456778+680126036+685322503
1698+685770903+683544236+680364726+676459216+673298988+672510440+674289927
1688+678117442+684143109+691983863+697494692+696675597+692462810+689285507
1678+688963131+691216920+693899537+694956102+695355834+697032528+699171443
1668+699601085+699300080+700821480+703975263+705930370+705265175+703885711
1658+703987401+706578317+712226726+719663624+723414479+722089954+721291302
1648+723284739+725150061+723116436+718678317+715620766+715357046+717835063
1638+722890988+729054525+731703284+728223757+723018753+720503103+720999415
1628+722464134+723479756+724478652+725739294+726490556+726850159+728128398
1618+730583359+732345482+731680693+729810899+728749223+728922172+729522206
1608+729794115+730028043+730967528+732527664+733865895+734562450+734998655
1598+735682608+736853059+738522435+740384563+742033497+743583470+745528007
1588+747781389+749629405+750911245+752466154+755102485+758814139+763364286
1578+768646704+773395816+775110491+774070420+773271535+773943002+774849501
1568+774788986+774316078+774200741+774856063+777504358+783716156+791883584
1558+794401731+788963671+782245281+777974245+776315903+775984584+775499538
1548+775247607+777636363+784029995+792455162+799537858+803462417+802979055
1538+798493663+793713364+791370314+791140161+791055197+790710113+791832826
1528+795457774+800760983+806651567+813236151+819914875+824030618+825284871
1518+827266402+831220405+834372794+834995013+835299792+838260416+844743891
1508+853501016+861075553+864099827+864328993+865105867+867594280+871672331
1498+876519359+880723957+883673894+886608616+890960842+896595429+901611398
1488+904065721+903887662+902248891+900829181+901782314+906418818+913913501
1478+922246444+929951940+936396621+941047586+943063440+942350739+940708019
1468+940343074+942117218+945276053+948621077+952490580+958094330+964496499
1458+967066334+962353983+955570839+951769749+948820740+944052928+938634090
1448+935392498+935231571+936794553+938317812+939264731+940593495+943150320
1438+945931433+947206652+947469269+948163676+948523627+947163734+945041196
1428+944714522+946907912+949799659+951353988+951298467+950655631+950083879
1418+949423446+948537100+947706797+947246259+947732699+949653541+952157460
1408+953890371+954946820+955781014+955608762+954197241+952983814+952782990
1398+952913601+953047175+953603130+954372687+954394116+953353232+952291382
1388+952899140+956044270+960718116+965260829+969281851+973305486+977588311
1378+981823398+985183406+986863991+987093737+986947736+987114993+987914458
1368+989692726+992461991+995849294+999291885+1001889132+1003544744+1005610600
1358+1008656885+1011025431+1011372024+1011167135+1012206103+1014004464
1350+1015768329+1017565413+1019314294+1021640212+1025359126+1028664195
1341+1028798000+1027173516+1027918623+1031332293+1034243262+1035700837
1332+1037159226+1038336529+1037042727+1033159924+1030037328+1030951551
1324+1036064505+1043031225+1049638226+1055108460+1058168683+1057974712
1315+1055857400+1053085812+1049795378+1046373114+1044162417+1044745494
1307+1048559999+1054307369+1059967510+1064263808+1067043527+1068236511
1298+1068560107+1068688686+1067850543+1065553198+1062036851+1058467191
1290+1056452092+1055623124+1053610581+1049505350+1045163172+1042274619
1281+1040622608+1039265038+1038301916+1038395650+1039026581+1038607277
1273+1036130363+1032271023+1028791960+1026878261+1025187688+1021174448
1264+1015241934+1010578250+1009054121+1009537192+1009310582+1005838024
1255+999095707+992690576+990415880+992049075+992978978+988319708+978248163
1245+968421696+964283595+965647785+967351600+965170580+959311183+951653018
1235+943097704+934311948+926171002+918865587+912098414+906113690+901358422
1225+897278395+892926693+888657747+885471617+883180835+880845450+878497522
1215+877098022+877209236+878412035+879483002+879294257+878136235+877318476
1205+877547641+879012301+882048539+886092733+889506751+891841497+894547692
1195+898566391+902998934+906694734+909446925+911542458+913430372+915582819
1185+917924301+919908853+921768484+924947877+930300567+935808550+937891365
1175+936294757+935224776+938338777+945468108+954448417+963498126+971153387
1165+976305659+979577392+982780713+987028693+992493932+998643067+1003757183
1155+1005642774+1003696437+999719320+997082931+998332829+1002391716+1004916019
1145+1003844180+1002975605+1006809392+1014919500+1023176422+1027949171
1137+1028506927+1027200231+1027160972+1029137509+1031941736+1035765069
1128+1041910487+1048156840+1050754435+1050028841+1047482121+1044884526
1120+1045357259+1049696882+1053289076+1052000500+1048826681+1047328918
1111+1046021293+1043673771+1042686258+1045112762+1050220722+1056541180
1103+1063051079+1067367007+1068309222+1069441691+1072967214+1073741823
1094+1066090511+1055137498+1050915768+1056064729+1065435537+1070804488
1085+1066953627+1057449710+1051132041+1051439143+1052598908+1047299299
1077+1037230891+1030782784+1032867689+1039878779+1043836963+1041151674
1068+1035702463+1032708911+1032033611+1030778486+1029080246+1028999754
1060+1030201217+1030742479+1031047027+1033480500+1038213410+1041949281
1051+1040176589+1031535905+1019755435+1010159759+1006125264+1008301464
1043+1013681914+1016735516+1014624593+1010867233+1010379168+1013833723
1034+1018338047+1019322657+1015368771+1010818102+1009229973+1008913927
1025+1007103253+1004453739+1003128576+1003679246+1005946044+1011145531
1017+1019979025+1028179614+1028812984+1022520054+1017298847+1017497116
1008+1020202615+1020684989+1018143147+1014709615+1010992212+1005070848
1000+995321157+983246942+972113431+964114770+959350790+955864933+951101127
990+944550575+937901702+932259507+927280067+923226407+921284658+921719061
980+922923080+922534149+919750946+916079189+913063336+910558662+907517023
970+903762800+900366436+898046674+896344834+894769133+893642413+892621274
960+889980065+885510760+881856078+880779651+880421616+878531902+876272655
950+876241758+879031757+883455008+888649675+894712452+901330836+907032965
940+910659074+912908217+915879700+921644667+930680496+940690713+948109143
930+951440171+952239288+953605395+957463689+962662654+966799477+969575189
920+972383946+975074345+976149087+975832809+975111745+972866087+968399976
910+964773054+965617876+969920099+972727752+971166570+966650572+961004196
900+955695411+952829392+953421819+956584254+960298057+962023708+960312925
890+957313739+957296897+961721542+967318729+970366117+971612589+973706380
880+977006744+980805105+985635465+991522680+995478890+994714850+990964111
870+988467335+989483887+991526745+990289508+985029274+980088107+980526924
860+986900927+995520820+1002447468+1006521571+1008339213+1007505019+1003403156
850+997675648+993342878+992436786+994841919+999367151+1005790053+1014422142
840+1022341414+1023597003+1017519417+1012410296+1015594684+1024382879
831+1029803401+1027512212+1021302098+1018267312+1021994356+1028106671
823+1030254530+1030550598+1035510699+1044837717+1051135758+1049015775
814+1040404593+1031968915+1028536777+1029910956+1034206907+1040290649
805+1047010665+1051354237+1049328685+1042742474+1036637825+1032825991
797+1032348844+1035073623+1038619589+1041163754+1043020888+1043568190
788+1040578470+1034805199+1028357905+1023579000+1022708799+1025375503
780+1028245007+1028054636+1024051850+1017627554+1011264120+1007195942
771+1006542826+1008572211+1011022759+1011488291+1008648290+1004496715
763+1002613564+1002540853+1000047213+994745166+992617981+997525930+1005507575
753+1011714321+1017128686+1023010442+1027221138+1028445831+1028590555
744+1028538171+1027066890+1025774016+1028177407+1033167126+1036041043
736+1035435781+1033473299+1030866645+1026662569+1021435322+1017340894
727+1016229564+1019485152+1028622729+1040559654+1048339081+1051235415
718+1052606690+1050516210+1040202723+1025489447+1015018112+1010468720
710+1010008299+1010593118+1008997671+1006728435+1008957832+1018091460
701+1030868503+1040977797+1042952475+1036968971+1028116428+1019016135
693+1008196464+997882629+994786631+1002842032+1018976063+1034564303+1042321428
683+1041661692+1036508433+1031496878+1027203019+1019348675+1007020554+993825020
673+982987229+977706088+980621819+992170453+1013955216+1041292100+1055544606
663+1046720637+1024488228+1007586440+1001408384+995500261+984818112+977871835
653+980459324+984363963+978920676+966775841+958915457+960772649+968383309
643+976786290+984094261+988701844+990761544+992995587+992808817+984582326
633+974836468+975532443+990710554+1015194428+1034838186+1034742129+1011558795
623+981535461+962843036+956647614+958317746+967452477+978748889+991588886
613+1010663970+1019436485+1013685050+1013687257+1018573717+1015587831
604+1002847956+990820084+980279755+959544123
##END=
