##TITLE=<SNM>
##JCAMP-DX=4.24
##DATA TYPE=INFRARED SPECTRUM
##DATE=29/4/2025
##SAMPLING PROCEDURE=Instrument type and / or accessory
##ORIGIN=Admin
##XUNITS=1/CM
##YUNITS=ABSORBANCE
##RESOLUTION=4
##FIRSTX=4497.3318
##LASTX=599.83466
##DELTAX=-1.4281778
##MAXY=2.0643063
##MINY=0.41861042
##XFACTOR=1
##YFACTOR=1.922535e-09
##NPOINTS=2730
##FIRSTY=0.43336809
##XYDATA=(X++(Y..Y))
4497+225414925+226605368+227843990+228362053+228143093+227328734+226139825
4487+225211141+225211017+226157031+227474898+228567930+229066631+228978241
4477+228715613+228434926+227725744+226583867+225918323+226394051+227531014
4467+228365463+228378190+227632115+226628403+226139422+226703602+228068143
4457+229189682+229027272+227625806+226230633+225973849+226611290+226908408
4447+226260070+225356747+225030082+225231866+225511995+225823422+226410157
4437+227234996+227853384+227825311+227213758+226532325+226125997+225929701
4427+225807114+225619778+225131664+224305492+223383567+222569362+222121072
4417+222459487+223581786+224875423+225903953+226648540+226882769+226305009
4407+225337587+224806534+224827058+224833274+224637986+224664555+225064139
4397+225390401+225314164+224879609+224168675+223373677+222920674+223059538
4387+223511905+223670300+222955444+221236428+219268860+218300926+218811005
4377+219927274+220379858+219748649+218581721+217738777+217915154+219273324
4367+221068810+222070925+221767714+220767149+219907385+219618684+220125942
4357+221411798+222888803+223763247+223834415+223539234+223289891+223162096
4347+223084635+222897965+222338110+221475571+221013857+221381694+221766908
4337+221046022+219466334+218382914+218545262+219483123+220382896+221003502
4327+221694128+222673238+223426832+223155213+221941827+220904834+220774652
4317+220886527+220223462+218986979+218328906+218918509+220502274+222444420
4307+223982470+224280488+223107887+221474408+220816444+221447916+222295868
4297+222241132+221357604+220571674+220493841+221036644+221864227+222623029
4287+222821464+222156075+221030366+220211976+219998100+220181205+220595779
4277+221127468+221495615+221615054+221872349+222529182+223190758+223364531
4267+223248672+223370298+223625919+223386342+222556325+221811769+221689973
4257+222060461+222562821+223014366+223353649+223626291+223949731+224250074
4247+224343797+224366460+224567221+224669454+224179650+223399983+223304447
4237+224188967+225154777+225228456+224475265+223664812+223315066+223402138
4227+223704031+224163730+224816316+225373814+225197716+224050104+222653210
4217+222053966+222660961+224096965+225529869+225987615+224967983+223135216
4207+221920962+222080008+223010212+223679957+223874052+224128666+224679700
4197+225035043+224724562+224099027+223955389+224467530+224944886+224800613
4187+224363360+224321257+224708595+225006256+225017666+225033245+225254158
4177+225652021+226172626+226545532+226347143+225725003+225441820+225853867
4167+226506669+226833846+226604934+225847232+224914100+224371095+224466492
4157+224925075+225333309+225518289+225501842+225314335+225044700+224934872
4147+225170992+225578048+225775925+225652812+225405856+225185641+225035260
4137+225149925+225868330+227237491+228781014+229908909+230348239+230075768
4127+229242279+228247977+227428517+226762957+226360118+226762570+228090341
4117+229417493+229708210+228982287+228042256+227392259+226907339+226437067
4107+226226711+226511506+227098287+227682867+228173647+228459822+228447823
4097+228478919+229045564+230000058+230587909+230273304+229164446+227781225
4087+226713492+226289709+226293228+226189337+225836691+225734272+226392578
4077+227784061+229454604+230743870+231045376+230419794+229697824+229478570
4067+229470214+229188473+228712389+228398249+228336367+228348908+228315750
4057+228375462+228723116+229245364+229562960+229488677+229301914+229457797
4047+230012661+230460238+230304928+229669022+229060337+228745950+228644554
4037+228575897+228412991+228267478+228559016+229576850+230947313+231870602
4027+232030842+231943971+232179580+232630908+232897768+232935716+232861882
4017+232521947+231695481+230522864+229514564+229222546+229828053+230981354
4007+232149677+233005860+233429720+233509506+233596579+233910842+234159456
3997+233974616+233499818+233130245+232986111+232981399+233050923+233079384
3987+232974035+232845806+232758688+232457678+231748527+230978115+230818107
3977+231619632+232987863+233991853+234069020+233660399+233546369+233835396
3967+234180260+234607157+235472982+236799034+238018620+238372227+237619532
3957+236322236+235183785+234371316+233889977+234094505+235118802+236296070
3947+236950314+237364454+238181154+239259676+239746891+239119945+237774827
3937+236690507+236748886+238107413+239934243+240901510+240370597+239082524
3927+238351455+238781220+239785304+240306901+240015843+239469320+239393315
3917+239993071+240621180+240374100+239222969+238049701+237638522+238247222
3907+240106977+243479562+247738077+251061941+252109785+251290077+249485244
3897+247002264+244393054+242973621+243668805+245414810+245773268+244384482
3887+243450109+244297332+245847924+246822213+247439036+247564305+246264807
3878+244314725+243771627+245087618+246968626+248736487+250504969+251338768
3868+250543490+249559900+249827457+250546668+249896315+247622482+245092578
3858+244094664+246496215+253335836+260875492+261489386+255486633+248792417
3848+244858908+244260190+246102599+249174546+252725430+256566860+260221512
3838+262084274+260756750+257169608+253446269+250785284+249267711+248732813
3828+249044535+249754987+250795314+253221775+257266276+260066000+259453021
3818+257613914+256615442+255395003+252823958+250250774+249548863+251484064
3808+255164743+258326816+260215280+262539896+265581151+266450138+263968956
3798+260668112+258205625+256186731+254393741+253411282+253476063+254311458
3788+255838643+258070761+260363971+261900766+263087319+265069506+267607858
3778+268975407+268683853+268471729+270516077+275701757+282766353+289008248
3768+293069072+295918106+298635006+301727849+306381112+313712365+322364508
3758+329124683+333298296+337632289+345099212+356420912+368457203+376367348
3748+380296191+384183614+389362691+392916179+393329079+393724741+397282508
3738+404806787+414416554+422248261+425593470+425096396+423081377+421420693
3728+421216879+422762324+425085204+426617721+426807491+426462302+426633067
3718+427546792+428911861+431109457+435254331+441459518+447672674+451685009
3708+453286229+453766871+454851454+457423630+460432796+462056307+462243473
3698+462705792+464907109+468967003+473854774+478340930+481535525+482398126
3688+480427349+477097982+474090088+471909109+470888578+471732050+474995163
3678+480463498+486056808+487840078+485517012+483119879+482365077+481251909
3668+478621725+476200007+474879676+473687388+472461492+472819609+475807290
3658+480366862+484341559+486530536+487948403+490593716+495533448+500859821
3648+502778978+500738629+497033970+493656611+491818341+492273188+494944543
3638+498691677+501924066+503546709+504092736+506146168+512149680+519993912
3628+522793496+519098417+514552673+513100299+515433379+520902676+527667750
3618+532674139+534387063+534064816+533377414+533235048+534560929+537907533
3608+541648931+542916092+541402394+539659459+539967072+542645000+546735618
3598+550820904+553346048+553515512+552328897+552253993+555435289+561239079
3588+565262854+563869076+559728543+557631800+558714492+561110478+562833881
3578+563015311+561718325+559900239+559165402+560946533+565820042+572785892
3568+578480861+578914843+574287747+569192441+567467984+569304114+571962635
3558+572928135+572668266+573397833+575766969+578080115+578630483+577525716
3548+575859979+574417650+573646850+573951487+575441374+577829919+580417690
3538+582037853+581757832+579978562+578377931+578423071+579883196+581037071
3528+580680163+579392106+578256213+577335977+576241938+575202030+574746966
3518+575026366+576022745+578070938+581347351+584709891+586015185+584498387
3508+581711700+579464405+578231596+578079867+579366869+581866654+584557293
3498+586579691+587435254+586578326+584035386+581253101+579938878+580307195
3488+581485935+583232838+585885282+588616722+589969451+589902546+589530323
3478+589383306+589365262+589703754+590654373+591629360+591420523+589440723
3468+586739357+585135936+584900870+584581289+583619758+583119243+583310842
3458+583066972+582297039+581818785+581351753+580297708+579525606+580147219
3448+581382260+581340034+579476745+577228334+576621850+578358151+580752090
3438+581369859+579900434+577792653+575543065+572661384+569752420+568346303
3428+568684796+569347581+569672432+570971960+574206953+577856272+579476559
3418+578599293+576645909+574857647+573513350+572505996+572146855+573244243
3408+575936805+578806394+580058736+579608012+579053304+579773011+581475952
3398+582524602+581899703+580212139+578502254+577192494+576451271+576539878
3388+577326552+578236619+579025773+579974097+581314177+583020653+585123287
3378+587645951+590031830+591332846+591442225+591473600+592456772+594163186
3368+595569985+596085877+596217330+596773217+597741631+598401502+598616478
3358+599133425+600077719+600318737+599014249+596963266+595850935+596375694
3348+597547738+598291131+599200392+601556383+605110460+608157202+609428579
3338+609108937+608400577+608329890+608825444+608990009+608434742+607874701
3328+607490820+606089664+602955679+598989136+595411806+592912084+592303058
3318+594033654+596650444+597703311+596726526+595515171+595380245+596144349
3308+597409588+598844909+599667919+599590783+599737304+600997706+602302877
3298+602006549+600491983+599742947+600569925+601851967+602441399+602494973
3288+602670946+603189257+603998811+605014971+606006948+606820780+607704928
3278+608754261+609243367+608710174+608319721+609353180+611058353+611537166
3268+609930582+606937290+604070305+602469798+601915710+601377867+600434627
3258+599469933+598901955+599311817+601329378+604122018+605616308+605253819
3248+604616456+604845011+605514493+606209212+607201375+608123781+607523188
3238+604676788+601140073+599491325+600745217+603576052+606007196+607217125
3228+607260715+606110064+604164678+602675907+602465395+602908307+602804756
3218+601518993+598805721+595008703+591908326+591572314+594065092+597287869
3208+599083014+598843173+597266663+595490989+594361544+593903193+593524459
3198+592938313+592680925+593379612+594821010+596130273+596700297+596713195
3188+596539763+595708383+593292369+589659172+586686093+585411182+584827455
3178+583634143+581828830+580284067+579797441+580619521+582022847+582805987
3168+582571975+581713932+580395864+578533009+576550667+575179956+574524673
3158+574030359+573444461+573118246+573147699+572919144+571847799+570084464
3148+568256146+566879048+566284594+566645098+567400025+567108843+565071812
3138+562736779+561948369+562342109+562211213+561272128+560573813+560415945
3128+560138095+559419938+558527295+557713028+556981850+556071535+554856088
3118+553989302+554424090+555985781+557211583+557081742+556240254+555846142
3108+555874975+555425926+554310742+553281810+552762011+552312031+551434084
3098+550298686+549320847+548358137+547012724+545537533+544588774+544228827
3088+544126641+544501221+545581185+546484245+546125104+544779691+543533117
3078+542716432+541703745+540141434+538724280+538290298+538621907+538852757
3068+538734139+538528588+538074020+537040809+535899149+535690932+536691403
3058+537778684+537423264+535407935+533138566+531967577+531923553+532289638
3048+532628502+532935309+533250922+533451512+533306665+532717109+531932854
3038+531223191+530328998+528744055+526618355+524889186+524166812+523949170
3028+523419326+522650200+522333410+522521537+522435472+521546364+520187558
3018+518948796+518026452+517332911+516810725+516472233+516217604+515764617
3008+515069805+514704805+515294981+516600400+517584998+517378548+515990041
2998+514240781+512959204+512182079+511517185+511067670+511062555+510908996
2988+509845340+508206793+506916472+506202873+505683043+505166531+504838672
2978+504932736+505389133+505818496+505834990+505194278+503603786+501214187
2968+499235070+498874007+499660433+499868960+498743267+497282336+496724341
2958+497151162+497674495+497564527+496915011+496151930+495311156+494306375
2948+493424025+492812736+492060103+491158997+491146347+492612548+494295306
2938+494416777+492895979+491022552+489574488+488460110+487723134+487785172
2928+488658841+489507707+489259403+487645875+485474972+483871210+483324097
2918+483416208+483344745+482680255+481693486+480972539+480793589+481000721
2908+481314256+481402150+480911029+479899892+478917557+478285062+477731687
2898+476962716+476092860+475374641+474838163+474207682+473189663+472086230
2888+471771176+472589442+473688008+473915974+473085616+471991453+471422359
2878+471379978+471230295+470498558+469304100+468089707+467274231+466963734
2868+466676521+465813610+464573577+463723130+463500496+463525857+463628136
2858+463946104+464336806+464392209+463994066+463401007+462847973+462325446
2848+461696113+460906090+460083887+459407150+458863696+458239602+457397557
2838+456497659+455890958+455820581+456159818+456406510+456064762+455076134
2828+453806648+452696611+451992467+451664671+451481690+451190695+450655456
2818+449930448+449282792+448951120+448752359+448199356+447178019+446184523
2808+445696657+445627892+445585666+445373418+445011829+444523002+443929943
2798+443299494+442674625+442101377+441668356+441354108+440961515+440323749
2788+439456839+438482999+437511050+436545333+435476561+434262478+433075305
2778+432173175+431703292+431613445+431645130+431498237+431121270+430755773
2768+430601657+430546254+430329976+429950187+429729910+429822330+429820997
2758+429159917+427875426+426696469+426250550+426323439+426151154+425530595
2748+425231694+425853338+426650801+426270361+424561654+422773268+421886919
2738+421615021+421190619+420451845+419793648+419458380+419237358+418782976
2728+418063238+417413598+417093026+416949109+416634892+415965069+415008033
2718+414014661+413230436+412666737+412168640+411714103+411428254+411291251
2708+411072648+410651284+410231253+410071122+410048396+409730924+408951226
2698+407964706+406988261+406043595+405268765+404884635+404815932+404718304
2688+404400335+403978630+403595772+403211922+402764609+402314753+401880089
2678+401354679+400749342+400259399+399967319+399766883+399633787+399596180
2668+399454185+398991990+398411580+398104463+398072964+397948083+397474727
2658+396717258+395914029+395289036+394908751+394689404+394560772+394477467
2648+394305802+393945762+393502510+393131496+392841182+392556201+392199944
2638+391728727+391236273+390889658+390706088+390574728+390422006+390207030
2628+389934978+389719940+389588177+389320867+388770840+388129447+387645240
2618+387336201+387103429+386856210+386504572+386026410+385512409+385068475
2608+384750693+384601816+384664194+384898671+385070428+384828852+384124181
2598+383448777+383329539+383668993+383926877+383832875+383549228+383252031
2588+382967546+382749625+382648989+382537223+382249513+381876236+381676854
2578+381745526+381938831+382031251+381799999+381147475+380302392+379676066
2568+379394650+379227295+379045865+379033526+379334256+379777725+380062551
2558+380040353+379758813+379356857+378985657+378755179+378655287+378549411
2548+378363361+378225087+378238605+378241023+378045300+377771263+377623936
2538+377499335+377141093+376611125+376313805+376510706+376991813+377320694
2528+377314866+377132908+376941340+376708227+376328904+375844293+375523659
2518+375669095+376257348+376915452+377367509+377679246+377943579+378049765
2508+377939734+377803693+377824713+377931054+377936944+377777526+377481694
2498+377071212+376644764+376416922+376502955+376766482+376972250+377001982
2488+376948471+377052486+377373803+377554427+377266935+376798632+376696539
2478+376995068+377294435+377371013+377242287+376896881+376381919+375962260
2468+375920747+376296257+376881163+377377244+377589151+377558644+377466471
2458+377394544+377279863+377083861+376889627+376808987+376866715+376990511
2448+377076235+377090124+377128940+377284452+377430229+377344195+377096046
2438+377036613+377298806+377608032+377676518+377493010+377199782+376963321
2428+376945091+377183599+377540228+377847562+378017397+378035286+377966893
2418+377884239+377764660+377599754+377510341+377578362+377727425+377939610
2408+378360757+379009808+379616819+379952242+380126201+380356957+380618097
2398+380774756+380919385+381251553+381746921+382269883+382838418+383418456
2388+383689920+383406520+382761965+382032894+381069720+379462454+377070592
2378+374145011+371044695+368055434+365369786+362983752+360672560+358336690
2368+356310138+355021616+354434106+354155760+354095458+354668397+356253991
2358+358785553+362016640+365983090+370885370+376308504+380877128+383128794
2348+382492981+379582250+376056696+373613462+372514245+371862156+371151315
2338+370682765+370820419+371429941+372024550+372284853+372446317+373122806
2328+374574652+376274245+377481849+378126528+378764232+379743591+380871857
2318+381869725+382660863+383220935+383558653+383865026+384385941+385150013
2308+386017420+386918526+387858914+388796170+389698951+390644485+391689353
2298+392711713+393558967+394307879+395156808+396042909+396603725+396635472
2288+396372999+396154055+396017083+395795938+395424055+394981671+394570321
2278+394269962+394155003+394235735+394369452+394322668+393994344+393519438
2268+393086386+392753815+392542219+392566928+392927650+393534413+394145981
2258+394592581+394940654+395365490+395860827+396265263+396580317+396951704
2248+397318998+397457768+397357380+397166866+396848402+396273975+395559818
2238+394980710+394633009+394380024+394047329+393568454+393005778+392487808
2228+392114375+391937440+392015289+392355797+392755862+392879161+392637522
2218+392346651+392368880+392753939+393324180+393926106+394482241+394943289
2208+395313591+395680761+396162860+396809245+397558312+398312711+399026404
2198+399671859+400202664+400651775+401179077+401893203+402700742+403439486
2188+404052046+404512536+404729868+404704042+404665474+404875583+405353744
2178+405931519+406512177+407145354+407846491+408436884+408650309+408410965
2168+407939221+407582313+407596698+408041066+408789823+409656579+410481882
2158+411068152+411211511+410987265+410844340+411174338+411843913+412333143
2148+412340707+412104618+412084776+412469277+413053997+413485251+413565301
2138+413426283+413427709+413797546+414400898+414916852+415185619+415327830
2128+415540233+415858604+416221279+416711005+417479759+418383749+419012431
2118+419215439+419338305+419785618+420545971+421291162+421836074+422329458
2108+422976091+423702029+424197398+424257792+424001675+423772189+423895551
2098+424451841+425134530+425440314+425215076+424884955+424931025+425337663
2088+425774590+426055107+426170283+426126290+425965228+425792634+425693393
2078+425689548+425734100+425727310+425652314+425651228+425835046+426113144
2068+426388917+426792548+427443087+428096664+428383846+428337497+428342395
2058+428606883+428999600+429346525+429608006+429830298+430132517+430660408
2048+431423891+432284973+433138738+433953500+434669115+435266980+435896251
2038+436687668+437507950+438173556+438830854+439834550+441310920+443049174
2028+444721515+446081840+447090404+447964941+449056345+450621415+452625955
2018+454675511+456289907+457405431+458443417+459793077+461426974+463059848
2008+464501774+465736784+466747115+467495252+468147310+469013942+470068855
1998+470871402+471286411+471912023+473337424+475230942+476675595+477376546
1988+477961110+479085377+480816531+482850958+484882099+486751248+488539137
1978+490486259+492687855+494983855+497225383+499523554+502095048+504815172
1968+507090679+508464460+509271751+510298513+511953151+514115590+516531015
1958+519023668+521439775+523635542+525604614+527586770+529959255+532912615
1948+536272799+539761087+543327938+546926846+550052459+552097985+553260790
1938+554444676+556260903+558613546+561155556+563741405+566381695+568979449
1928+571346540+573547206+575894206+578378365+580598997+582495025+584363337
1918+586019836+586937157+587284392+587765995+588594337+589424354+590052354
1908+590743352+591892701+593493765+595036048+596043775+596617519+597299278
1898+598468841+599862805+600729157+600776344+600742922+601423442+602488710
1888+602939062+602472960+601670165+601134988+600978236+600907177+600649665
1878+600261877+599943661+599724593+599622406+599964247+601071866+602331958
1868+602047101+599384860+595789983+593174929+591910683+591059460+589738664
1858+587790612+585518267+583331428+581547631+580278486+579442455+578913727
1848+578798892+579356328+580158628+579787582+577579042+574691656+572348128
1838+570706821+569351983+568001176+566995744+567008145+567709250+567385577
1828+565264404+562775099+561027389+559313659+556879601+554367230+552755376
1818+552160612+552064006+552176671+552686363+553641818+554464580+554483182
1808+553791688+553065098+552835984+553339910+554584686+556141044+557235394
1798+557629816+558185268+560127802+563694652+567179034+568143294+566559902
1788+564669205+564252647+565654610+568363789+571748093+575095751+577594977
1778+579149475+580910702+584350130+589643050+594500996+595896076+594007302
1768+591356966+589532245+589046797+590205323+592611850+594857470+596178824
1758+597161624+598116893+598978471+600629575+604249007+609299916+613417569
1748+615276766+615898069+616540702+617537950+618906553+620559455+621988142
1738+623332067+626367585+632289869+638065508+638915305+636309738+634342340
1728+633888392+634066536+634532823+635377287+636788055+639698568+645444259
1718+653497451+659651329+660314610+657464428+654760023+653912335+655237720
1708+658628287+663309639+667793376+671797185+676947863+683710518+688931883
1698+690250819+689577183+688275547+686356761+685154335+686213465+689532042
1688+694501537+701670334+711282985+719197098+720487387+717605024+715250087
1678+715721769+719595116+725662619+731539142+736491710+741173868+744635060
1668+745319423+744677224+745320849+747523685+749345865+749510243+749360870
1658+750950960+755503153+763771817+773962119+778171975+774113848+769872245
1648+769426420+770702076+770008969+767413261+765192009+764361745+765405869
1638+768649977+772206907+771213690+764401243+757015548+753078396+752787524
1628+754091517+754638971+753575067+751123585+747826276+745072948+744379036
1618+745522184+745944323+743688658+740604712+739017413+738861219+738712404
1608+737595050+735836365+734427830+733858984+733717486+733527313+733532707
1598+734104281+735118952+736452026+738244566+740333682+742239880+743800641
1588+745121065+746215228+747234736+748515724+750091304+751813033+753968497
1578+756806153+759004028+758183685+754976967+752432786+751564388+750674226
1568+748168427+745006539+742651974+741511678+742354468+746703156+753481189
1558+755501602+750058503+743544059+739620920+738239668+738199239+738169042
1548+737786960+738291009+741328016+747360361+755281852+761993166+762734514
1538+758007029+754062622+753955041+756257211+757959966+758500041+759975171
1528+763532473+768335419+773460364+779540516+787125251+794251015+798407422
1518+800051271+800864360+801875062+804143501+808633315+815560102+824907428
1508+836248443+845614681+847428737+844617495+843363418+845616231+850553297
1498+856393112+861285162+864428075+866717782+869557299+873547280+878148644
1488+882077177+884392679+885235158+885404808+885657421+886977474+891045955
1478+898990141+909562587+919652625+926646812+929386065+928332081+925936096
1468+924593163+924666455+924775462+923577748+921561737+920568954+922093007
1458+925665996+927201086+922823193+914975366+907993332+903921130+902296565
1448+901117329+899245421+897428698+896685552+897446184+900012501+904258010
1438+908699522+910697799+909383699+907426098+907262278+908744662+910365879
1428+911190997+911684505+912379410+912877692+912873414+912915950+913269076
1418+912714120+910179736+906851486+904793807+904725848+905635914+906454025
1408+907552529+909813465+912695890+914583300+915357448+916749862+919735776
1398+923050819+924803303+924657526+923539180+922370299+921786696+922022010
1388+922473912+922004214+920558723+919840504+921629262+926120131+932072922
1378+938050949+943119221+946414856+947240346+946489573+946501602+948676722
1368+952320770+955919306+958821139+961262699+963509497+965073792+964701817
1358+962470458+961001962+963090831+968471676+974049081+977586602+979490444
1348+981126790+983492331+986940005+990918330+994420694+997100916+999478610
1338+1002035750+1004641193+1006650631+1007675595+1008313826+1009714052
1330+1012275223+1015008398+1016487621+1016534188+1016759953+1019272262
1321+1024627498+1030536885+1033416644+1032640015+1031725360+1034056177
1312+1039506531+1045555618+1049999858+1052188556+1053192314+1055421565
1304+1060304933+1066604525+1071867248+1073741823+1069885031+1060051823
1295+1048233794+1039261544+1034278655+1031232782+1028019491+1023871083
1287+1018922918+1013868165+1009867518+1007647072+1006628495+1005165580
1278+1001978456+997415784+993063190+989921764+987678252+985773295+983863066
1268+981115071+976312311+969192189+960700302+951929076+943922698+937971643
1258+934918701+933975771+932615663+928410395+921450002+914169904+908344908
1248+903153182+896534939+887747902+877774126+867650047+857538927+847560749
1238+838702032+832265964+828681069+827219705+826483752+824880021+821682356
1228+818026340+815642570+814699640+814150388+813747843+814081375+815051836
1218+816022855+817112615+818997111+821780326+824893290+827847271+830719527
1208+834046103+838196371+842880575+847534458+851815435+855392765+858101200
1198+860676322+864153635+868235200+871326401+872416471+872030792+871444585
1188+872075561+875180216+880873139+887541421+893083296+896969355+900632316
1178+905441772+911463949+918681110+927415504+937207230+946335798+953481404
1168+959195843+964515674+969310311+972323011+972583066+970971274+969989528
1158+971625440+975502384+979825588+983761748+987876486+992097131+994342442
1148+992834820+988513849+983338245+978934123+977283950+979852251+985608668
1138+991701717+996221853+998799579+999049960+996515701+992389429+989801596
1128+991144901+995150012+997963672+998335090+999272377+1003277054+1008600915
1118+1011337873+1010385829+1008331622+1007302937+1006724604+1005648051
1110+1005179655+1007236094+1011773468+1016994212+1021587143+1024802108
1101+1026110937+1026558313+1028191559+1030866511+1032027889+1030815231
1093+1028629633+1025937133+1021773348+1015998329+1009866030+1004543285
1084+1000849941+999309333+999191397+999014245+997863036+995645814+993166864
1074+991306241+988843599+983685170+976850029+971264688+967780740+965132264
1064+962634650+960395541+958007120+955568102+954270186+954922430+957190621
1054+959609921+960002979+958013383+956168323+956466635+957967312+959436613
1044+961495905+964058439+965024001+963171997+960539953+960270598+962880629
1034+966182651+968355600+969615754+970645369+971321299+970956206+968570390
1024+964688733+961619421+960175356+959254873+959158205+962055202+968274930
1014+974002328+973898901+966674981+956692400+948862430+943708342+938419391
1004+931439341+923607263+915194744+905780079+896729329+890072146+885464644
994+880991943+876511740+873416757+871546213+868919006+864471046+859208695
984+854885429+852705536+852446845+852403875+850924777+847781553+843624774
974+839190642+835431386+833031680+831284962+828810415+825407509+821848099
964+818397200+815017980+812468901+811855349+813156675+814953866+816086225
954+817297642+820318589+825548511+831442272+836094295+839176070+842324564
944+847409081+854403144+861245912+866137899+869582659+873670301+879954516
934+888373297+897680071+906564459+914545042+921388368+926286555+928527897
924+928227105+926300941+924185844+922748166+921388244+919456065+917819099
914+917416740+917338488+915640197+911859549+907818102+905743743+906544741
904+909750653+913934342+916715573+916775099+916046401+917247897+920324153
894+923166584+924581320+924666827+923867876+923356634+924592605+927350088
884+929716806+930980929+932283805+934116711+935991534+937925759+940393175
874+943472160+946700953+949483424+950866536+949630502+946553688+944947104
864+946694752+949784526+951461921+951948236+952374715+951916489+950099766
854+948603182+948701214+949510210+950530710+953205600+958017165+963331353
844+967567686+970201156+971856104+974239130+978006199+981002096+980827920
834+979088457+979867132+984150776+988899156+991553646+992530928+992385585
824+990408824+987153803+985639671+988498286+995049003+1002222203+1008293736
814+1013329454+1017277891+1020342677+1021739865+1018387494+1010233913
805+1002612594+1000338017+1003930042+1010034191+1013042055+1009416546
797+1003030331+1000353147+1001707736+1000982325+992731580+978539267+964951950
787+956583083+953301152+952678484+953048538+953688195+953106018+950074654
777+945838879+942396227+940002164+938204849+937665766+939333860+942703034
767+946763827+951622703+957213997+962015579+965382584+969418264+975508213
757+980503751+980341418+976196979+972447272+971147000+972285063+976043141
747+981459020+985037714+984041831+979165717+974021674+972454961+976091630
737+984034204+991063424+990808268+983723366+976516312+974108545+975515654
727+977554607+979848840+982557028+982738148+978217889+972628640+971059013
717+974451006+980558564+986723355+990132710+988329876+983765344+981341828
707+982539046+987011250+994198029+1000840578+1001709101+996481163+992392219
697+993809435+994108554+985652878+973415934+965512611+960388038+951622641
687+940362172+935865413+942071748+951070537+952898359+949374851+949443553
677+955095986+959952010+957640911+946083060+926974515+908521874+904779979
667+919736272+935185886+938798621+937108640+938064777+940643681+940010659
657+936600870+933288927+929358472+922867776+915039976+909363113+908790423
647+913009580+916822905+915173352+909002732+901777200+895428561+894314245
637+901613193+912515080+916795747+911135253+902205416+895533847+891089235
627+886235196+881041238+877303250+876704145+881737817+890229208+895920333
617+895859318+892913523+891896186+892231826+889921843+883222062+874254338
607+869671762+876328449+895628469+918083184+923012685+904933011
##END=
