##TITLE=<SNM>
##JCAMP-DX=4.24
##DATA TYPE=INFRARED SPECTRUM
##DATE=29/4/2025
##SAMPLING PROCEDURE=Instrument type and / or accessory
##ORIGIN=Admin
##XUNITS=1/CM
##YUNITS=ABSORBANCE
##RESOLUTION=4
##FIRSTX=4497.3318
##LASTX=599.83466
##DELTAX=-1.4281778
##MAXY=2.1672034
##MINY=0.50490963
##XFACTOR=1
##YFACTOR=2.0183655e-09
##NPOINTS=2730
##FIRSTY=0.51466948
##XYDATA=(X++(Y..Y))
4497+254993203+255076629+256626955+258889277+260512102+261137069+261285050
4487+261142474+260221752+258359193+256439166+255499780+255555063+255826956
4477+255774922+255486521+255332929+255649090+256343721+256784031+256617534
4467+256451628+257139438+258677656+260226447+260938000+260605863+259762188
4457+259236740+259477478+260193047+260584483+260020113+258747380+257853413
4447+258220573+259600180+260751777+260504158+258999192+257760951+258056410
4437+259427748+260409451+260339167+259702889+259140410+258939598+259154201
4427+259655433+260278363+260957343+261393754+260926247+259306640+257345123
4417+256194914+256165176+256684688+257174196+257543601+258042885+258858771
4407+259718009+259948736+259248051+258252260+257877215+258256070+258698092
4397+258516121+257570120+256207996+255047983+254614998+254869852+255237721
4387+255354458+255559758+256265110+257199564+257734697+257618906+257098833
4377+256566061+256234190+256026793+255791046+255685236+256086476+256926017
4367+257544222+257513214+257044555+256366224+255315624+253847129+252585529
4357+252435658+253579104+255090302+255867414+255758887+255261021+254475758
4347+253248976+252120886+252073341+253243424+254628316+255251571+255045207
4337+254402344+253620359+253017038+252955525+253516203+254471476+255553822
4327+256498701+257011155+256965588+256540399+256090610+255901227+255986483
4317+256162194+256310085+256422954+256458302+256282179+255671150+254428892
4307+252701025+251130352+250554524+251429946+253359127+255155359+255653283
4297+254551270+252446703+250531667+250157685+251758361+254156497+255665332
4287+255799079+255289666+254743074+254180978+253667727+253516410+253867328
4277+254495987+254971793+254866072+254050805+252975783+252472779+253034018
4267+254247601+255085458+254975750+254582336+255077810+256703293+258466066
4257+259188693+258669329+257715738+257144547+257040479+257154824+257523609
4247+258009012+257806665+256500118+255100962+254992347+256270100+257863601
4237+258806678+258826493+258196565+257534860+257438589+257885602+258200197
4227+257959459+257477245+257034455+256478974+255901256+255728647+256036007
4217+256549317+257135599+257671117+257836905+257504916+256908977+256322430
4207+255980902+256123006+256632684+256816869+256018229+254596423+253806967
4197+254259945+255053978+255041723+254326951+253813965+253968413+254633780
4187+255532914+256485678+257305876+257681482+257334698+256483433+255897211
4177+256118044+256806888+257191531+257047774+256852218+256998634+257380944
4167+257833715+258397701+258953123+259178593+259086751+259096497+259411151
4157+259658770+259267955+258158440+257035075+256825611+257735967+258982064
4147+259516784+258975271+257898005+257112004+257003536+257432564+258112342
4137+258776852+259174105+259180779+258860956+258437598+258267410+258515294
4127+258799059+258539864+257679888+256792743+256561927+257208630+258264043
4117+258995412+259167519+259140587+259229033+259377929+259462240+259535448
4107+259665444+259685407+259369424+258912016+258796401+259039502+259208213
4097+259245422+259525821+260054280+260318614+259945340+259065076+258212630
4087+258038071+258741828+259760741+260356916+260379832+260117890+259683074
4077+259034511+258427380+258344516+259003267+260108381+261001137+261161373
4067+260781751+260584010+260849731+261088402+260894058+260485612+260195498
4057+260157078+260568299+261514802+262462250+262594136+261814986+260926276
4047+260634804+260759012+260615018+259896023+258845954+257826274+257108106
4037+256888099+257199180+257888791+258750598+259598969+260278747+260696849
4027+260889037+261036693+261225545+261212403+260853334+260642541+261091946
4017+261731620+261597962+260579315+259443192+258772333+258592223+258809365
4007+259432709+260378178+261435009+262480914+263438845+264036939+264052148
3997+263791535+263782853+264035374+264159877+264063783+263953337+263894540
3987+263853374+263923569+264125710+264130671+263558121+262587610+261972535
3977+262262649+263154224+263759583+263467313+262538411+261901867+262274993
3967+263476763+264674546+265238650+265236819+265116598+265045044+264790692
3957+264350678+264239080+264740312+265405708+265852898+266393495+267167418
3947+267491493+266934329+266170151+266033127+266536455+267260146+267972466
3937+268444433+268476770+268408937+268767799+269309046+269209940+268328021
3927+267554660+267785593+268830553+269619123+269688167+269745428+270363485
3917+270992115+270821070+269956841+269131239+268865547+269093144+269338548
3907+269521168+270340599+272217214+274136178+274703943+273959168+272887335
3897+272057864+271608282+271688754+272327838+273049107+273103473+272691307
3887+272890761+273929105+274604040+274252530+273950043+274451304+274881248
3878+274479595+273890390+273839980+274229348+274965737+276251553+277621621
3868+278390405+278841227+279306993+279133556+277781030+275977622+274700902
3858+274347886+275428904+278948750+284170979+286820041+285052454+281506945
3848+278807857+277936511+278527223+279724268+281136388+282973137+285134521
3838+286582847+286378609+285051952+283788049+282954709+282191743+281385129
3828+280853686+280766097+281276129+283034945+286158957+288680621+288838436
3818+287723546+286719222+285456736+283506381+281818528+281478743+282772473
3808+284999150+286663939+287229461+288019655+290024170+292127172+292995476
3798+293109791+293187694+293180813+293253549+293970801+295473848+297280327
3788+298913399+300425069+302211083+304596255+307810750+311985597+316607605
3778+320583265+323601260+326616833+330813888+336622871+343260646+349323065
3768+354565227+359871974+365196528+369680124+373602687+378001794+382624186
3758+386165827+388377030+390080269+392016921+394825038+398874053+403568679
3748+408316873+413273735+417784470+420091798+420404916+420968784+423333313
3738+427853675+434312462+441967378+449110785+453906347+456332095+458187832
3728+460907385+464128140+466757386+468794563+470661492+471565913+470458407
3718+467866547+465267274+463758174+463902404+465207001+465792397+464687814
3708+462982243+461756848+461151371+461300621+462541195+464440343+465922895
3698+466509827+466693629+467416079+469437190+472903556+477122228+480535349
3688+481694358+480991635+480134818+480096605+480452957+480313275+479756642
3678+479947325+481532143+483474909+484648683+485744850+487446139+488583886
3668+487979708+486551139+485614411+485356456+485200355+484657927+483791217
3658+482732998+481084126+478536031+476143300+476009937+479431918+484468248
3648+486236071+483002794+478088310+475068809+474630035+474773852+473529557
3638+471324998+469972501+470329740+472003210+474808197+479145229+484110892
3628+486509736+484991865+482043830+480250433+480551680+482670480+485570528
3618+487954666+489129208+489340887+489204571+489351607+490576765+493203088
3608+495955746+496888044+496121002+495791434+497133389+499329384+501509786
3598+503962348+506400321+507526580+507271313+507191874+508330713+510106066
3588+510892599+509697473+508052648+508218495+510064132+511670154+512517698
3578+514378160+518063115+521381708+521970440+520706330+520240506+521544365
3568+523725476+526159670+528699289+530305665+529974917+528367832+526954471
3558+526167997+525501952+524795980+524280898+523841947+523499268+524066975
3548+526197824+529119045+530882527+530117020+527467604+525045460+524495885
3538+525622144+526820931+527004379+526736649+527057771+527817844+527779158
3528+526264741+524137022+522836057+523050749+524461747+526147503+527280140
3518+527803728+528271324+528931463+529241835+528390452+526026071+522763115
3508+520209262+519510319+520160299+520690561+520042352+518371362+517069451
3498+517715593+520297029+522834935+523610718+523044784+522488062+522391555
3488+522413053+522258369+521853556+521247872+520442381+519245306+517697756
3478+516599788+517041456+519135332+521485834+522227539+520555308+517402268
3468+514741275+513898220+514397887+514674594+513810512+512204668+510792547
3458+510030467+509655362+509221963+508617756+507895483+506924204+505634992
3448+504453215+504101440+504845743+505988834+506484308+506228273+505961606
3438+505645918+504370409+502336304+501170710+501783599+503361035+504542989
3428+504571930+503447029+501653189+499756522+498051157+496613581+495646613
3418+495419549+495882154+496887394+498727362+501502935+504015917+504664008
3408+503590374+502234540+500878706+498620223+495564812+493284151+492911468
3398+493873150+494772137+494988778+494938634+495004754+495047633+494918759
3388+494684371+494368830+494108631+494289214+494994123+495654114+495712350
3378+495612357+496640927+499247464+501843961+502339966+500799621+499265006
3368+499121307+499984148+500775524+500742567+499846179+498855586+498586380
3358+498977431+499630719+500890991+503032294+504841549+504815503+503361212
3348+502097397+501805511+502472915+504184658+506643067+508631340+508947323
3338+507501892+505203483+503365051+503179300+504765359+506516201+506345925
3328+504104038+501815434+501135154+501718040+502452007+503106476+504024836
3318+504985484+505023284+503497055+501413160+500908060+502867274+505876911
3308+508008410+508653075+507997838+506098395+503474670+501475117+501044730
3298+501745386+502637876+503504969+504341528+504365743+503043102+501575227
3288+501705696+503580983+506132060+508803625+511279280+512354391+511209173
3278+509013060+507751489+508153821+509456145+510618196+511218505+511516474
3268+511970722+512515749+512515276+511741383+510822197+510258329+509749626
3258+509005382+508344829+508073142+508004689+507825494+507617359+507907709
3248+509172646+511148929+512799366+513343507+513037092+512428927+511271484
3238+508967168+506026221+504073917+504197593+505785069+507125252+507049534
3228+505879274+504686097+503906652+503158923+502153860+501113892+500288201
3218+499596936+499150425+499459498+500472416+501090503+500356241+498697890
3208+497326050+496643467+495857820+494257587+492396947+491470496+491733235
3198+492208332+492100248+491868369+492450369+493780068+494631244+494043751
3188+492360712+490593037+489371718+488821021+488792346+488933889+489023339
3178+489135498+489066749+488117914+486047396+483685377+482059688+481438382
3168+481386437+481244244+480497845+479076127+477597827+477022117+477600514
3158+478462558+478718918+478514562+478323466+477867594+476553488+474396562
3148+471830719+469151683+466715334+465197906+465082941+465979211+466808830
3138+466819106+466169982+465383922+464637966+463902227+463282220+462822214
3128+462336869+461681071+460990456+460581006+460589482+460652590+460202299
3118+459247616+458334720+457572639+456581633+455572081+455348678+456065044
3108+456951451+457283706+456950890+456205258+455387600+454833773+454776778
3098+455253853+455936614+456148647+455527991+454507395+453605130+452672152
3088+451490995+450547298+450385467+450709601+450899929+450925946+451016105
3078+450970863+450560409+450128073+450097656+450221274+449980388+449440588
3068+449064775+448903948+448463550+447316915+445591174+443897415+442896162
3058+442735778+442858834+442647185+442265583+442479566+443611406+445028606
3048+445714171+445143187+443598471+441791313+440221910+438964031+438044194
3038+437688167+437986048+438582016+438944304+438781321+438069650+436934857
3028+435695405+434794499+434433835+434394352+434436522+434640966+434993243
3018+434906510+433785419+432006611+430686362+430443202+430854276+431069469
3008+430629042+429739003+428919248+428350212+427603281+426227631+424565737
2998+423581670+423766476+424592344+425230748+425482324+425651715+425791161
2988+425601689+425051967+424662392+424877202+425300531+425019719+423795446
2978+422421569+421760101+421914283+422375382+422502159+421878550+420570911
2968+419036797+417700365+416740692+416244067+416305728+416808377+417178993
2958+416753685+415582835+414461685+414010862+414220533+414826778+415430188
2948+415392684+414427931+413172119+412531086+412644486+412879347+412675198
2938+412125003+411755716+411915480+412452769+412901879+412882950+412401769
2928+411803291+411353089+410968180+410467420+409861677+409270523+408774340
2918+408372510+407895405+407124258+406171406+405455276+405168794+405060385
2908+404801191+404332945+403871816+403770583+404245326+404946454+405015971
2898+404013093+402550386+401559970+401278804+401365891+401535518+401611974
2888+401391790+400882083+400395675+400186181+400213645+400317802+400384335
2878+400305930+399981206+399407681+398681185+397931596+397354292+397173886
2868+397376913+397605868+397491494+396956773+396162356+395362180+394765976
2858+394389040+394168147+394177892+394421259+394554562+394246907+393647129
2848+393123867+392772594+392457142+392093850+391704364+391292434+390870020
2838+390595203+390613336+390712501+390406677+389556268+388631855+388080597
2828+387743824+387230366+386563316+386061316+385836437+385760748+385706322
2818+385611882+385506219+385474680+385450612+385226441+384760971+384199230
2808+383652785+383254351+383143344+383163277+383023949+382841240+382947552
2798+383250305+383316278+382902635+382068617+381064912+380232045+379689086
2788+379209057+378663351+378324008+378449398+378838589+379021150+378745270
2778+378189553+377734832+377553984+377454139+377132456+376529371+375859073
2768+375320159+374893375+374437975+373883144+373283780+372736922+372278569
2758+371857957+371443015+371104677+370906552+370778387+370602145+370342537
2748+370005705+369588223+369157098+368843595+368666113+368461433+368065863
2738+367487673+366874252+366408752+366233692+366357457+366572768+366525843
2728+366027889+365351685+364977555+364937658+364773878+364285256+363793385
2718+363506727+363260496+363019758+363017809+363278687+363477402+363351629
2708+362979389+362634731+362482941+362402793+362119619+361546213+360946169
2698+360682811+360792194+360896350+360600714+359830217+358744475+357629763
2688+356889299+356776460+357152097+357721250+358282992+358591267+358353483
2678+357581568+356688133+356120337+355981954+355996838+355831611+355456536
2668+355122746+355061055+355328105+355804738+356207218+356255738+355911759
2658+355349781+354768992+354329657+354104600+353961906+353652390+353127533
2648+352618800+352331167+352249159+352282854+352347025+352316490+352243223
2638+352466419+353056363+353442719+353125289+352379568+351754187+351369071
2628+351099659+350893000+350628489+350139572+349515519+349085753+349107222
2618+349546202+350068313+350284865+350100797+349729975+349395593+349173047
2608+349044882+348946307+348809991+348627961+348438784+348297212+348266913
2598+348348006+348444454+348451010+348301701+347971395+347582056+347422499
2588+347647763+348015898+348118755+347849313+347462839+347184951+346990902
2578+346817495+346698041+346574956+346289419+345883809+345625382+345656183
2568+345866592+346076263+346142206+346027123+345919512+346081963+346446407
2558+346596218+346304391+345856935+345646260+345650778+345565020+345308158
2548+345153238+345377911+345906843+346317237+346269131+345919512+345716869
2538+345839187+346089021+346242199+346233428+346121003+346064214+346202420
2528+346477562+346704273+346796026+346820064+346879304+346990429+347049610
2518+346930127+346641401+346375325+346355657+346592970+346821570+346815073
2508+346699754+346749367+346966037+347098011+347022884+346910223+346971057
2498+347166258+347256534+347134778+346995154+347079170+347318934+347368369
2488+347051765+346667418+346637355+346931928+347146560+347084397+346898883
2478+346746827+346673206+346739237+346960485+347232821+347480381+347725312
2468+347985304+348250080+348504019+348673941+348673882+348544831+348401073
2458+348260771+348092945+347966552+347979427+348103694+348238947+348332325
2448+348343901+348234340+348091764+348103222+348311889+348580741+348819470
2438+349023914+349130994+349108521+349116199+349292855+349482385+349442371
2428+349226587+349122696+349279064+349576088+349847007+350111163+350519490
2418+351082619+351563091+351741725+351712814+351765143+352030687+352412348
2408+352798054+353151689+353419596+353548972+353615978+353789267+354128993
2398+354498487+354722481+354805463+354910978+355126644+355380228+355591316
2388+355708437+355522479+354628985+352708397+349800672+346253686+342401201
2378+338288103+333717095+328546368+322922014+317305633+312285397+308140140
2368+304606886+301357013+298469044+296125216+294360494+293572367+294663956
2358+298110123+303365397+309716040+317216597+325776849+333659184+338245223
2348+338148775+334283236+329510649+326658915+326229975+326911081+327741645
2338+328715818+329985923+331323625+332410578+333312813+334392649+335849332
2328+337583342+339415484+341200376+342826508+344361626+346140257+348478740
2318+351283608+354076930+356447454+358400201+360259541+362313845+364559541
2308+366708730+368434559+369639607+370478705+371193300+371975905+372841758
2298+373553606+373866548+373902487+374052062+374491929+375031965+375422544
2288+375610805+375695973+375813418+376080852+376498600+376865170+376944933
2278+376813727+376856251+377268861+377793806+378095024+378120627+377945773
2268+377574508+377086772+376738038+376724542+376942955+377093416+376992479
2258+376715033+376463694+376389216+376515108+376752892+376984417+377129769
2248+377138569+377030603+376984919+377220164+377721396+378220384+378503262
2238+378646784+378878958+379223498+379409455+379240330+378886459+378623395
2228+378481232+378348608+378201927+378055009+377860340+377608173+377408809
2218+377351932+377351489+377254804+377063412+376897211+376797927+376740489
2208+376724247+376678001+376479641+376222218+376182528+376408530+376645694
2198+376756968+376912301+377273792+377746763+378143957+378416529+378622686
2188+378800050+378964391+379137355+379320419+379537000+379891728+380466641
2178+381191748+381920607+382565567+383088800+383463077+383694749+383796927
2168+383775783+383758861+384021541+384685578+385479848+385983206+386037632
2158+385830117+385699176+385874443+386257816+386549909+386687140+386894980
2148+387251599+387573901+387751325+387844584+387923196+388061963+388321866
2138+388610031+388799562+388967624+389259598+389636770+389952399+390124831
2128+390172967+390253587+390610471+391327605+392216965+393031641+393656963
2118+394066678+394265127+394313913+394325548+394454245+394925414+395918576
2108+397292897+398593862+399499405+400091032+400586122+401080945+401650335
2098+402395140+403288487+404164529+404840497+405148447+405026868+404707104
2088+404608175+404947399+405596730+406305419+406898847+407303542+407560433
2078+407807727+408132629+408481834+408803635+409155971+409567458+409953460
2068+410282053+410646910+411082524+411475229+411730999+411913826+412187432
2058+412641090+413155197+413532930+413816577+414267134+414957011+415638767
2048+416104532+416456897+416984855+417908560+419172198+420397061+421205210
2038+421639702+422060403+422683156+423484395+424437571+425510556+426525866
2028+427334813+428071881+428999395+430182620+431525046+433002076+434611524
2018+436195013+437591039+438901188+440347328+441955358+443584415+445161614
2008+446772981+448570896+450547150+452366593+453655569+454514600+455455965
1998+456863301+458803290+461166402+463616011+465610101+466871879+467708673
1988+468619059+469785983+471082902+472387352+473745932+475267022+476962287
1978+478743606+480529354+482316254+484162837+486101822+488099220+490155208
1968+492342433+494630033+496817937+498822747+500837657+503026092+505260360
1958+507316673+509182391+511082543+513263714+515747696+518319564+520814650
1948+523278788+525795964+528424472+531280016+534286346+536960686+538940927
1938+540481035+542073472+543967246+546216279+548792458+551564487+554403966
1928+557206295+559801019+562160794+564551931+567140513+569751598+572210656
1918+574488512+576512281+578289643+580056845+581996097+584059674+586117463
1908+588011650+589591212+590918165+592241869+593671826+595117257+596547332
1898+597994831+599299222+600222483+600947887+602015142+603463999+604553935
1888+604839147+604939257+605560002+606567604+607550755+608513707+609492487
1878+610144240+610192494+609882535+609805695+610439551+611764614+613131788
1868+613781532+613778992+613781059+613951927+613940232+613604876+613030968
1858+612113436+610863441+609730685+609027372+608608502+608425999+608625039
1848+608991580+609044027+608536978+607390578+605588234+603476284+601625449
1838+600279597+599143356+597910254+597013984+597356722+598987845+600431032
1828+600175411+598314831+595793461+593281837+591048042+589099577+587441345
1818+586322232+585994023+586245688+586477802+586180365+585214342+583858685
1808+582609872+581895809+581972590+582760953+583652735+583980649+583907057
1798+584229833+585300159+586816525+588286467+589122848+588942826+588230240
1788+587889214+588276722+589113930+590066250+591133506+592308963+593275104
1778+593945402+594922470+596876723+599707637+602489649+604396357+605449142
1768+605830094+605529762+605067009+605448020+607058707+609121104+610787782
1758+612163461+613616807+615286262+617532991+620730978+624213822+626375916
1748+626790474+626843217+627714563+629225967+630589774+631468975+632142876
1738+633244624+635536713+639223618+642736348+643852743+643078850+642222269
1728+642010945+642509194+643665279+645198536+646836393+648844688+651810796
1718+655727158+659321334+661111453+661081981+660196696+659383763+659284598
1708+660162027+661719027+663271007+664640602+666475963+669169440+671886482
1698+673828155+675362948+676264061+675843420+674921103+674954650+676252131
1688+678235147+681023537+685344770+689959189+691910076+691231686+690155040
1678+690239026+692022885+694761071+696688687+697211625+697584544+698885982
1668+700632572+701952673+703031741+704250728+705170564+705248703+704952683
1658+705137076+706203859+708371622+711651883+714607183+715925866+716869977
1648+718791923+721228479+722351135+721887909+721326168+721530169+722430278
1638+723970269+726162306+727856449+727448860+725687032+724469817+724454579
1628+724975095+725358823+725787851+726488803+727036369+727096554+727112619
1618+727733127+729086953+730607453+731754619+732486401+732757733+732377549
1608+731482460+730882683+731625509+734023556+737050853+739076808+739608664
1598+739858202+741327258+744237494+747454321+749736607+750942658+751953923
1588+753627099+756228084+759706262+763771933+767576076+770153082+771534904
1578+772768183+774681801+776765460+777971630+778423339+778750898+778863057
1568+778262335+777142336+776005801+774819180+773436355+772352857+772496379
1558+773670005+774497527+775051709+775998064+776903666+776530628+774527767
1548+772231957+771181947+771551323+772821221+775231376+778990337+781955441
1538+782048228+781266302+782181118+784898633+787515565+789064651+791012171
1528+794662279+799262700+803131457+806054509+809199753+813080205+816888483
1518+819807754+821754448+823639775+827097990+832814157+839813038+846937073
1508+853793437+858877224+859680176+857776598+856813292+858279927+861984491
1498+867032191+872229023+876676295+880663295+884917965+888815013+890760407
1488+891360539+893555353+898317191+903899345+908790589+912728863+915469471
1478+916929314+918311962+921124685+925404811+929858640+932944408+934487824
1468+936610050+941884963+950077139+956824887+958524995+956546527+954750442
1458+956519240+961354788+963817567+961681816+957870999+955124602+954469542
1448+955586056+956656087+955363568+951396767+946660621+943191775+942016967
1438+943192365+945768131+948189331+949889852+951564268+953903430+956827781
1428+959547245+961428852+962070859+960909517+958137015+955323110+954400794
1418+955699455+957500796+958531847+958514305+956960790+953936032+950951792
1408+949762927+950903007+953633397+957130416+960980510+964291719+965869627
1398+966040908+966712328+968437538+969547259+969166603+968566707+968877493
1388+968995381+966931095+964498733+966513170+973730287+981089035+984089990
1378+984217683+985396802+988770086+993080688+997035735+999818632+1000875021
1368+1000247425+999236042+999833398+1002776826+1006451564+1008818544+1010053537
1358+1011066573+1011671489+1012034250+1013747293+1017721594+1022212218
1350+1024441938+1023830407+1022551236+1022566356+1023605261+1025252154
1341+1028915434+1035102209+1039174790+1035499226+1027099977+1022841350
1332+1027142502+1036624599+1044412907+1047028776+1046524974+1046529699
1324+1048293654+1050264208+1050998707+1051334062+1052671114+1054950919
1315+1057315537+1059999091+1063593031+1067376326+1070189699+1071930264
1307+1072636531+1071115441+1066993720+1062165850+1058976605+1058872064
1298+1062133366+1067483464+1072134738+1073741823+1072614678+1069712357
1290+1066052503+1062961892+1059491982+1054166926+1048636333+1046506901
1281+1048693151+1051998749+1052783333+1050276729+1045935414+1041466998
1273+1037737923+1034620497+1031741210+1029205666+1027120177+1024893764
1264+1022126105+1019524057+1017389782+1014297163+1009026089+1003166519
1255+999623491+998979121+999397400+999431538+998866430+997160121+993211570
1245+986726885+978471158+969420571+960474169+952642391+946659913+942148203
1235+937896132+933444134+929437408+925894497+921546449+915560958+908908714
1225+903513314+900506512+899229644+897448857+893238011+887285950+882384547
1215+880557514+881442799+883284302+884586626+884775448+884043194+882861416
1205+881893740+881773253+882535392+883849056+885810987+888906796+893043224
1195+897095842+899963316+902204198+905949161+912297058+919120347+922788057
1185+922558836+921396903+921961893+923782666+924840117+924625603+924427094
1175+925986634+930540691+938134389+947661609+957648275+967275664+976290106
1165+984111311+990220360+995031634+999261321+1002635195+1003743558+1002322401
1155+1000872894+1002263339+1005990051+1008541306+1009434446+1011632981
1147+1015200343+1017838774+1020270723+1025318068+1031106527+1031876108
1138+1026218886+1019046716+1015067099+1014451551+1015146715+1016033121
1130+1017801565+1022112167+1029193145+1036394374+1040479358+1040770063
1121+1038213492+1033280137+1027834003+1026126513+1030019544+1036618338
1113+1042733766+1048348700+1053250752+1055095621+1053504956+1050888142
1104+1049771156+1051411079+1054703684+1055421645+1049922473+1042315250
1095+1040541019+1046487765+1053719943+1055879142+1054455977+1051323785
1087+1047259945+1045573126+1048152377+1051795929+1052068206+1050660043
1078+1053888624+1062754229+1070022671+1068329355+1059053504+1048603494
1070+1039459707+1030608632+1023375745+1021170596+1023460441+1025048508
1061+1022947780+1019601074+1018185469+1018801607+1020255366+1022069406
1053+1023056927+1021728616+1019666515+1020870323+1025497735+1027315791
1044+1021148034+1010805990+1004130416+1003627205+1005792665+1008150668
1035+1013557230+1024491668+1035924947+1038863059+1032051996+1022631679
1027+1015646854+1010535367+1005792074+1003199594+1004438130+1006376555
1018+1004941696+999865764+993677690+988907642+987522749+991371307+1000963614
1008+1013434499+1022137091+1021358296+1012700000+1002710913+995759636+991728280
998+987650855+979745486+966651435+952052654+940815285+934416063+931569379
988+930329248+929185330+927190914+924032204+920236625+916988317+915682509
978+916907165+919159092+919586703+916780122+912000920+907383371+903961715
968+901282827+898035818+893606973+889251011+886746179+886391687+887272070
958+888559274+889530080+889192835+887265987+885061132+884371048+885790138
948+888344700+890621197+892274705+894496333+899033439+906236617+913978857
938+919557645+922847060+925702604+928721395+931492598+935013242+940552045
928+947301034+953758373+960010058+966033762+969798510+970333674+969893364
918+970128255+969536155+966887212+963512629+960687561+958396830+957827292
908+960717506+966027088+970005642+969710389+965354959+959456644+955143915
898+954465526+957324968+962201150+967482205+971675746+973179354+971252328
888+967700499+965835135+967931610+974263856+982367379+988469813+990734557
878+990073473+988744512+989002023+991737021+994845706+995012025+992090095
868+988878879+987973158+990867565+997357271+1004207079+1006611623+1003779113
858+1000660979+1001720556+1005742817+1007114715+1002125133+993571378+987570944
848+987989696+993947841+1000128946+1000434888+994038206+987404979+988210293
838+998491267+1012846829+1022918485+1025698311+1025061619+1024608848+1023744412
828+1020471180+1015614488+1013139778+1015428442+1019965489+1022530682
820+1021927538+1020126611+1020527880+1024621842+1029920910+1032339984
811+1031161809+1030114753+1032780352+1038936651+1044999986+1047441975
803+1046532062+1044488388+1041421165+1037886051+1037468835+1042167004
794+1047637708+1047553249+1042418255+1038906647+1040497313+1043635883
785+1042660292+1037350238+1030697107+1022223086+1010204028+997690500+991076941
776+994170624+1005236653+1017027730+1021901196+1018164798+1009758225+1001807496
766+996861502+996056246+998849420+1002677720+1005833536+1008216582+1009132283
756+1007027539+1002642991+1001204706+1006983243+1017139831+1023230216
747+1021378967+1017327649+1017146091+1019875123+1021319315+1020037427
738+1016302800+1009436218+1001219117+995833582+995265757+998106417+1002288263
728+1008157992+1018041476+1032101136+1043599501+1042795191+1028695958
720+1009442124+994857754+991341894+998465870+1010270768+1020104521+1024096542
710+1023650739+1022162370+1019759125+1014678705+1007985057+1003192625
701+1001325666+1000158831+998070743+996764167+998673178+1002258496+1001890538
691+993885117+981171899+971457629+970273371+976393110+983058172+983972043
681+978989666+972875124+969712870+970925832+976685410+984058096+984162400
671+969281006+944234579+928097520+936480409+957951619+973079479+980327131
661+986020618+987977411+979773245+964044957+949014844+940042101+939769056
651+947937902+959805643+969808492+974413933+972409772+965788181+959755381
641+959006353+960409909+961635334+966686931+976595280+985308622+981951522
631+965808439+945402713+926495101+913338090+907730834+905461543+902245247
621+902236565+906912999+905505426+893020130+881287761+882143809+895896050
611+913066758+920930725+915000280+903023924+893496881+888589336+885198747
601+881564467+880841781
##END=
