##TITLE=<SNM>
##JCAMP-DX=4.24
##DATA TYPE=INFRARED SPECTRUM
##DATE=29/4/2025
##SAMPLING PROCEDURE=Instrument type and / or accessory
##ORIGIN=Admin
##XUNITS=1/CM
##YUNITS=ABSORBANCE
##RESOLUTION=4
##FIRSTX=4497.3318
##LASTX=599.83466
##DELTAX=-1.4281778
##MAXY=2.2395928
##MINY=0.69808346
##XFACTOR=1
##YFACTOR=2.0857833e-09
##NPOINTS=2730
##FIRSTY=0.71501064
##XYDATA=(X++(Y..Y))
4497+342801975+338653078+336721355+337835415+339700582+339945998+339175401
4487+339528694+341292472+342743307+342706472+341879750+341541174+341947619
4477+342276994+341836914+340851220+340053904+340252568+341704061+343027844
4467+342341120+340395366+339992378+341806822+343617066+343852737+343366420
4457+343476297+344222690+344582384+343852880+342833095+343025930+344617391
4447+346253431+346934126+346934355+346664448+345825010+344226891+342691097
4437+342310314+342903536+343057078+341941733+340338727+339581646+340177383
4427+341607443+342941829+343591204+343609236+343371421+343211449+343312382
4417+343643871+343933352+343690222+342635516+341543832+341737810+343018471
4407+343289463+341324392+338621215+337211273+337295402+337957208+338750553
4397+339820004+341163620+342183834+342132224+341145645+340212475+339991207
4387+340038730+339603765+338736436+338051768+337870278+337967896+338043624
4377+337905313+337433799+336925935+337026153+337716993+337967896+337061360
4367+335636729+334867504+335377139+337080277+339094444+340097283+339705183
4357+338845113+338206196+337593456+337401907+338581465+340771577+342411990
4347+342728847+342258562+341499995+340348043+338802733+337281657+336263815
4337+336048547+336763906+338107407+339157198+339009200+337722509+336410470
4327+336372263+337914115+339716271+339906363+338256806+336521747+336205433
4317+336995205+337814125+338493477+339420732+340130889+339688466+338219199
4307+336967828+336856723+337737968+338945817+339950799+340617435+341064230
4297+341295044+341169135+340685390+340066277+339417674+338512709+337287887
4287+336370634+336627338+338065685+339527179+339771767+338684569+337420196
4277+337447344+339022945+340766376+341331707+340890770+340184870+339335059
4267+338354395+337557507+337019066+336501287+336033316+336064407+336991947
4257+338624758+340118487+340538878+339511891+337493210+335771811+335810475
4247+337833214+340390193+341867176+341972253+341364342+340739857+340704079
4237+341467246+342213182+341714891+340051903+338681140+338388572+338497849
4227+338352766+338230144+338508937+338975108+339254558+339182345+338864230
4217+338751867+339119162+339568873+339516092+338899980+338170533+337850875
4207+338197595+339150825+340478410+341818453+342712787+343116175+343605235
4197+344087780+343105430+339914936+336357689+335070798+336450935+338405861
4187+338959819+338263435+337570224+337469948+338008446+339167743+340168096
4177+339735817+338128439+337268054+338125439+339603108+340390108+340491955
4167+340428858+340196930+339633599+339019487+338835997+339177602+339645401
4157+339648201+338848742+337731082+337562022+339142195+341676885+343496130
4147+343787983+343111831+342465714+342343549+342559645+342710787+342611740
4137+342211553+341456616+340534905+339969917+340203074+341092750+341896925
4127+341829169+340683190+338977994+337564537+337102510+337719051+338811364
4117+339480742+339534495+339505118+339737218+340191129+340738000+340989617
4107+340525332+339706383+339150425+338391887+336670146+334851129+334686471
4097+336210605+337405851+336813029+335339161+334741367+335404087+336461508
4087+337206300+337473063+337226447+336629710+336251755+336593046+337560422
4077+338590095+339168257+339359949+339710756+340315437+340513416+340029271
4067+339510519+339446279+339566072+339570502+339533866+339445107+339127878
4057+338674767+338333534+337909028+337006807+335970419+335717115+336447248
4047+337405880+338118238+338812735+339419760+339392384+338797647+338430466
4037+338643247+338981995+339060209+339032975+339117162+339257873+339369379
4027+339454309+339428876+339295394+339462853+340309722+341470504+342009116
4017+341381859+340052932+339067524+339041805+339608366+339983377+340008181
4007+340181041+340598517+340509358+339358034+337858448+337376531+338299213
3997+339561929+339976090+339545040+339006799+338685512+338591981+339034518
3987+340076394+340808898+340281945+338962277+338168447+338323103+338867860
3977+339570902+340706422+342025062+342667636+342282395+341443614+340848905
3967+340680075+340908859+341729037+343245198+344922360+345796605+345401333
3957+344237407+343206020+342830523+343114460+343872569+344815569+345407048
3947+345354439+345255592+345799120+346385426+345648006+343542824+341626390
3937+341227374+342504778+344888125+347326454+348275884+346900948+344489682
3927+343423431+344733926+347102214+348408337+348049557+347031029+346357250
3917+345962721+345060414+343367135+341607386+340669244+340778578+341729637
3907+343604235+346743091+350905591+354940982+357673764+358453363+356795204
3897+353002000+348988614+347115130+348079363+349929499+349976079+348870306
3887+349633674+352660167+354830047+354578258+354108516+354431346+353759395
3878+351819728+350807401+351976014+354801813+358549009+361959200+362858907
3868+361346946+360141927+360238973+359631891+356800262+353202894+351222134
3858+352341852+357632271+367275052+376026786+374913155+365623209+355854148
3848+349724748+348141145+350173286+353912909+357661019+360698514+362628065
3838+362821586+361423617+359405393+357088315+354370421+352080319+351543107
3828+352675141+354160840+356058528+360160073+366016252+368854825+366463105
3818+362613833+359716450+356608542+352870577+350200463+350112132+352817595
3808+356906882+360303899+363142330+367106222+371070571+371312300+367858415
3798+364063183+360997997+357975447+355269041+353839953+353991152+355520144
3788+358407012+362529047+366852490+370012521+371826908+372877842+373056360
3778+372274818+371808562+373206759+376892286+382176733+387711796+392234275
3768+395622691+398359703+400237730+401171214+402217519+404327388+406953580
3758+408921223+410564550+413852948+420747659+430908820+439531016+441965059
3748+440899322+441416130+444447138+446654225+446468363+446600358+449747102
3738+456887429+466921738+475869565+479279785+477424362+474788140+474534094
3728+476260865+477695868+477544584+476792333+476755269+477240186+477717015
3718+478864052+481783983+486581598+491741450+494034039+491066185+484750065
3708+478919434+475856220+476250834+479365372+482672545+483594255+482258241
3698+480600796+480206153+482070264+486696705+493604703+500635067+503906976
3688+501025938+494462173+488587334+485951312+486933548+490771731+496885986
3678+505056557+513089731+516449428+515081122+513682296+513325431+510511091
3668+503749348+496252099+491384128+490080291+490694689+490862833+490393148
3658+490879979+492612123+494408735+496647199+501352683+508659554+513770198
3648+511216591+503212450+495704342+491270679+488918366+486793351+484679481
3638+484098404+486304233+490872721+496414243+502337262+508510556+511992332
3628+508288916+499702669+492312640+489231337+490858033+495882603+500990160
3618+502882733+502673266+503720142+506059939+506974505+505811722+504452161
3608+503424546+501840658+500295863+500370219+502418706+505428739+508302861
3598+510394613+511122688+510182574+508467748+508173466+511224992+516997870
3588+521489030+521153197+517580433+514514733+513321088+513190778+513018004
3578+512265124+511070450+509953047+509290183+509562176+511864994+516893508
3568+522584029+524465228+521022430+515674773+512129271+511339242+511950095
3558+512557692+513447796+515639223+518717097+520872803+521297452+521123020
3548+521501032+521925280+520732149+517160757+512675542+509766327+509570749
3538+510810288+511339985+510732617+510381182+511104227+511911746+511714110
3528+511171097+511697135+513068470+513690983+513203409+512508711+511359874
3518+508648695+505149659+503358991+504360659+506713372+508482151+509046482
3508+508730139+508008293+507664974+508565995+510261217+510776111+509262864
3498+507574214+507593361+508658583+508954808+508229991+507713268+508096138
3488+508662755+508397392+507646970+507679719+508229705+507320625+504488282
3478+501889752+501259352+501849116+501826712+500481153+498536571+496989490
3468+496377150+496872212+498118438+499080042+498902123+497820670+496595076
3458+495549228+495030563+495655190+496852208+496734472+494598484+492090199
3448+490964338+490915529+490656282+490069489+490127385+491393158+493559324
3438+495767211+496724013+495593693+493206402+491037151+489175612+486944578
3428+484904550+484261462+485006112+486236964+487392717+487887092+486808839
3418+484495219+483080047+484143040+486741856+488562415+488523322+487244919
3408+485277875+482600074+480019891+479431613+481730316+485123847+486588971
3398+485209520+482992774+482104270+482703922+483674784+484361252+484919124
3388+485336400+485106358+484041708+482888641+482799139+484163844+486144319
3378+487498050+487722834+487200396+486592686+486556736+487663623+489992332
3368+492839650+495150356+496277075+496342230+496025086+495898320+495773498
3358+494995070+493629451+492798843+493421413+495114349+496686864+497443001
3348+497801923+498748381+500597060+502382013+502821979+501593813+499518636
3338+497621148+496213806+495056110+494189953+494146402+495125094+496568614
3328+497872222+498754840+498726149+497358929+495298783+493902243+493700435
3318+494054785+494226416+493903901+492982304+491705730+490831285+491061098
3308+492292979+493766276+494965008+495891119+496415443+496091498+494892023
3298+493533319+492777353+493096725+494924086+497983785+500607348+501294215
3288+500663358+500362217+500799040+501115897+500609977+499679122+499701240
3278+501506483+503794727+504272871+502530440+500254598+498879662+498591896
3268+498966992+499393641+499394499+499006828+498479590+497823184+497061789
3258+496228380+494800978+492283606+489572942+488501719+489691363+491800661
3248+493299962+494215557+495381483+496707496+497141975+496339600+495474472
3238+495764467+496927136+497609889+496892272+494989184+492879886+491756024
3228+492295894+493897499+494995756+494493836+492706483+491005831+490809624
3218+492317555+493843775+493314022+490805052+488470570+487770443+487939902
3208+487453071+485940853+484106119+482660771+482075750+482755931+484558945
3198+486329667+486616119+484954902+482107699+479242207+477140139+475905171
3188+475267884+475187841+475906943+477398957+479090379+480173004+480058984
3178+478706309+476774015+475216732+474407871+473795331+472609172+470818332
3168+469249219+468809396+469509580+470230311+469817379+468474964+467482726
3158+467452149+467550853+466639630+464613947+462440524+461266167+461416395
3148+462004273+461955321+461458117+461527272+462277351+462768983+462469643
3138+461764144+461115769+460666773+460472280+460393409+459917637+458613142
3128+456645042+454630961+453326553+453282316+454273096+455305655+455627514
3118+455350149+454845800+454173507+453391422+452871470+452867441+453004265
3108+452593877+451545343+450511327+449862094+449175912+448193877+447561419
3098+447976266+449143878+450037926+449814400+448273977+445880542+443611587
3088+442400538+442335469+442658185+442877024+443330135+444184091+444745336
3078+444578019+444412875+444943714+445567113+445230709+443887808+442421342
3068+441709727+442088424+443164048+444064869+444221269+443644307+442416541
3058+440717460+439366329+439274198+440151443+440610812+439798522+438307594
3048+437367737+437640215+438732014+439581568+439376017+438241725+437065225
3038+436549760+436625431+436947547+437538340+438389723+438791625+437925753
3028+436107165+434619552+434195818+434254457+433817292+432740667+431648526
3018+430989178+430689209+430542639+430482686+430560214+430793485+430824519
3008+429991968+428296060+426843481+426631986+427375778+428075905+428215102
2998+427889128+427256213+426403087+425563934+425036981+424838117+424741470
2988+424707064+424838774+424885868+424407495+423504303+422742764+422371268
2978+422155800+421849831+421442214+421087806+420956925+420952039+420717768
2968+420210618+419954486+420401253+421270640+421846116+421777932+421267239
2958+420568626+419732246+418871975+418324590+418320217+418648248+418822823
2948+418572235+418182078+418130011+418342964+418218742+417417368+416205204
2938+415049051+414324834+414338465+415121122+416179628+416802684+416674547
2928+415955788+414890880+413682632+412591376+411744308+410979111+410280184
2918+410046342+410400835+410695117+410337909+409629352+409155723+408911478
2908+408576418+408192091+408136595+408640229+409521561+410394691+411040837
2898+411409733+411312429+410532573+409365132+408520750+408272105+408193348
2888+407964478+407827853+407919498+407784302+407050912+406139003+405763306
2878+406015609+406338296+406247708+405769879+405216578+404833080+404729747
2868+404852798+404897463+404566631+404073742+404027705+404602095+405228352
2858+405325798+404928554+404446781+404238286+404409460+404644331+404426263
2848+403645350+402705350+402045059+401905548+402333768+403009920+403417508
2838+403499638+403692730+404096546+404168673+403493179+402408153+401562628
2828+401142409+400877904+400621972+400461942+400311801+399877265+399062174
2818+398085653+397307455+397057809+397333402+397685923+397745106+397649745
2808+397660376+397714729+397579790+397122964+396443212+395909086+395817641
2798+395978299+395996416+395856134+395845103+396062828+396273781+396138957
2788+395535218+394761249+394321455+394377122+394549639+394365748+393797417
2778+393278751+393228399+393614098+394000739+394029973+393768297+393463299
2768+393089116+392440884+391632052+391091810+390998708+391032600+390769866
2758+390143524+389449226+388970568+388680858+388383404+388056516+387817758
2748+387593946+387150351+386510378+386031176+385959535+386176345+386421390
2738+386522323+386384983+386011373+385527570+385016535+384449460+383919449
2728+383693123+383893416+384315321+384570282+384355357+383753534+383253414
2718+383225781+383485628+383593276+383378580+382959018+382485560+382060540
2708+381784490+381778803+382089117+382514137+382676938+382400488+381893281
2698+381454830+381101909+380618249+379970332+379500703+379535081+379926124
2688+380224978+380211604+380012825+379786784+379566801+379390798+379304010
2678+379168586+378749281+378098048+377566466+377352999+377346369+377438700
2668+377644280+377921159+378144085+378189779+377950936+377432727+376858452
2658+376502730+376436089+376521819+376574743+376469895+376199818+375881331
2648+375655976+375548785+375460054+375329717+375247187+375327316+375539012
2638+375720930+375717130+375501891+375211752+374986883+374813737+374666682
2628+374641249+374732094+374711347+374454643+374165991+374112924+374299958
2618+374485563+374456329+374241719+374017307+373886168+373896370+374103151
2608+374427724+374661681+374718434+374623702+374303044+373732169+373197929
2598+373059075+373350042+373832359+374248949+374413207+374274067+373948037
2588+373559795+373158836+372873241+372868726+373004179+372841207+372239983
2578+371694198+371823765+372688093+373720967+374270267+374190824+373889169
2568+373738999+373601517+373128831+372393268+371850970+371755352+371965105
2558+372261102+372529465+372697352+372774166+372863468+372936453+372784568
2548+372366378+371932270+371658535+371466586+371294783+371222113+371286067
2538+371460585+371766269+372157711+372433247+372475655+372413186+372368121
2528+372251786+371983880+371742179+371785244+372077640+372290907+372218837
2518+372009599+371896321+371884376+371834167+371708658+371627043+371752352
2508+372173943+372851695+373599402+374081947+373972155+373333468+372714613
2498+372584560+372838178+373106112+373277429+373416654+373450889+373230135
2488+372747533+372216065+371975964+372194689+372634569+372905562+372877128
2478+372676148+372502917+372595905+373061704+373629579+373871880+373702821
2468+373405967+373192185+372966201+372597191+372252557+372262416+372716070
2458+373403995+374054685+374399405+374244576+373769862+373443202+373424427
2448+373436515+373345470+373402738+373779178+374250577+374458130+374231946
2438+373637952+372926165+372449793+372437591+372767022+373085280+373200872
2428+373224848+373309121+373440802+373535705+373580113+373640924+373804582
2418+374096750+374432439+374685857+374848400+375054581+375372953+375669864
2408+375822692+375922910+376043646+376037559+375856184+375797087+376126261
2398+376705109+377240893+377731753+378493920+379872228+382111978+385564063
2388+390852167+398617836+409126603+422206810+437401086+454117468+471946366
2378+490940962+511210361+532100444+552231418+570553606+586920924+601472141
2368+613853306+623376980+629991268+634451851+637025290+636757070+632157091
2358+622471501+608458097+591117630+570791192+549194123+530673385+519414081
2348+517288266+524093503+537337282+551868038+562422871+566995988+567026222
2338+565680492+565604078+567625245+571399588+576222522+580620693+582594023
2328+581548862+578809678+575608411+571812921+566828586+560696728+553979622
2318+547302351+541281828+536256971+531823022+526924589+520639847+512983026
2308+504854177+497079278+489736629+482612019+475847475+469614056+463538095
2298+457141218+450671013+444898335+440153787+436019549+431958611+427902702
2288+424171881+421052600+418528112+416326598+414210299+412211650+410532173
2278+409259685+408305368+407564005+407010819+406647038+406377846+405980088
2268+405313167+404549228+404005987+403769829+403663153+403488435+403104509
2258+402414212+401524250+400809863+400579221+400681897+400616428+400091132
2248+399339910+398783123+398574256+398621979+398816958+399031968+399089407
2238+398920577+398671588+398579457+398753689+399030968+399102867+398873454
2228+398563940+398423200+398536564+398870396+399237577+399293787+398836933
2218+398048104+397272734+396697715+396339193+396178278+396190709+396295756
2208+396343194+396181564+395742027+395074735+394382037+393989737+394122504
2198+394679920+395355928+395957209+396490849+397004685+397466998+397782884
2188+397881788+397802287+397695611+397732046+397986207+398394281+398837476
2178+399273926+399746269+400249475+400675038+400942173+401126863+401383824
2168+401741261+402042373+402154307+402183370+402355115+402671658+402835631
2158+402611133+402168881+401948355+402214404+402848576+403541931+404045737
2148+404203308+403936031+403381645+402969227+403137543+403918114+404897549
2138+405621880+405962771+406074363+406113770+406121943+406142261+406282058
2128+406538733+406714308+406692789+406675586+406932319+407453871+408050008
2118+408616110+409096941+409372162+409401082+409350501+409446947+409822701
2108+410516970+411444310+412373965+413131303+413754102+414287684+414613144
2098+414707418+414871762+415438608+416366748+417305690+417995873+418470273
2088+418848771+419063438+418945988+418562862+418262407+418343136+418826395
2078+419560700+420377220+421105895+421602014+421850345+422004687+422294597
2068+422853956+423550483+424020939+424041229+423807043+423672962+423776409
2058+424080979+424531175+425001375+425373557+425749425+426313785+427018199
2048+427644427+428115827+428613174+429416663+430592677+431825958+432726151
2038+433276965+433789430+434505703+435406152+436301915+437053251+437736118
2028+438533321+439489780+440498649+441490344+442567511+443988084+445904003
2018+447983324+449527462+450213244+450477263+450987099+452025288+453488496
2008+455217982+457135245+459105203+460866552+462274579+463522035+464913573
1998+466507977+468205200+470066939+472183066+474241183+475653897+476248291
1988+476470446+476887807+477807403+479251065+481010014+482791195+484424863
1978+485870726+487154788+488450852+489979301+491729391+493593158+495666735
1968+497958809+500047875+501628505+503097572+505012491+507347487+509702430
1958+511853564+513795631+515603560+517468813+519587770+521945398+524406760
1948+526985172+529878555+533195443+536547996+539125779+540639254+541794949
1938+543305967+545170477+547260286+549714961+552416195+554929451+557162372
1928+559467134+562176598+565290992+568330516+570759015+572922265+575671851
1918+578746981+580843877+581713006+582481146+583796185+585208499+586222626
1908+587076781+588366901+590313484+592505082+594270203+595331596+596113510
1898+597334817+599175381+600961477+602082195+602968299+604356437+605912148
1888+606651025+606506428+606293989+606588671+607471403+608768210+610043871
1878+610752114+610728738+610495610+611106064+613562167+617806710+621893853
1868+622959533+620307508+616233739+613241023+612233183+612690237+613376191
1858+613276515+612463110+611842083+611911239+612236555+612201577+611836597
1848+611901180+613123802+614848858+614871605+612276219+608957902+606648282
1838+605101372+603378488+601601536+600999541+602401910+604889334+606295189
1828+605862768+604799032+603430211+600709431+596774430+593263163+591058191
1818+589668967+588526988+587809943+587911847+588652096+589222600+588904656
1808+587700609+586225026+585425624+586241258+588680730+591235137+592211829
1798+591803526+591798840+593622657+596976124+599295460+597877545+593853670
1788+590689152+589997255+591044188+592661111+594465439+596153060+597051966
1778+597260975+598284362+601837636+607958577+613686018+615279680+612941712
1768+609632196+607479633+607593768+610197270+613824844+616289349+617536090
1758+618932172+620371634+621361928+623311540+627862081+633913124+637944486
1748+638099314+635913888+633765097+633069542+634074353+636014306+637798173
1738+639599072+643166235+649261000+654561735+654629347+651090990+647519655
1728+644751723+642988431+643072961+645195632+648727074+653862865+661461961
1718+670039863+674503074+672351312+667192774+662736592+660359475+660761719
1708+664393922+670030833+674636127+677172188+680156559+685090656+689028286
1698+689176713+687077532+684248217+681438964+680157016+680951218+682859679
1688+685640299+690817240+698399876+703103931+700678747+695609083+693089882
1678+694541860+698843442+702950417+704457777+704799496+706371839+708283044
1668+707933437+706177918+706192207+708812111+711552381+711807227+710587520
1658+710982277+715254540+724113979+734450715+737620206+733486883+730962195
1648+732190361+732748977+728900220+723892110+722127046+724185478+728887761
1638+735458613+742547673+746035678+743516820+739240557+737873452+740484612
1628+745515755+751034301+756487178+761367780+764196180+765246428+767473061
1618+773114372+780503773+785234118+786759081+788458647+792108168+796390775
1608+799112298+799965482+800461001+801754036+803346668+803744512+802334027
1598+800412763+799912615+801468212+804122981+806682760+808668607+810094295
1588+811224214+812523651+814226760+815959132+817248910+818533658+821320907
1578+826574491+832109440+833367326+830799202+829832226+833322917+839194099
1568+842815900+843059830+842901916+845070653+850845760+860940738+873471759
1558+880074502+876950734+870612439+865075547+861532046+861033726+863585047
1548+868086894+873867202+880299972+885299795+887014564+886213161+883790778
1538+879342883+874149939+870088458+867481241+865515798+864103370+864279116
1528+866350464+869004032+871191859+874412216+880822867+889187587+895029278
1518+895891377+892799101+888169345+884368368+883224046+886710337+896785654
1508+912588641+925463096+925001126+916449858+909958792+909033138+913303514
1498+919135432+921094188+918565957+916391790+917690312+921248959+923763073
1488+923526687+921815347+920831111+922379907+926795338+931597468+933538164
1478+933078881+933967328+938504610+945303960+950699627+952096052+950907665
1468+950464270+951985460+953821737+953836540+952352041+951729871+954058694
1458+958804529+960741852+955603833+946559560+937773334+930650839+925936039
1448+924439653+925672906+927618859+928612297+928768497+929663517+932754993
1438+937059261+938449285+934900355+930688846+929635683+930860477+931805735
1428+932274506+933674475+935059183+934280699+932829692+934983055+941579740
1418+946998268+946119137+941278828+936864997+934888524+935621971+938274625
1408+941214760+942726692+941727939+938703503+935909567+935144685+936284721
1398+938303373+940626195+942507852+942482133+940368034+938008234+936782182
1388+936089142+934775989+933434202+933951439+937157736+942194309+947768751
1378+953223114+958342330+962768049+965966574+967783475+969098914+970965539
1368+972986935+973998434+974246822+975086403+976562328+977257426+977167924
1358+978162048+980712683+982864960+983461983+984139934+986685197+990706842
1348+994819704+998283648+1000825025+1002608892+1004685955+1007914313+1011870690
1338+1015623143+1018540359+1020451564+1022178507+1024789953+1027969616
1330+1030329017+1030969590+1029936603+1028077636+1027309611+1029567278
1321+1035262371+1043605259+1052397257+1058224831+1059464828+1057995418
1312+1056325400+1055627101+1056661004+1060093856+1065678300+1071135521
1304+1073741823+1072739355+1069309817+1065965438+1064609191+1065152719
1295+1066909267+1069309703+1070184033+1067110675+1061451132+1058003076
1287+1059555015+1062955977+1062090219+1055060827+1046107999+1040102451
1278+1037854270+1036935703+1035460007+1033775472+1033005503+1033299385
1270+1033593153+1033254463+1033202110+1034960602+1037504950+1037341834
1261+1033573721+1029740681+1029147431+1030449724+1029079532+1022825024
1253+1014418010+1008356680+1006532005+1006780279+1005012643+999307377+991375535
1243+983353277+975123781+965888159+956467761+948371832+941890940+936020901
1233+929602020+922294806+914680336+907610937+901695747+896943054+892414231
1223+887040568+881402686+877542728+876402063+876726579+876964394+876878721
1213+876678571+876110639+875350558+875169668+875675188+876259237+876374458
1203+875479781+873362368+871452763+872189812+876225517+881664677+886342842
1193+889741802+892449266+894799979+896833320+898791905+900867311+903021988
1183+905306460+908020611+911358646+915386521+920429495+926685547+933248740
1173+938475805+941733311+944066878+947151953+952210358+959480480+967891609
1163+975626501+981622791+985764001+987960286+988128774+986852313+985039755
1153+982584452+979152285+977002180+979753651+987372636+995420614+1000866175
1143+1005392255+1010285716+1013340786+1013203389+1011117982+1008901236
1134+1009425102+1015261020+1023843838+1028006080+1025168993+1020609536
1125+1019324959+1021476893+1025230604+1030016503+1036887923+1046371705
1117+1055907038+1059974749+1054510213+1042474653+1032351442+1029630147
1108+1033177763+1038180501+1040971409+1041070741+1040286713+1041641702
1100+1045876072+1050078436+1051896252+1052226369+1053815229+1058045141
1091+1061910186+1059678009+1051450228+1043979498+1040678212+1039164909
1083+1038044705+1038291836+1039248467+1039076778+1037909595+1037595823
1074+1039169710+1040640034+1037969034+1030747036+1023458968+1018954492
1065+1016168843+1015169232+1017194058+1019654162+1018190010+1013717083
1057+1012116334+1015726248+1018873449+1016390140+1011247948+1008099490
1048+1006663457+1004668466+1002204018+1000854516+1001800059+1005609780
1040+1010736426+1013780065+1013173670+1010646239+1008594094+1008027363
1031+1009111674+1011084033+1012537097+1012568874+1011122554+1009051663
1023+1007439370+1006427872+1005557428+1003641651+998967887+992569467+988718367
1013+990153142+995085810+1000142501+1004403961+1007705018+1007494923+1002082053
1003+994236055+987688579+983407801+979588707+974290487+967381688+960131684
993+953239346+946114965+938715162+932474714+928733291+926869695+924872132
983+921612339+917966762+915673031+915280445+915406811+913831725+910024918
973+905667612+902337635+900416486+899862557+900336871+900257085+897236593
963+890722724+883331266+878498787+877422077+878283662+878261315+876593526
953+874921051+874795028+876191968+878361048+880854758+883389105+885714613
943+888313086+892243629+897615691+903315584+908475094+913010832+917112492
933+921479915+927153346+933601833+938062930+938929544+938954806+942326962
923+949213585+955379392+957590479+957345749+957489490+957759939+955578514
913+950584692+946267678+945725580+947997993+949544731+949106594+949015606
903+950835823+952718565+952202643+949635719+947568315+947495844+948451904
893+949315089+951382265+956491194+962681519+965036576+961743406+956233547
883+952865220+953390973+957065698+962055120+966690705+969799956+971263079
873+972136038+972794786+972855140+972756608+973704666+976378409+980330785
863+984332998+986272894+984412898+980366220+977167810+975242088+973715639
853+973004996+974034326+976668519+979763024+983446094+989575780+998362748
843+1007574480+1014825970+1018465717+1017858978+1014355027+1010269484
834+1007233161+1005894175+1006438502+1009590847+1014864834+1017880354
825+1014824255+1009635312+1009295822+1015058012+1023024260+1030312557
817+1036586383+1040557276+1040998728+1039967912+1038449922+1033044368
808+1023359293+1016683908+1019690626+1030114806+1038964415+1040018321
800+1036168936+1033694086+1033797647+1033430952+1031625367+1031302565
791+1033524798+1034442450+1031620794+1027929952+1026375955+1027783068
783+1031363491+1033583094+1029034038+1016533709+1003183739+996234933+994490502
773+991856880+986280781+981056402+979445481+981734011+984840062+985528873
763+985499839+988404138+993659151+997124009+997164931+995953053+994980991
753+994699111+996774117+1002477439+1007702161+1005725344+997838196+992237978
743+994219367+1003449045+1016341674+1027813702+1033923384+1034326886+1030947072
733+1025902383+1020896331+1017135761+1015250047+1015878733+1018890366
724+1021989215+1021997902+1018005176+1012747306+1008060054+1004165060
716+1002106629+1003548148+1010034813+1022268923+1035252197+1040033067
707+1035849563+1028337455+1021791350+1016914007+1013559111+1012328030
698+1012302883+1011336078+1005935325+993999898+980624781+973134619+973131762
688+977516902+983821819+991053534+996293458+996977354+997113036+1002012898
678+1009792141+1014221174+1012470570+1004135455+988441402+967982254+949673383
668+942027193+947895574+959796538+970647082+975170990+967708262+951428216
658+939059053+939520852+949365327+958916949+961141811+954046749+947648558
648+957151943+984000823+1008080058+1011373114+1008842025+1016013043+1021240050
638+1010642695+996389018+994373795+1000496622+997952617+981811168+961921267
628+947159383+941932319+949302173+969281348+992055202+1001712958+994478385
618+982797176+977215133+974688502+965748134+949747396+933174041+920708575
608+917787587+931901181+965111218+1012074155+1041021932+1009389896+974623919
##END=
