##TITLE=<SNM>
##JCAMP-DX=4.24
##DATA TYPE=INFRARED SPECTRUM
##DATE=29/4/2025
##SAMPLING PROCEDURE=Instrument type and / or accessory
##ORIGIN=Admin
##XUNITS=1/CM
##YUNITS=ABSORBANCE
##RESOLUTION=4
##FIRSTX=4497.3318
##LASTX=599.83466
##DELTAX=-1.4281778
##MAXY=2.1078572
##MINY=0.38756344
##XFACTOR=1
##YFACTOR=1.963095e-09
##NPOINTS=2730
##FIRSTY=0.39578983
##XYDATA=(X++(Y..Y))
4497+201615219+202133326+202827065+203380591+203618254+203228656+202086537
4487+200822861+200308777+200751266+201708918+202502899+202471003+201512881
4477+200447215+200273587+201198522+202588886+203621381+203978035+203992867
4467+204002978+203802873+203106401+202252453+201861216+201961352+202014153
4457+201708568+201282505+201060980+201032955+201021311+201056593+201347162
4447+201868670+202187963+201928424+201364226+201217894+201799626+202659889
4437+203235442+203396121+203152400+202385806+201189854+200138124+199849664
4427+200294036+200723910+200411630+199467248+198716639+198649644+198839365
4417+198675695+198298121+198340279+199065110+200150451+201063637+201369039
4407+200847926+199684780+198574238+198346534+199214009+200378490+200665705
4397+199694770+198223262+197424696+198041967+199835667+201600326+202203782
4387+201751501+201175766+200797539+200116688+198943751+197963024+197968171
4377+198911719+199933511+200258208+199880999+199316072+198913464+198625430
4367+198329698+198120136+198119756+198186675+198111771+198089879+198565813
4357+199488259+200159074+200063903+199544156+199348272+199664377+199905775
4347+199518667+198757887+198365981+198673630+199339634+199781121+199662130
4337+199185361+198924729+199131301+199414128+199355893+199040198+198781949
4327+198838196+199319245+199890077+199918557+199375325+199013342+199281034
4317+199759943+199982683+200086705+200325856+200492000+200274133+199976671
4307+200287022+201276888+202201247+202468848+202355307+202455321+202796536
4297+202923482+202752039+202844524+203592506+204529784+204936506+204723270
4287+204147838+203231525+202109871+201330084+201070073+200665598+199663876
4277+198762820+198930209+200162672+201760959+203226850+204293275+204727490
4267+204684041+204648745+204717486+204570151+204223319+204124641+204475147
4257+204972091+205230796+205128990+204771364+204368528+204147777+204240444
4247+204618655+205107281+205422080+205320471+204859825+204403870+204258130
4237+204452709+204987910+205908018+206978724+207686309+207671022+206971832
4227+206004859+205446689+205737866+206527430+207049272+207136382+207317146
4217+207849599+208381066+208696852+209055434+209515928+209608792+209020593
4207+208174524+207820815+208182904+208682809+208628369+208109017+207829393
4197+208045149+208271685+208217837+208275708+208721491+209110497+208948801
4187+208467326+208222649+208302700+208384011+208340714+208434124+209028153
4177+210248426+211771185+213004164+213631714+213790434+213659116+213332840
4167+213114699+213329970+213800621+214013128+213807422+213453637+213131262
4157+212778980+212424619+212257017+212306372+212438768+212696850+213245517
4147+213998296+214657590+215044910+215030290+214340255+212988725+211762031
4137+211663975+212791793+214154254+214744062+214490732+213960692+213455687
4127+212850393+212238010+212235278+213359786+215262397+216850360+217284120
4117+216677552+215727476+214999017+214755630+214982257+215294080+215286384
4107+215112072+215269821+215836645+216401601+216746111+217122318+217773489
4097+218483807+218794113+218563828+218151868+218011745+218241772+218606274
4087+218886749+219052559+219102430+218980630+218784047+218757647+218905953
4077+218985473+218979309+219100274+219356367+219603518+219820869+219934972
4067+219806857+219656486+219875097+220334832+220507792+220223826+219823359
4057+219616726+219580124+219613280+219839497+220479616+221446786+222232554
4047+222342163+221846539+221392452+221512733+221971072+222054128+221523891
4037+220953302+221025702+221788592+222737089+223442063+223863845+224120105
4027+224256767+224331899+224427921+224513589+224555975+224672461+224858265
4017+224773280+224150787+223255500+222711797+222940291+223774336+224619114
4007+225015027+224960299+224749021+224709747+224970835+225260600+225166446
3997+224783892+224739669+225280685+225801084+225738598+225426592+225472182
3987+225777052+225864178+225786692+226011801+226691012+227610452+228599938
3977+229519484+230023761+229763690+228818199+227711878+226971486+226775754
3967+227026852+227548269+228152652+228715847+229277373+229895692+230446181
3957+230755257+230826761+230816665+230963134+231591169+232846571+234230938
3947+234819016+234334368+233514062+232998156+232456123+231341832+229995266
3937+229391764+230223137+232376604+234777814+235838758+234937840+233345170
3927+232857395+233908806+235397970+236158294+236300573+236767899+237907058
3917+238796742+238075555+235574968+232709545+231133316+231433420+233231887
3907+236265854+240613913+245629069+249585830+251231513+250614545+247969447
3897+243719915+239579885+237929435+239789538+243188660+244467366+243153819
3887+242364787+243877512+246131342+247425243+248237382+248438063+246592185
3878+243646680+242568672+244397425+247721339+251241441+254228452+255096685
3868+253608767+252284335+252647669+252857885+250569092+246528575+243303264
3858+243002158+247474932+257854610+269182315+270377902+261404422+251219580
3848+245039700+243726898+245969342+249803211+253804453+257588968+261018240
3838+263080983+262722765+260518958+257909536+255604803+253542698+251809449
3828+250705192+250370718+251582246+256004496+263322426+268726329+268803481
3818+266485661+264146710+260291602+254622725+249957271+248743541+251490035
3808+256461149+260340334+262194183+264405399+267566478+268532009+266148728
3798+263167638+260932253+258449717+255397305+252794897+251304398+250931014
3788+251872178+254266921+257246326+259617614+261458953+263416429+264876110
3778+264730916+263565904+263291214+265374057+269891160+275125032+278658084
3768+280078172+280829646+281606078+282569423+284802287+289122610+294286254
3758+298228654+301141215+305373123+313062478+324044474+333819679+337403831
3748+337225694+339115400+344477069+348219136+346870582+344722702+346787115
3738+354271949+364025930+370722854+372111123+370262011+368126519+367660939
3728+369851812+374560807+380481086+386209626+391081303+394810375+397688081
3718+400856842+405451734+412334781+422360021+434371309+443207763+445181119
3708+443169719+441965235+443887642+448679648+454389242+458589663+460681979
3698+462283545+465091264+469371600+474563754+480737409+487738931+492471639
3688+491017180+484730576+478404834+475393169+476487892+480496513+486255871
3678+494167541+503274435+508289970+507018142+504515688+504130447+503901453
3668+501621860+498721565+497354429+498050066+500082720+502612986+505543583
3658+508973068+512149025+514430469+517330643+523656810+534097350+543855096
3648+546127554+542024657+537427033+534545380+532321260+530227820+529538164
3638+531228632+534489756+537884111+541197155+545796844+552284297+557289387
3628+556588255+552828212+551206121+553623894+560202981+569721106+577453668
3618+578747053+576193317+574923796+575164814+574586407+573540294+573824428
3608+575010572+575453927+574795120+573852240+573574786+574523617+576937686
3598+581031352+586232220+590530652+592628525+594049129+597221655+602362224
3588+606607885+606491050+602205674+597538459+595446476+595992517+597960499
3578+600763755+603837542+605905234+606398565+606406338+607825850+611981274
3568+618025008+622241217+621452640+616598816+610789785+606795587+606327821
3558+609613781+614684333+618083182+618474435+618422515+621093572+626344903
3548+630852229+631542432+628587970+624555757+621616902+620872350+622729873
3538+626516573+630541620+633132460+633778211+633248809+632488833+632132316
3528+632639371+633760844+634325466+633607998+632006372+629701001+626336462
3518+622810576+621464239+623378539+626722492+628548195+627377049+624022833
3508+621126242+621320441+624675629+628565623+630954308+632407583+633635385
3498+633830678+632899214+632491020+633657004+635791676+638194753+640452819
3488+641471484+640366771+637829856+635421009+634067263+633881748+635182845
3478+637925983+640201842+639576737+636575941+634441451+635085017+637413220
3468+639406524+640143970+639416301+637069758+633715421+631374891+632410316
3458+636761032+640718248+640650904+637536128+634899137+634324130+635644539
3448+638652985+642080375+643060479+640068611+634978141+630893644+629331003
3438+629765613+630992383+632497396+634134061+635489325+636333162+637001382
3428+637993631+639129921+639451582+638167487+635709089+633338379+631850308
3418+631600242+632717160+634783638+636871855+638397211+639600055+641141017
3408+643191099+644587778+643719712+640940503+638557282+638164573+639644081
3398+641693616+642462093+640734523+637177971+634171649+633708438+635429025
3388+637233716+637718546+637375267+637518639+638389256+638751299+637646951
3378+636032208+636223128+639127735+642908484+645400342+646402003+647018607
3368+647859165+648599283+648769921+648358144+648076136+648690067+649574469
3358+649376748+647897361+646280614+645649983+646026358+646565658+646639135
3348+646671866+647788966+649953940+651407155+651308780+651286433+652908645
3338+655133373+655587293+654043113+652683051+652957650+654278909+655445500
3328+655508958+653770578+650620096+648109413+648350006+651151441+653825960
3318+653871382+651443225+648519915+646542522+645914320+646954481+649898073
3308+653915469+657335268+659243678+660362843+661795775+663217594+663260284
3298+662022583+661621372+663354468+665681943+665951381+663328660+659426825
3288+656738157+656147969+656428155+656579907+656980633+657509853+656800582
3278+654673258+653087299+653595629+655705586+657930799+659410611+660382336
3268+661510488+662821362+662929696+660354827+656224908+653384184+653571400
3258+656297049+659505585+661348230+660877489+658406946+655597981+654255469
3248+655270004+658364559+661970056+663769161+662724809+660335941+659062899
3238+660081685+662531096+664496709+665099467+665054834+664614759+662690803
3228+659092290+655677592+654501770+656407387+660622261+664729408+666384837
3218+665427079+663147881+660529655+658275476+656930959+656217682+655333827
3208+653988096+652661069+651995278+651916032+651483365+650293941+649347842
3198+649460063+650269590+651374970+652609756+653006231+651460775+648444616
3188+645319516+642644087+640651208+640215565+641773409+644151407+645665103
3178+645920514+645474426+644327328+642019650+638834857+635565110+632282975
3168+628850667+626445707+627042332+630885689+635443478+637884690+637737735
3158+635751172+632027504+627256631+623921847+624009231+626614341+629203055
3148+630579573+631186886+631094098+629733672+627443543+625551832+624925816
3138+625106960+624781837+623082079+620443084+617974120+616230093+615135886
3128+614651056+614377550+613222011+611058190+609507087+609434217+609506601
3118+608456056+606834086+605743037+605649763+606504409+607604021+607967279
3108+607640274+607537891+607710654+607084092+605211267+603201871+602250611
3098+601930468+600904820+598864697+596763423+595619968+596013528+597827207
3088+599506015+598963800+596470849+594869223+595920740+598195505+599158849
3078+597977077+595719800+594148051+594570273+596659158+598285500+597596573
3068+595201815+593218409+592595551+592443738+591660019+590324186+589197552
3058+588448629+587660598+586814150+586357193+586203680+585561450+584166289
3048+582943163+582907699+583825925+584372573+583593712+581994028+580868184
3038+580672406+580609009+579965868+579121242+578649589+578273275+577497086
3028+576445508+575334906+573970168+572388338+571274395+571136549+571466287
3018+571193327+569855126+568011875+566357539+564954544+563822566+563515904
3008+564217280+564853983+564061155+561963404+560326011+560591380+562265512
2998+563706520+564025085+563431982+562311724+561119446+560607350+560990162
2988+561397871+561044146+560274394+559733636+559249414+558288438+557030698
2978+556165182+555765185+555222485+554185967+552880315+551725808+551137563
2968+551116673+550785721+549272025+547099946+545663249+545587039+546480003
2958+547587569+547972020+546979831+544992904+542953874+541213915+539535289
2948+537861582+536317827+534899954+533937764+534355614+536715151+540207213
2938+543037007+543858800+542662454+540367831+537913927+535927121+534793443
2928+534314989+533540318+531815844+529699815+528196745+527876602+529004694
2918+531225535+532949826+532588451+530336458+527580992+525254975+523655109
2908+523066440+523587158+524514674+524672013+523699135+522557684+522211915
2898+522239788+521431293+519427119+517102559+515664587+515768974+517053372
2888+518366615+518800071+518300303+517158427+515747052+514821540+514837814
2878+514856335+513554873+511361358+509927030+509716192+509654374+508893457
2868+507649745+506372603+505167482+504017256+503014349+502492780+502908292
2858+504221839+505542399+505794590+504675911+502719802+500662402+498997530
2848+497841839+497002587+496308043+495833718+495650268+495649357+495791484
2838+496057521+496037543+495108356+493177721+490930980+489244521+488486246
2828+488399864+488581888+488869998+489174262+489234137+488845071+488091228
2818+487147984+486128348+485214889+484681085+484625976+484698786+484272434
2808+483146134+481896714+481189964+481010673+480863323+480357118+479356610
2798+478048985+477069457+477032445+477710958+478071514+477357507+475812780
2788+474191448+473014260+472454101+472466671+472780134+472984687+472731888
2778+471799939+470203079+468443082+467301600+467042212+467042152+466537374
2768+465576155+464857655+464752904+464904565+464774704+464192653+463314932
2758+462372841+461501010+460555155+459168495+457314404+455674369+454999651
2748+455199042+455478166+455260405+454521744+453475419+452482502+451908831
2738+451592574+450939900+449865945+448944440+448406628+447907922+447406393
2728+447307715+447606118+447634568+446880027+445565145+444273672+443379190
2718+442886254+442560403+442137330+441501659+440765913+440209974+440050297
2708+440144755+439971779+439094118+437685811+436412464+435715218+435404305
2698+435041988+434526553+434097256+433884870+433703757+433296899+432637727
2688+431944579+431470771+431308119+431297795+431111339+430509370+429508801
2678+428347706+427414967+427069016+427240655+427360345+426990498+426319849
2668+425741685+425259466+424616872+423752267+422904544+422398278+422320702
2658+422359080+422132575+421691376+421411312+421399045+421383409+421177915
2648+420859897+420504715+420071684+419525066+418867686+418127416+417377824
2638+416636795+415810264+414942441+414355897+414312569+414697840+415198519
2628+415617067+415883863+415891545+415462036+414527384+413299036+412151482
2618+411366518+411036689+411067051+411205232+411234076+411127807+410877467
2608+410370412+409666577+409140849+409058445+409163317+408969938+408458419
2598+408179934+408488994+408967357+408903201+408137122+407162939+406542236
2588+406402751+406382651+406034361+405402668+405090905+405593466+406691772
2578+407636170+407840875+407337706+406616260+406110268+405847267+405553388
2568+405032153+404355978+403732695+403338528+403303520+403691797+404383973
2558+405043661+405299860+405031819+404489300+404034165+403720793+403285120
2548+402608794+401971149+401732772+401988911+402626282+403477346+404292824
2538+404780933+404823623+404511374+403942561+403211977+402590212+402397197
2528+402594462+402722623+402405850+401851520+401631209+401924299+402271283
2518+402229868+401929127+401734958+401758975+401964439+402359911+402823214
2508+403078685+403045256+402936011+402937529+403023880+403130635+403323256
2498+403691493+404156557+404471386+404468472+404295375+404266196+404448189
2488+404581056+404492063+404344046+404320059+404335635+404224751+404030370
2478+403989502+404246309+404630517+404815607+404684927+404364024+403957682
2468+403569861+403504490+404037839+404957977+405667156+405783931+405401089
2458+404799576+404207900+403840543+403865956+404239173+404753789+405279092
2448+405767049+406070402+406000902+405608526+405260753+405346558+405855860
2438+406306501+406274104+405921807+405681275+405570330+405276056+404759619
2428+404279859+403923797+403560418+403206390+403087703+403313631+403716998
2418+404066866+404297955+404502083+404809504+405265338+405743032+406082213
2408+406327421+406616534+406895505+407021176+406995611+406862774+406668393
2398+406647412+407026155+407654054+408232673+408680704+408948836+408903140
2388+408634796+408409505+408197058+407624572+406374453+404406593+401892510
2378+399057403+396030101+392853871+389668198+386786819+384529573+382929464
2368+381601982+380093690+378396786+376879931+375878057+375720506+376852393
2358+379438253+383019216+386987940+391250635+395809031+399864380+402164225
2348+402052733+399905521+396985673+394703438+393551512+393118572+393039265
2338+393269019+393598149+393629028+393383698+393327133+393661030+394203883
2328+394954294+396019808+397046793+397489024+397481372+397789067+398795404
2318+400144657+401384422+402408370+403291284+404141254+405099285+406190698
2308+407247316+408133843+408928766+409806154+410831286+411866863+412659782
2298+413097124+413354022+413723990+414357202+415179208+415975528+416534443
2288+416755847+416695243+416575402+416647179+416880181+416933225+416573216
2278+415956096+415427514+415210968+415253475+415259791+415025301+414741076
2268+414701726+414843489+414927624+414940862+414966853+415008055+415196849
2258+415756098+416590067+417339112+417871186+418301150+418665441+419013335
2248+419544923+420221918+420565592+420226594+419406045+418462771+417553624
2238+416808131+416344342+416000395+415509159+414970739+414735065+414846343
2228+414973897+414872486+414651992+414585225+414788685+415138006+415459789
2218+415722699+415981752+416228782+416409835+416530161+416671135+416957818
2208+417524506+418406843+419419222+420225379+420641590+420851365+421226859
2198+421945875+422861004+423711672+424340998+424718587+424928271+425171870
2188+425602412+426103060+426376263+426356254+426383853+426797878+427536933
2178+428314428+428950828+429363425+429522282+429590143+429808936+430161536
2168+430459181+430734812+431182418+431782352+432323110+432687309+432886852
2158+432996764+433219292+433786769+434658418+435505230+436117553+436669210
2148+437458122+438508819+439591943+440602532+441717446+443111028+444689913
2138+446193620+447450024+448532238+449771730+451551858+453922963+456453807
2128+458602567+460242784+461763403+463660579+466077138+468761949+471354641
2118+473514636+474898259+475391195+475406468+475674691+476715035+478624356
2108+481251570+484439702+488120741+492176302+496310199+500271666+504113930
2098+507944869+511511410+514300396+515966391+516454986+515756829+513685189
2088+509986783+504728165+498501618+492130940+486177323+480787417+475977618
2078+471915347+468780653+466422239+464406679+462453727+460629300+459114996
2068+457978100+457170546+456624930+456311558+456206807+456215187+456212485
2058+456187314+456212606+456291276+456393172+456603524+457043357+457664424
2048+458315580+459011521+459979935+461416784+463291401+465475382+468101442
2038+471683954+476673924+482912707+489733571+496585800+503346971+510072709
2028+516647424+522650168+527532047+531063034+533507891+535215908+536236941
2018+536425857+535721991+534291367+532451394+530362994+527860389+524794071
2008+521375972+517955687+514649384+511343505+507995726+504863218+502323054
1998+500497139+499331276+498964375+499475954+500273488+500419441+499728085
1988+498942635+498849088+499671944+501119116+502699398+504133484+505525882
1978+507022605+508469808+509646297+510648445+511817951+513450304+515640601
1968+518158388+520455318+522133154+523361321+524500950+525603112+526694769
1958+528194438+530525556+533559689+536781524+539798533+542518414+545045613
1948+547578582+550344917+553480765+556709583+559226763+560504178+561123454
1938+562122929+563877279+566099821+568482738+570880228+573116129+575005593
1928+576679786+578711711+581468330+584339963+586391624+587870768+589799460
1918+592039126+593246525+593021599+592602474+593225817+594883858+596586470
1908+597503906+597799698+598204735+598978738+599714060+600097661+600439908
1898+601277065+602644596+603991602+604979297+605991707+607294869+608211698
1888+607992358+606915276+605618551+604329537+603303160+602940753+603171690
1878+603452119+603377063+603016841+603069308+604653324+608063771+611348942
1868+611299998+607236330+601831121+597658269+595176674+593460460+591698033
1858+589885143+588362277+587091482+585726866+584407854+583913369+584709172
1848+586448949+588493079+589841118+588844253+585112388+580736896+577733914
1838+576183783+575047068+573891772+573548675+574874487+576978493+577457190
1828+575462793+572655164+570101003+567184676+563774472+560992469+559581763
1818+559100394+558819358+558798894+559740013+561788516+563800644+564280798
1808+563057186+561439710+561030301+562660529+565739781+568464277+569453126
1798+569256194+569697059+572268041+576889713+580915610+581024855+577990235
1788+575706179+576308877+579020802+582092464+584743907+586917383+588408368
1778+589425818+591266277+595591002+602673683+609599086+612155130+610312667
1768+607205846+604757468+603835538+605194021+608193055+610566499+611460920
1758+612212090+613396413+614676925+616963289+621657891+627909184+632470434
1748+633544966+632656678+632022525+632829319+635380748+639017822+642147658
1738+644297512+647529002+653555429+659621328+660682014+657343951+653303359
1728+650492633+649833583+651511420+654555694+658278815+663776266+672470714
1718+682925950+689709984+689243129+684452823+679908637+678279381+680485769
1708+686102180+693294348+699573939+704648863+710949343+719459915+726702000
1698+729702856+729850357+727719936+723744259+721105203+722029380+725403088
1688+729476533+735245121+744278659+752792632+754760006+752183012+750232702
1678+751566044+756566095+762997316+767627914+770633932+774021789+776588582
1668+775904148+774379946+776145106+781003302+784794435+785154718+784739661
1658+786859031+792802386+802632638+813323973+817039018+814274383+813856897
1648+817976250+821619518+818957933+812211609+807159457+806296977+809673843
1638+816211637+822797647+823729050+817349141+809280830+804152589+802859689
1628+804158115+806189554+807887430+808248623+805736301+801083478+797695195
1618+797441789+797830369+794783909+789002811+783966448+781095847+779731777
1608+778539499+776673779+774418325+772607500+771418805+770346094+769418760
1598+769420096+770535618+771740162+771992172+771361116+770417993+769084286
1588+766888706+764300842+762760913+762843560+763552101+764396910+766864902
1578+772179630+777607672+777704164+773288229+770477625+771636747+773765225
1568+772908515+769661965+767111143+767239941+771519183+781473436+794807167
1558+800336801+793684844+784361161+778202110+776180083+777138144+778538467
1548+779018196+780184969+784314706+791728036+801079470+808927167+808541622
1538+799982105+792690105+791796534+795655558+799544216+801447100+803389759
1528+806680760+810781349+815818017+823017776+831824808+839002342+843201184
1518+846518479+849239878+849640907+848696813+850050498+856263716+867466357
1508+880402155+885770686+878153199+867984646+863926687+866285617+872767847
1498+880389828+885556326+886615616+886125382+887561350+891937145+897438968
1488+901298478+902997204+904365281+906718260+909323370+911021489+913075822
1478+918593372+928702656+940553903+948905072+949890581+945016414+940012113
1468+939000735+942579573+948015145+950783423+950094617+949986527+953896378
1458+960768160+964663802+962609408+959243898+957943529+958735992+960773079
1448+962289447+961383367+959060568+958566569+961260581+965846910+971005878
1438+976149604+980021259+981731219+982798404+984461241+985694205+985828226
1428+986426429+988201912+988897033+987428273+987480861+993639851+1004816138
1418+1013076340+1013222810+1008872094+1004728633+1002166334+1000476049
1410+998979112+998339191+999307879+1001227037+1002986792+1004451301+1005595181
1400+1005518121+1004264450+1003759034+1004519556+1003712215+999251526+993286552
1390+988900191+986818471+986290223+987406959+991340432+998115175+1005511805
1380+1010696399+1013204956+1015710902+1020410788+1025877632+1028936238
1371+1029054531+1028192962+1027904396+1029615146+1034593031+1041325267
1362+1045770836+1046369100+1045368713+1044284283+1042871451+1041639580
1354+1042307557+1045856822+1051079916+1054978230+1055164534+1052181957
1345+1048779404+1048090416+1052091719+1059234579+1064280598+1063666059
1337+1059942391+1056960664+1054910946+1052613227+1051754816+1055749075
1328+1064428160+1072236446+1073741823+1070177255+1067101039+1067543361
1320+1069799423+1070566382+1068739040+1066078306+1065442999+1068340562
1311+1072642212+1073612235+1069232493+1062671866+1058384183+1058340947
1302+1061745079+1066489780+1070358459+1071608426+1069440902+1064380551
1294+1057878343+1051097162+1044465366+1038152012+1032016340+1025397904
1285+1017715622+1009457727+1001764333+994799034+987792685+981275841+977847055
1275+979439087+984403370+988209928+987125983+980261367+968852442+956120073
1265+946056272+940310395+936817422+932241052+925667066+918873801+913772825
1255+910383814+906771273+901193302+894280834+888036099+883029916+877986872
1245+871793694+864393481+856054336+847086806+838042520+829631415+822542844
1235+817205648+813318447+810021131+806966594+804706099+803804209+804071764
1225+804702212+804816619+804016990+802750384+801983729+802308426+803469856
1215+804975779+806961068+810001456+814130950+818535772+822412649+825664968
1205+828494033+831135213+834318791+838976048+845067937+851297368+856471032
1195+860453389+863364554+864850013+864941647+864773560+865587824+867519309
1185+869922933+872577474+876078037+881036976+887012455+892586662+897238635
1175+902665948+911079785+922476686+934138531+942587407+946456329+947236466
1165+947094612+947028968+947241931+948062571+949773685+952417416+955857680
1155+959161372+961393204+963505469+966903103+971477409+976617067+981754781
1145+984874537+983295136+977684737+972328776+970813683+973091484+976293705
1135+978126573+978863412+979582581+980243513+981109819+983938215+989436455
1125+995346472+998694615+998579601+996152295+994264349+995644268+998708642
1115+999143192+995787094+991322761+989628589+993103770+1000445747+1006346655
1105+1005936092+1001296749+998361112+998529564+999170943+999604764+1001003568
1095+1001755346+998765906+993697783+991502932+993037458+994638416+993969346
1085+992883094+993600866+994958195+994631554+992311549+987820254+979922216
1075+969550053+959984137+953533363+949548152+947000366+946290246+947566082
1065+949774231+951423649+951630843+950553578+949714599+950732596+952937892
1055+953610484+951713247+949242886+947443174+945216746+942504517+941217629
1045+941894168+943115291+944141425+944967105+945384166+945855757+946868775
1035+947593348+947369332+947033947+947241931+947793862+948373727+947948893
1025+945244498+941212832+939500625+942581152+948302435+952541235+954160047
1015+955038375+956167924+955561705+950691425+942147575+932628114+924019227
1005+916902480+910864636+904902092+898313592+891386004+885014840+879682137
995+875368889+872068415+869803791+868165972+866205399+863050908+858508361
985+853114448+847726849+842969700+838992869+835943858+834448683+834596791
975+835032555+834260374+832126916+828985421+824447793+818312546+811878228
965+806935927+804046077+802540943+801616827+801091068+801310286+802414027
955+804053607+806163382+809545227+814896026+821710423+828638437+834630980
945+839762560+844864872+849932570+853875273+856667721+860311049+866922867
935+876504267+886748908+894690000+899030817+901515327+905044249+910359403
925+915375909+917258936+915124264+911159032+908640819+908770103+909562931
915+908610396+906478457+905560656+906049069+905531933+902799118+899646631
905+898237200+898730714+899976248+900919735+901113327+900584289+899514068
895+898580358+899193743+902453531+908344116+915357449+920365029+920697074
885+917777408+916098175+917599847+919646164+919306954+917489024+917155643
875+919991934+925746008+932540062+937578309+938625211+935569763+930804415
865+927626424+927372532+928659420+930379036+933717038+939467712+945253364
855+948118134+948090626+946785095+944742058+942413490+941818201+944969838
845+951442352+958377410+962207225+961088182+956567982+951514008+947314619
835+945163005+947598266+955583080+965982509+974846320+981089658+984830875
825+985373090+982694199+979274461+978545698+981129858+983629610+983091160
815+981834331+984334993+990797063+996738293+998328139+995925790+992715796
805+991595478+992462390+992581229+990649076+988258751+986031837+982622544
795+978108902+974210771+970796862+966526971+962924815+963011409+965790739
785+965704692+959160157+949134249+940743426+935371859+931292464+927528049
776+924727586+923459098+923322224+923161970+921971149+920370130+920570827
766+923875673+929616206+935938061+940103444+940677297+940424315+943369365
756+949380915+954999876+957916810+958271991+957412305+956727082+956302127
746+954520025+951347378+950168095+953077256+957561385+960694561+963507534
736+966777706+967751555+965604009+963780250+964977872+967991055+970138601
726+969941305+966577981+959790060+951464577+945231138+943903200+948012412
716+956053093+964222694+966808250+961607564+954416671+952109965+955108574
706+959442408+962358370+963949734+964710013+964298236+963344183+961995962
696+957644336+949229527+940077028+934544600+934242189+936299619+935839929
686+931241515+924999939+920724097+919812551+919564064+916318121+910941696
676+907973996+909277401+911651634+911572570+910432091+911830288+913168974
666+911034120+909845364+913403313+917465523+913879155+903945913+897296749
656+900113304+909274972+916341561+918154876+919580581+925145376+929901371
646+927212946+918545763+911440250+910566050+911680722+908503823+900689101
636+893254639+890558259+890606110+886785100+877710391+869241779+867525018
626+873203064+881447236+886981060+887127044+884106634+884440926+890953276
616+900327239+910210262+922222430+933961396+933218059+915596706+898734479
606+896503861+908685513+928318448+948250455+959331888
##END=
