##TITLE=<SNM>
##JCAMP-DX=4.24
##DATA TYPE=INFRARED SPECTRUM
##DATE=29/4/2025
##SAMPLING PROCEDURE=Instrument type and / or accessory
##ORIGIN=Admin
##XUNITS=1/CM
##YUNITS=ABSORBANCE
##RESOLUTION=4
##FIRSTX=4497.3318
##LASTX=599.83466
##DELTAX=-1.4281778
##MAXY=2.2212899
##MINY=0.51018983
##XFACTOR=1
##YFACTOR=2.0687374e-09
##NPOINTS=2730
##FIRSTY=0.52500218
##XYDATA=(X++(Y..Y))
4497+253779035+253737171+253847089+253550094+252570771+251309493+250319970
4487+249805127+249787350+250382810+251560014+252730390+253040696+252271989
4477+251122618+250538741+251083606+252791241+255090215+256866221+257073236
4467+255558815+253297469+251716809+251591592+252560456+253715850+254295866
4457+253892295+252813657+252178638+252653058+253422514+253438130+253069710
4447+253315679+254123541+254584160+254149126+253009435+251775932+251116020
4437+251348476+252218428+253079650+253265142+252539394+251432866+250835678
4427+251067068+251608620+251860985+251888673+252132914+252588433+252803198
4417+252757704+253066857+253961588+254800423+255112516+255278243+255638538
4407+255767904+255132626+253880972+252632400+251973093+252088140+252377067
4397+251866920+250504656+249328662+249037112+249251762+249505193+250071005
4387+251260858+252618829+253460632+253772667+253969742+254123051+253896242
4377+253073830+252010347+251537425+252130493+253154878+253469477+252924843
4367+252493382+252730620+253011769+252541930+251403708+250189077+249149278
4357+248301597+248080637+248955718+250417557+251283331+251199949+251060556
4347+251609311+252309157+252066386+250656035+248907083+247753274+247554096
4337+247999675+248297996+247846741+246981485+246618942+247088090+247845876
4327+248357550+248687650+249063101+249343788+249269395+248990235+249057684
4317+249868399+251188626+252230731+252247845+251194129+249825238+249048003
4307+249126372+249533977+249472261+248565775+247329679+246902655+247920990
4297+249690657+250920443+251245847+251464992+252324716+253677645+254747611
4287+254819554+253804015+252299591+250880193+249466239+247921134+246983732
4277+247701413+249989525+252490097+253927359+254125846+253601696+252698668
4267+251523221+250485784+250330285+251340927+252802535+253585677+253231922
4257+252345864+251958053+252440223+253055563+252936108+252391790+252383867
4247+252830858+252677837+251681831+250837724+250913960+251611789+252250841
4237+252525363+252508133+252402508+252339784+252255423+252031668+251732714
4227+251584533+251729285+252080130+252403315+252566046+252760988+253280153
4217+254024859+254634696+255091396+255632343+256015227+255565240+254091502
4207+252240757+251000195+251042491+252174201+253396756+253954097+254050416
4197+254069749+253693578+252470332+250847059+249983215+250532172+251871473
4187+252754851+252706562+252416597+252697141+253497310+254138696+254261781
4177+254280048+254812524+255846360+256776154+257188599+257239885+257299699
4167+257502104+257618447+257315747+256542834+255544870+254586954+253934216
4157+253875123+254371670+254916104+255050022+254819381+254524346+254226025
4147+253792663+253371055+253359559+253818795+254279011+254312778+254088620
4137+254132156+254654720+255269311+255446880+255220734+255126720+255415993
4127+255769431+255800260+255432157+254862628+254360981+253980575+253571328
4117+253146523+252885917+252794641+252841893+253252061+254111151+254998910
4107+255477882+255634216+255859123+256385290+257027799+257154428+256181559
4097+254357351+252793143+252470274+253344318+254503918+255076328+254864011
4087+254214645+253611233+253403728+253604577+253878235+253969771+254135527
4077+254854244+256175077+257600468+258479410+258395711+257414515+256087661
4067+255064947+254605567+254539242+254618532+254779592+255159335+255842326
4057+256606711+257201046+257779968+258547781+259135000+258925651+257906020
4047+256680729+255728115+255085605+254641755+254401923+254551746+255297893
4037+256413612+257116713+256917420+256393069+256443087+257021864+257361040
4027+257228389+257189003+257699121+258526114+259056228+258875259+258096497
4017+257257403+256857779+256986425+257402558+257867585+258268707+258500644
4007+258509634+258447515+258441032+258319964+258010176+257904954+258301293
3997+258885891+259256213+259464524+259668859+259786845+259740256+259591124
3987+259432110+259447467+259805400+260241384+260173244+259492529+258822331
3977+258758368+259233192+259776184+260079518+260139649+260034197+259751435
3967+259318562+259047699+259353050+260198829+261039825+261390324+261147985
3957+260512708+259954502+259985936+260680048+261671357+262599711+263224156
3947+263388212+263266682+263286764+263518702+263551086+263166330+262735387
3937+262800993+263553651+264722413+265812893+266409102+266335544+265760426
3927+265268489+265526299+266509800+267329936+267290319+266752801+266521065
3917+266743840+266899138+266658269+266202634+265800792+265539582+265466889
3907+265862018+267196622+269497296+271800420+272925243+272689330+271679899
3897+270358576+268964014+267921563+267807928+268574647+269228941+269354244
3887+269879546+271276760+272466757+272735228+272964630+273435073+272953018
3878+271170184+269385390+268651575+269073874+270742785+273586539+276158968
3868+276961068+276597978+276393816+276257102+275260636+273475698+271889190
3858+271510599+273415798+278398417+284110384+285061587+281017464+276098348
3848+272972034+272409594+273951271+276337430+278360730+279701904+280592140
3838+280864703+280163964+278937491+278101047+278106550+278725895+279403757
3828+279670384+279392318+279112553+279903502+281950745+283323901+282493623
3818+281066589+281068519+281924325+281727135+280555722+280096976+281396430
3808+283739803+285343023+285653070+285766820+286209864+286163188+285568305
3798+285606740+286699813+288124369+289350727+290579966+291992421+293591549
3788+295616866+298219030+300899102+303150421+305463311+308716772+312819556
3778+316970081+321088625+325801678+331484084+338119191+345291356+351904738
3768+356868802+360119756+362409885+364730785+367864878+371737568+375217607
3758+377215841+378148344+379762368+384017453+391446563+399098247+403088779
3748+404351786+406496010+411270778+416959495+420561784+421812689+422854650
3738+426208377+432914765+440901793+446889175+449894737+451067360+451945898
3728+453761031+456869682+460296592+462655640+463466758+463030658+461833832
3718+460747588+460941436+462889968+465436179+466352807+465014543+463169907
3708+461946920+461131423+460880268+461666088+462699117+462181162+459884637
3698+457779165+457971745+461139029+466524700+472670664+477688577+479760051
3688+479154709+478245111+478554179+479842454+481269545+482631118+484616386
3678+487649204+490102035+489212318+485929295+484177809+485401688+487233331
3668+486812962+484295016+481237074+478574491+476835163+476718417+478741861
3658+482018141+483983269+483304255+482233943+483612170+487430348+490205125
3648+488557995+483854652+480012214+479238696+480878104+482542550+482676814
3638+481850051+481133552+480564110+479907886+479980953+481915022+485125035
3628+487236961+487344488+486697426+486422789+486984048+488368181+490034903
3618+491806558+494575342+498856876+503579465+506809646+507567058+506216694
3608+503807600+501693138+500717561+500824050+501373958+501567575+501247934
3598+501500673+503533193+506823591+509500350+511091411+513159370+516344431
3588+518414291+517144427+514236999+513048789+514549092+517325770+519542400
3578+520435747+520486572+520343260+520432981+521608111+524976878+530520612
3568+535897524+537569835+534623511+529756515+525968417+524264759+523902302
3558+523940219+524350503+525599104+527655653+529832983+531540099+532622281
3548+533000641+532753203+532471594+532862516+533979042+535093609+535128990
3538+533451320+530793635+528570206+527087018+525589654+523806877+522473338
3528+522696228+525089418+528574874+530717975+530720107+530077079+529246023
3518+527088689+524370211+523863809+526067588+528201297+528051013+526294052
3508+524406053+522863857+521866095+521964286+523474962+525802978+527837054
3498+528922002+529376311+529993408+531036982+531896216+531730835+530194171
3488+527688211+525362730+524548961+525540212+527039305+527602178+527589673
3478+528470805+530302159+531214695+529809126+527070076+524892113+523748907
3468+522799491+521393461+519698504+518433941+518297084+519163636+519984723
3458+519640822+517971449+515954546+514751641+514520856+514265178+513149689
3448+511537940+510152886+508856976+507189908+505544104+504713452+504890243
3438+505858675+507384736+508933558+509889486+510207514+510149832+509679964
3428+508714932+507630560+506971801+506833676+507004762+507385658+507582502
3418+506558520+503852201+500825260+499446890+500205685+502045913+503649306
3408+503976150+502544939+500088650+498166827+497792961+498746180+500034138
3398+500580242+499873078+498580972+497861879+498032735+498703135+499632843
3388+500500433+500641785+499967870+499288481+499293437+499768087+499639067
3378+497889309+495014842+492898133+492706993+493970980+495902600+498098600
3368+499734262+499915720+499114341+498666082+498999265+499431389+499261225
3358+498434260+497575257+497661693+499225959+501601055+503248357+503137142
3348+501662597+500171111+499649266+499777826+499499731+498661300+498289220
3338+498898596+499560064+499321442+498680546+498918534+500627033+503053414
3328+504640615+504620619+503930166+503912591+504656461+505468559+506089171
3318+506152731+505011484+503342688+503173964+505410877+508441909+509996609
3308+509678063+508625384+507465813+505943209+504298730+503769337+505310265
3298+508364808+511143791+512086235+511213977+509950567+509465199+509566445
3288+509438116+508970956+508870575+509596640+510773729+511799324+512511731
3278+513057490+513493244+513716999+513668133+513479241+513428878+513631657
3268+513800035+513417756+512398673+511416008+511213862+511791544+512518243
3258+512923226+512946160+512498939+511507400+510380098+509831401+510214544
3248+511327555+512619028+513328036+512906630+511693756+510793551+511075391
3238+512444196+513949858+514484783+513653497+512223150+511344150+511132612
3228+510727111+509832611+509073873+508598531+507677985+506126512+504984977
3218+505176865+506324335+507349642+507736589+507971465+508822862+510132890
3208+510440258+508393965+504606271+501278474+499930299+500110951+500333726
3198+499787507+498735750+497605970+496524019+495657928+495213011+494996517
3188+494628472+494246481+494417106+495293224+496221492+496183748+494615045
3178+491990494+489406223+487493158+486279823+485796068+485920076+486070763
3168+485847700+485416267+484824121+483784812+482410331+481295044+480650892
3158+480034688+479156236+478291643+477728885+477524492+477866694+478911823
3148+480068196+480225798+479032258+477216750+475549597+474233143+473187293
3138+472289566+471369107+470388286+469643983+469327540+468835285+467259149
3128+464855615+463130809+463142477+464527619+466291207+467785113+468783913
3118+469228340+469135190+468525008+467367569+465675982+463738542+462278662
3108+462126621+463390146+464992214+465459718+464409201+462907861+462051681
3098+461669892+461036112+460208859+459680186+459315454+458679744+457883580
3088+457328774+457146826+457308923+457727044+458014646+457703101+456835281
3078+455915974+455295188+454960363+454823448+454827482+454761214+454335602
3068+453536383+452634104+451848974+451244468+450877200+450731670+450581473
3058+450256213+449887707+449514216+448741764+447353597+445883950+445017254
3048+444834614+445072458+445578715+446131907+446421699+446530637+446812160
3038+447122034+446800031+445675207+444509441+444000936+443860650+443375656
3028+442418375+441357744+440421697+439623775+438946489+438375635+438029717
3018+438110650+438392317+438194465+437332465+436521491+436352335+436499565
3008+436348734+435816401+435224688+434838490+434704197+434602635+434092862
2998+432973109+431691548+430968076+431069610+431641760+432097740+432004677
2988+431287141+430244115+429286459+428634383+428327275+428414201+428905361
2978+429537959+429811242+429359468+428245334+426893643+425792417+425150310
2968+424750773+424268257+423714691+423324834+423109781+422901498+422747757
2958+422871015+423249865+423499695+423229754+422504986+421845852+421657450
2948+421752069+421573808+420845179+419844247+419074763+418790100+418892181
2938+419185834+419456437+419314941+418502929+417434750+416757925+416387892
2928+415859075+415439023+415740801+416379853+416225046+414997392+413623170
2918+413022208+413282727+413865883+414097100+413579577+412456972+411204539
2908+410089857+409076853+408269049+408032127+408459007+409102813+409504828
2898+409590659+409344950+408620700+407550562+406665829+406282109+406087829
2888+405592463+404783103+404085418+403779290+403787588+404040817+404592943
2878+405190102+405201483+404306464+402942183+401814276+401266530+401241665
2868+401460378+401526386+401164160+400496239+399892885+399526856+399321541
2858+399290914+399508964+399705750+399390344+398505266+397504564+396728770
2848+396156245+395744866+395567845+395611841+395745557+395846717+395773649
2838+395328675+394493355+393637319+393218305+393246541+393291949+393039209
2828+392528861+391854312+391045384+390277052+389782752+389566373+389502180
2818+389574930+389718558+389669664+389307612+388876640+388628828+388534900
2808+388465694+388372112+388227389+388021613+387784950+387451623+386815251
2798+385744046+384358041+382964717+381898583+381354640+381292953+381540967
2788+381941513+382332580+382502629+382327797+381923650+381516823+381171885
2778+380770446+380267992+379799075+379453445+379117525+378606255+377841697
2768+376913919+376049844+375464815+375224897+375304245+375618556+375890571
2758+375774747+375262064+374662341+374191782+373901615+373836932+373898042
2748+373756517+373255331+372714298+372566434+372791658+372900395+372518001
2738+371845700+371350305+371114679+370812037+370276824+369747776+369480717
2728+369372960+369109992+368647443+368377416+368624969+369091351+369092589
2718+368306509+367041976+365882231+365267929+365254733+365485230+365517787
2708+365273778+365031929+365016687+365172129+365273317+365107791+364620435
2698+364001724+363575420+363497772+363580923+363466021+362978780+362287981
2688+361731821+361524835+361622018+361810190+361860899+361624150+361110690
2678+360517190+360027759+359568667+358948804+358257458+357852735+357899669
2668+358173672+358364754+358341445+358092797+357645460+357108922+356668903
2658+356466787+356465058+356415645+356069266+355483286+354983223+354791479
2648+354868148+355077842+355284079+355323235+355110861+354765692+354482066
2638+354298245+354086505+353787406+353562989+353596642+353798730+353906487
2628+353820396+353629718+353392191+353082403+352692835+352285490+351998291
2618+351977719+352249014+352696955+353117497+353213643+352775094+352018892
2608+351458237+351311785+351333567+351232062+350959500+350627556+350384411
2598+350319123+350352372+350287026+350022358+349687418+349548342+349740461
2588+350099661+350324309+350270228+350036188+349833812+349793849+349825514
2578+349730924+349507371+349368525+349415431+349499217+349466227+349352477
2568+349266156+349177645+348925309+348481286+348113528+348105173+348367680
2558+348548159+348492523+348385486+348430029+348560692+348536317+348252979
2548+347876866+347626575+347510607+347417572+347400199+347658355+348210481
2538+348782632+349093975+349072654+348790728+348393323+348066248+347914322
2528+347916396+348044495+348301326+348626470+348899839+349048798+349090489
2518+349087953+349084611+349082392+349107257+349215043+349378725+349512759
2508+349600002+349606369+349391834+348958270+348599502+348539832+348640473
2498+348688070+348721463+348861951+349062080+349197151+349222102+349157045
2488+349068908+349075420+349228787+349418572+349498958+349479740+349513421
2478+349703178+349962026+350078426+349932695+349650106+349542983+349860348
2468+350532620+351189449+351519809+351548736+351463423+351332559+351147384
2458+350961747+350827253+350707538+350556938+350405040+350331051+350397549
2448+350588573+350785504+350880238+350955495+351227625+351732240+352196662
2438+352324415+352114663+351847546+351815104+352053841+352294537+352251232
2428+351974982+351787156+351902721+352281802+352776102+353262450+353668009
2418+353967223+354205009+354494801+354895289+355284194+355463607+355417249
2408+355366539+355551081+356002134+356515479+356820657+356814577+356660519
2398+356641359+356887760+357281909+357668452+358056811+358470437+358714418
2388+358532383+357919175+357033578+355826121+353966704+351196018+347622023
2378+343602247+339480678+335508009+331782952+328156374+324470819+320951739
2368+318002562+315676101+313747103+312184278+311264394+311349390+312683736
2358+315325055+319170172+324070561+330016829+336762142+342993966+346685227
2348+346609825+343439977+339610995+337512870+337483078+338411692+339561697
2338+340847610+342138881+343005145+343176663+343063490+343529813+345060916
2328+347283539+349365212+350806335+351808967+352959894+354692596+356995777
2318+359431752+361492393+363120103+364760865+366753711+368861228+370587908
2308+371763268+372572197+373179296+373632827+374048269+374529949+374921044
2298+374979850+374822449+374867368+375311592+375929064+376415585+376722578
2288+376984624+377273090+377562710+377853856+378156239+378400018+378504087
2278+378463779+378301596+378072165+377916205+377905660+377900618+377756644
2268+377531794+377338206+377221200+377280207+377606677+378020966+378169521
2258+377954986+377640473+377502435+377556688+377635316+377610394+377512461
2248+377500447+377755549+378343776+379086667+379612286+379699731+379560252
2238+379594250+379898189+380218810+380353564+380344229+380288189+380208322
2228+380131336+380098519+380081606+380014820+379873122+379618596+379147230
2218+378408805+377531852+376745138+376201021+375904372+375765901+375678341
2208+375583694+375527481+375626220+375938659+376386082+376817082+377136003
2198+377383902+377692883+378097260+378441190+378596343+378689579+378961450
2188+379479232+380104080+380653296+381034019+381290418+381520396+381747521
2178+381958253+382214536+382583014+383005601+383387477+383765117+384249563
2168+384816239+385265103+385423108+385329959+385221452+385380293+385939334
2158+386696919+387183642+387087208+386593110+386185966+386196857+386644741
2148+387362450+388060567+388361941+388111996+387668060+387542151+387787140
2138+388104361+388423052+388874566+389337461+389541278+389506242+389490741
2128+389654019+390002847+390470756+390932786+391322787+391744913+392302772
2118+392879907+393288635+393615163+394193940+395150588+396176673+396914666
2108+397370300+397767763+398225846+398761348+399370608+399932962+400239350
2098+400266232+400277872+400567203+401174965+401886249+402432901+402682990
2088+402709785+402760725+403111368+403791189+404460004+404746137+404701882
2078+404711908+404970583+405286969+405428782+405435841+405498766+405718948
2068+406134736+406824756+407779675+408733038+409314755+409423693+409361113
2058+409519580+409965735+410460554+410898987+411453015+412184208+412880567
2048+413441423+414066358+414916026+415888348+416797311+417547204+418142894
2038+418680729+419296069+420057716+420943659+421898492+422868652+423806918
2028+424696261+425605887+426717285+428194365+429942712+431592002+432834293
2018+433730377+434613583+435734431+437081079+438530068+440052614+441706745
2008+443507414+445401376+447340401+449291671+451192577+452962446+454537661
1998+455862325+456922466+457859003+458960979+460426333+462147999+463806337
1988+465152927+466199613+467208583+468473751+470040380+471688200+473218122
1978+474686098+476322769+478266807+480417601+482567731+484643700+486710506
1968+488761927+490701211+492571922+494596951+496904050+499382351+501860940
1958+504284785+506678609+509070473+511452772+513703457+515657262+517417393
1948+519399722+521893351+524785681+527713393+530219814+531980405+533266750
1938+534913130+537485819+540687764+543815374+546588883+549182086+551611810
1928+553627561+555289500+557128979+559502173+562252402+565193310+568255458
1918+570935559+572572316+573516027+574919349+577239298+579801557+581848483
1908+583428250+584994360+586596139+587830910+588486385+589057671+590401870
1898+592803473+595580267+597711036+598775815+599175785+599564287+600281996
1888+601241727+602193102+603014707+603736335+604374062+604806416+604891757
1878+604766079+604823184+605294089+606153669+607482598+609370596+611185700
1868+611629118+610334188+608507444+607368848+607050186+607020798+606854033
1858+606470544+606045393+605779054+605554320+604995711+604033906+603158537
1848+602976618+603626907+604430937+604112160+602070189+599134526+596465259
1838+594596219+593394524+592435542+591567665+591035217+590982837+591160204
1828+591265253+591125687+590403022+588833225+586784282+584902680+583395577
1818+582023660+580577005+579193679+578197530+577702366+577504196+577331151
1808+577035712+576622431+576362604+576726731+577802862+578844535+578918639
1798+578139906+577677126+578546502+580679922+582674180+582844113+581328482
1788+579889895+579862984+581248385+583208529+585084887+586690354+587952958
1778+588948992+590120088+592021628+594752265+597502609+599156020+599682186
1768+599796455+599843418+600020728+600761775+602203647+603799318+605032936
1758+605984312+606880022+607910112+609481869+612037443+615384601+618295141
1748+619572381+619479202+619233435+619740586+621250685+623512203+625670517
1738+626967176+628033972+630201967+633280365+635304991+635725417+635551795
1728+635250075+634958209+635123475+636057851+637689998+640098861+643479614
1718+647108439+649250848+649618721+649898083+650948572+652052651+652469735
1708+652636442+653532786+655283235+657286194+659537801+662405180+665304886
1698+667244631+668124149+667946609+667092100+666918767+668382709+671212459
1688+674746838+678926377+683306794+685594128+684506645+682149413+680496867
1678+680333790+682125153+685470179+688605107+690332449+691271378+692207540
1668+692830112+692999584+693729683+695772517+698241713+699609365+699950846
1658+700485138+702062369+705182949+709684261+713079420+713685972+713884084
1648+715631364+718160489+718897618+717159558+714754094+713398946+713972134
1638+716630222+720437105+722893797+722194009+719706143+717550826+716692398
1628+717140369+718435875+720156130+721742927+722263561+721640932+721227767
1618+722189860+724210106+726099949+727494684+728624521+729507497+730299195
1608+731287219+732381272+733352988+734348331+735691089+737489770+739578820
1598+741722842+743991391+746833358+750534962+754830614+759215929+763360144
1588+767174404+770500702+772832637+773968121+774935170+777236622+781195058
1578+785816171+789712141+792011461+793219206+794443029+795603522+795311828
1568+792982371+790115453+788240420+787564546+787714138+788708098+790677865
1558+792249219+791595299+789166095+786193379+783976116+783606975+784865660
1548+786320555+787045467+787411842+788089272+789427305+791530760+793255049
1538+792834104+790940862+789454965+789254087+789986721+791147848+793007265
1528+795880291+799360676+802967085+807173535+812600868+817984464+821058771
1518+821936042+822351800+823276092+824949095+827810942+832389068+838476428
1508+844559928+848183336+849299170+851253321+855525290+860979879+866039051
1498+869789002+871904098+872775894+873788754+876001695+878841587+880701177
1488+881377166+882720155+885871449+889977344+893718248+897089896+901256470
1478+906896033+913362157+919584300+925277684+930289547+933588704+934908125
1468+935989327+939299260+946102774+954819813+962287734+967168098+970148651
1458+971771694+970971179+967681991+964512891+962193576+959133559+954247375
1448+948688947+944886039+944227741+946046475+948553760+950387765+951231902
1438+951315457+950956343+950664880+950905057+951498529+951838799+951295461
1428+949355082+946648936+945450526+947240678+950273669+951346804+949689187
1418+947834380+947950205+949472463+950719623+949885628+946215832+942031395
1408+941192675+944407874+948024309+949032675+949062351+950175074+950999734
1398+949763119+947873622+948081012+950615092+952755081+952614882+951223258
1388+950553204+951182114+952340072+953943926+956452998+959400878+962180149
1378+965110281+967876645+968875502+968315395+969089288+972864709+978251878
1368+983100376+987454229+992689039+997814710+1000133391+999693258+999233647
1358+1000343374+1002856134+1006181510+1009130254+1009896195+1008031015
1350+1005504541+1005139204+1008119180+1012824079+1015978311+1015116714
1341+1011218208+1008785661+1011520274+1018268757+1024692931+1027944548
1332+1028240160+1027370265+1026943385+1028079388+1031068470+1034210831
1324+1035115992+1033997276+1033552994+1035863723+1040544074+1045307058
1315+1048484109+1050515592+1052061188+1051887047+1048635315+1044877988
1307+1045616269+1052235558+1060859938+1067036213+1069893796+1071266749
1298+1071975757+1071327024+1068041755+1061177793+1051993191+1043405690
1290+1038830331+1039472264+1042596301+1044358218+1044006711+1043020415
1281+1041721336+1038717618+1033585724+1027971746+1022981262+1018481736
1273+1014898549+1012628042+1011772438+1012720586+1013998805+1012146649
1264+1006340091+1000732107+999316972+1000364925+998403744+991140908+981636837
1254+973957379+969503606+967338435+965934249+964407439+962527105+960383773
1244+957756975+953255605+945820300+937248992+930752730+927019433+923936366
1234+919460581+912811097+904312626+895636672+888720042+884065392+880816771
1224+877710771+873527486+868105858+863395945+861979889+864121664+867171193
1214+868239546+866890160+864891639+864197613+865691981+868869090+871949736
1204+873383425+873614959+874383666+876710415+880362808+884688079+889279055
1194+893870030+898126498+901567641+903525653+904051243+904413929+905825952
1184+908310937+911399305+915650644+921832681+928307679+931950737+932720653
1174+934120287+939016268+947033692+954735279+959203976+962086222+967662283
1164+977308224+987425647+993345609+994071674+991910537+989641642+989308344
1154+991691795+995393457+996956340+994205477+989985659+989109886+992394234
1144+996323511+998498017+1001440538+1008503418+1018339635+1025274359+1025704004
1134+1020789123+1012443183+1003962287+1001308694+1007395421+1018228651
1125+1027606294+1033857364+1039185065+1044235824+1046186748+1043254715
1117+1037596252+1033810804+1034473367+1036113236+1035404689+1034881577
1108+1037366446+1040903533+1043243651+1046274798+1052422491+1058687276
1100+1058522356+1051558244+1044395098+1042412941+1046192972+1053031463
1091+1059798270+1063784135+1062123060+1055426094+1049642586+1050109457
1083+1056035412+1062003663+1064270713+1061934168+1054391970+1044184539
1074+1035087295+1029173441+1027231506+1027974743+1027441028+1022575357
1065+1015593382+1010019741+1006614037+1005646873+1008283755+1014249701
1057+1020253564+1024691778+1030090472+1035684397+1034244023+1023033700
1048+1009981594+1003252473+1003444131+1007220704+1011568333+1013541846
1040+1011362269+1006640429+1001971948+997361207+992085599+988129238+989396048
1030+997589745+1008811938+1016057833+1017105325+1015899136+1014139178
1021+1008959802+999919606+991412318+987377243+988147563+992092283+997776332
1011+1004257093+1010270406+1014572051+1016464313+1014641315+1007300686
1003+995118935+981898797+970992845+962830611+956147474+950163434+944901598
993+940553104+937351966+935386982+933693868+930307583+924783096+919346197
983+915476503+911675382+906370097+900581115+896425778+894805905+894770293
973+894482921+893154108+891569039+890419206+889448009+888497959+887622359
963+885910633+882165119+877168354+873316005+871747417+871600764+872205126
953+873996431+876808261+879291286+880959276+882859260+885375189+887683326
943+890224264+895102093+902843094+910889273+916592107+920262018+923639487
933+927100452+930313461+933702915+937777866+942250136+946524122+950575793
923+954902965+959463112+962651746+962293323+958327512+953412573+950555451
913+950895204+953416492+956365006+958592583+959462247+958255885+955308754
903+953030122+953270645+954898470+956124713+957962290+962925057+970522978
893+976334606+976239411+970919547+965805805+965860433+971037216+977080494
883+980544744+982518487+984740706+985662462+984031583+982191989+982467317
873+983889712+985010963+986831196+989542183+989818318+985592276+980474212
863+978612260+980463379+985059137+991722221+999791449+1007455695+1010927783
853+1006418460+995534521+986182117+984653233+990642689+999559339+1005364514
843+1003541170+996421127+991648231+994394254+1003497606+1013885516+1021947600
833+1027580363+1030500180+1029080551+1025196796+1025580228+1034583083
824+1045303716+1045040604+1032918436+1019717083+1013157723+1012206002
815+1012230435+1010806772+1009340698+1011598413+1020502501+1034492268
807+1048389029+1058735220+1065346557+1068873733+1069242412+1065738516
798+1060976915+1059069440+1062135622+1068948990+1071942450+1063000676
790+1044035868+1024123373+1010096611+1003953528+1004736180+1009499971
781+1013408734+1012293476+1006918408+1002259493+1000848162+1001296708
773+1002560752+1004722926+1007079640+1008328125+1008283294+1008137044
764+1008854004+1011149405+1015442867+1020406499+1023509330+1023392238
756+1018925788+1009257719+997713752+990886094+993780556+1005598353+1017920707
746+1020291481+1011315593+999029658+991961476+991922638+995954832+1001897152
736+1009567852+1018824023+1028956889+1040544304+1052685027+1058291975
727+1052360372+1041318658+1033266256+1029755215+1027150948+1020847093
718+1009784749+998490180+992692381+993243845+994674307+991419924+987985754
708+995664636+1020308077+1053394035+1073741823+1068830630+1051154183+1039172273
698+1038784347+1044163333+1047749862+1043529006+1028525515+1011607517+998411005
688+987850683+981702644+984440023+996557004+1010515539+1015114986+1008915777
678+1003095274+1005367511+1011745124+1015416475+1014888753+1007598834+987179246
668+962288079+957470525+975374703+994300442+999689339+995735860+991188045
658+986656825+980130541+974708567+973891341+975960510+979781224+984777125
648+983121928+970560088+959113564+962031191+975072406+983392300+984948038
638+990463133+1002113012+1010310167+1013049274+1013826624+1010506204+1000811974
628+988735099+982485987+985345068+988174992+976234686+948591158+920282590
618+903730967+901252148+910106852+926860044+947722071+967254650+977678978
608+976483277+974054763+981671066+994627056+996721464+987509663+975648879
##END=
