##TITLE=<SNM>
##JCAMP-DX=4.24
##DATA TYPE=INFRARED SPECTRUM
##DATE=29/4/2025
##SAMPLING PROCEDURE=Instrument type and / or accessory
##ORIGIN=Admin
##XUNITS=1/CM
##YUNITS=ABSORBANCE
##RESOLUTION=4
##FIRSTX=4497.3318
##LASTX=599.83466
##DELTAX=-1.4281778
##MAXY=2.1525493
##MINY=0.39514834
##XFACTOR=1
##YFACTOR=2.0047177e-09
##NPOINTS=2730
##FIRSTY=0.40219983
##XYDATA=(X++(Y..Y))
4497+200626666+200541454+201059240+201670801+202397174+203243738+203542175
4487+202639104+201192128+200773395+201930348+203503776+204069966+203312479
4477+201929575+200936030+200890629+201440094+201905998+202178820+202583386
4467+203251929+204109079+205031282+205728829+205887049+205493930+204807517
4457+204202259+204054877+204418531+204861898+204912413+204481103+203735256
4447+202907616+202306431+202055120+201832946+201372736+201116697+201792480
4437+203303203+204585359+204710130+203754478+202555973+201923688+202047389
4427+202447034+202476737+201856509+200750278+199594469+198921838+199056450
4417+199881667+201049547+202195158+202859390+202666904+201770241+200787919
4407+200195193+200083816+200389537+200961064+201560510+202103301+202591013
4397+202627330+201659815+200052969+199051500+199273644+200112121+200810069
4387+201270621+201579836+201492408+200709069+199322330+197943232+197400293
4377+198064094+199410932+200367848+200206001+199232717+198552460+198873315
4367+199666109+199901573+199395679+198876139+198906362+199275829+199401834
4357+199023299+198380221+197799284+197376492+197117436+197109215+197441844
4347+198053004+198619625+198658916+198040278+197351517+197300779+197823218
4337+198210317+198071423+197843154+198283220+199539405+200812894+201142104
4327+200450994+199463915+198758311+198408809+198394760+198771943+199456883
4317+200239152+200970237+201463761+201386577+200636404+199647318+199010306
4307+198997818+199605202+200632182+201460535+201297202+200114069+198942947
4297+198785768+199490079+200060001+199999867+199854923+200324959+201386725
4287+202454111+203056544+203144284+202857562+202213131+201187698+200117859
4277+199627368+199917227+200457788+200642410+200492203+200451633+200644639
4267+200629000+200064431+199415615+199472240+200251268+201027070+201467017
4257+201998524+202923121+203837891+204194306+204083375+204176660+204916352
4247+205946662+206528431+206385524+205865062+205453999+205369277+205471928
4237+205483315+205300893+205046490+204834351+204658752+204490780+204376728
4227+204471930+204842453+205127689+204716121+203522106+202286540+201808268
4217+202147468+202846695+203550143+204122830+204573421+205057981+205597368
4207+205873179+205757387+205674954+205862876+205893947+205462711+204925450
4197+204693509+204762681+205020474+205464643+206071017+206741790+207361245
4187+207878882+208333101+208636102+208499319+207914457+207443365+207598255
4177+208179638+208597078+208584665+208288711+207945631+207774567+207936741
4167+208365241+208826878+209185538+209347132+209107624+208428333+207690336
4157+207335155+207379679+207440407+207140766+206604739+206563501+207559603
4147+209039330+209788046+209291429+208205639+207561417+207846043+208739555
4137+209565485+209943798+209872693+209380343+208625502+208169723+208518392
4127+209453514+210265663+210554943+210472153+210314439+210171591+209913634
4117+209390392+208678173+208198815+208455865+209446348+210431064+210644793
4107+210195183+209791004+209705450+209636471+209509782+209699354+210332546
4097+210910956+210853826+210140446+209191588+208350464+207775682+207664900
4087+208162066+209037754+209831009+210327462+210630002+210826918+210820169
4077+210494363+209947990+209468900+209249744+209207584+209136063+208927522
4067+208649362+208525870+208796730+209444921+210084669+210272933+209986448
4057+209679226+209731525+209948153+209856370+209387642+208912893+208707325
4047+208788657+209211776+210046834+211012804+211492785+211042298+209842857
4037+208617653+208035705+208226199+208900614+209713938+210267195+210117315
4027+209319109+208702434+209025772+210017325+210765818+210871546+210716121
4017+210740620+210895852+210804098+210230327+209418816+209016257+209511952
4007+210717399+211962108+212773440+213161356+213309407+213241023+212814024
3997+211977182+211037793+210524527+210628099+211010797+211334104+211643289
3987+212103796+212706379+213288698+213570738+213290542+212651181+212446579
3977+213310106+214843841+215828437+215458078+214163836+213063016+212843221
3967+213370462+214160342+214917636+215571476+216054714+216345286+216567772
3957+216695650+216401302+215657685+215204834+215838620+217309011+218385435
3947+218288092+217673215+217627086+218109698+218130541+217308535+216255317
3937+215563047+215514688+216407367+218138970+219615128+219624821+218448422
3927+217542988+217719761+218381243+218655938+218773826+219600485+221177822
3917+222326005+221790469+219680539+217378852+216141338+216148831+216930327
3907+218508883+221528172+225971677+230320247+232808802+232973905+231173487
3897+227990106+224646826+222699278+222784743+223731609+223706456+222986164
3887+223596268+226026682+228226269+228898499+229340037+229961573+229140682
3878+226968508+225804820+226727350+228754476+231246167+234099907+235674212
3868+234691593+232830759+231968585+231506859+229931112+227443465+225380765
3858+224979008+227783928+235072284+243374596+244603650+238605924+231504272
3848+226987596+225890850+227442454+230029318+232437506+234890635+238060383
3838+241071109+241961618+240373548+237689073+235150732+233219730+232025894
3828+231484173+231295047+231900840+234755517+239726947+242971383+242083550
3818+240026082+239064558+237406394+233642567+229829116+228658768+231185290
3808+235997519+239752873+241215860+242778242+245845772+248101597+247764063
3798+246388548+245064484+243228938+241049241+239946370+240689987+242637193
3788+244878658+247198705+249644624+252214793+255362421+259594560+264235933
3778+267945321+270670484+273583019+277756497+283579724+290292301+296173298
3768+300289957+303024813+304820697+306494203+309713485+315185754+321170903
3758+325516113+328942689+334195950+343279907+355982033+368722424+377219943
3748+382373363+388044303+395527211+401691823+403705554+403677249+405193353
3738+410444533+419238393+428100458+432470257+431401772+427963631+425512420
3728+425482955+427298432+429154643+429621587+428569781+426600885+424445391
3718+422755057+422175071+423667656+428019259+433926837+437495116+436365769
3708+432278544+428320625+426722936+428195036+431499680+434439390+436078912
3698+437022047+438134566+440190755+443896634+449472133+455955029+460524807
3688+460317930+456189170+451539621+448852217+448815141+450787485+453961307
3678+458348738+463342853+466055975+465833013+465933538+467146908+465984796
3668+460850077+454999793+451326827+449979454+449805253+450297885+451980370
3658+454956652+457593778+458384951+458889536+461789941+467056077+470887039
3648+469848167+465474146+461274563+458877019+457792419+456958877+456438207
3638+457060561+458613532+459865585+460653428+462937544+469089669+477948256
3628+483113718+481162959+476240706+473144604+473799545+477570003+481894876
3618+484718751+487226809+491569195+496887986+499872593+499221279+497095696
3608+495775021+495523725+495732386+496064940+496105138+495402537+494662116
3598+495671583+499226215+503744497+506630898+507339832+507906289+509843342
3588+511671039+511061707+508824955+507358801+507146573+507266155+507446214
3578+508114474+509418825+511095245+512568059+513264803+513581094+514775139
3568+517020454+518474061+517760012+515882544+514226342+512798305+511295699
3558+510338145+510632077+511788838+512692815+512788017+512509070+512537791
3548+513013982+513482383+513519846+513292454+513358994+513946740+514608519
3538+514815634+514837992+515264174+515662169+515086672+513655484+512181897
3528+510909181+510025421+510207323+511258356+511735260+511030786+510161833
3518+509985045+510309007+510702661+511064145+511419861+511669136+511701246
3508+511743109+512182848+512641081+511970442+509917434+507750909+506471771
3498+505777167+505277369+505481986+506930003+509034804+510382624+510105104
3488+508867650+508267000+508790168+509180849+508418040+507038704+505943014
3478+505268747+504926827+504738503+503807588+501324415+498125083+496121580
3468+496322510+497933846+499325104+499629027+499225145+498757130+498233695
3458+497633848+497599359+498519540+499351566+498489273+495759561+492576938
3448+490421563+489959316+491117623+493042277+494101991+493042871+490400215
3438+488179993+487979866+489429072+490578519+490111783+488709524+487655101
3428+487102737+486497122+485933548+486263219+487875298+489854481+490763899
3418+490180643+488865647+487517144+486075787+484355037+482921618+482901995
3408+484599078+486652770+487364945+486671590+485861269+485712995+485862310
3398+485621033+484830335+483837310+482779647+481530330+480528236+480728899
3388+482289244+484092115+484857867+484260637+483043223+482290671+482452682
3378+483144045+484047190+485348567+486951341+488209964+488844389+489374633
3368+490334299+491427849+491780799+491199595+490866445+491999777+494174032
3358+496173463+498029792+500652706+503847727+505996591+505540559+502475408
3348+498705634+496634133+496909721+498046442+498580075+498716486+499279317
3338+500237407+501112247+501718843+501712064+500544243+498467955+496500190
3328+495337631+495084759+495696915+496845469+497668010+497544235+496752527
3318+495748173+494651085+493854233+493958831+494724851+495140626+494773790
3308+494138324+493726712+493578259+493759358+494400681+495034839+494747031
3298+493584562+493002049+494005837+495565885+495884317+494751848+493606266
3288+493665077+495083421+497498953+500263928+502261693+502611165+501890338
3278+501589151+502106313+502500086+502292198+502004450+501742628+500846441
3268+499298999+498096957+497801270+497934411+497946482+497735205+497360788
3258+497015805+496989225+497024873+496316593+494969101+494395716+495364420
3248+496882189+497708119+497773233+497528329+497157271+496879602+497006975
3238+497428726+497559904+496878888+495444964+493946730+492990989+492303610
3228+491060953+489099313+487411089+487212686+488634391+490447370+491202687
3218+490647230+489649893+488868621+488125732+486978456+485580033+484769593
3208+485141512+486198313+486730311+486215409+485371283+485011613+485028233
3198+484815410+484098448+483123024+482476706+482632800+483232082+483170477
3188+481871864+479936269+478233625+477085338+476480288+476356008+476360259
3178+475899678+474827506+473642440+472815737+472366899+472070470+471650146
3168+470791956+469393264+467787964+466419986+465346416+464286583+463273726
3158+462996295+464031362+465699308+466197857+464360110+461011344+458173110
3148+457106943+457271243+457193850+456350764+455666686+455953810+456609702
3138+456358851+454880686+453144029+452229556+452205711+452275760+451842948
3128+451057989+450374922+449912318+449297992+448232004+447176660+446956285
3118+447554021+447918240+447203062+445728791+444538196+444336879+444818659
3108+444963515+444175552+442939258+442052377+441566434+440925973+439853592
3098+438729210+438191711+438499053+439246728+439766774+439789787+439511315
3088+439073628+438290898+437041105+435762056+435232615+435756229+436709800
3078+437133364+436804467+436409980+436511397+436762545+436463914+435497202
3068+434322335+433443630+433202710+433602191+434025280+433629218+432329802
3058+431024024+430575960+430852707+431047631+430750310+430227558+429779792
3048+429455116+429281629+429124108+428500505+427175995+425633876+424435223
3038+423658112+423364983+423837397+424876419+425613450+425502787+424899610
3028+424269674+423461047+422213217+420958905+420479801+420816904+421075158
3018+420476084+419201852+417996212+417287069+416919342+416613308+416425698
3008+416570226+416872216+416752782+415893581+414612332+413497642+412968766
2998+413130004+413690277+414042009+413727413+412815140+411689123+410667495
2988+409932783+409568980+409486086+409447762+409325295+409208596+409142590
2978+408922632+408312170+407418153+406703332+406493720+406509448+406138391
2968+405261618+404424984+404039358+403916831+403776258+403660956+403653404
2958+403646031+403526656+403223239+402606920+401644549+400557986+399717665
2948+399452097+399825890+400422645+400604993+400183004+399536061+399038463
2938+398733470+398533878+398358399+398084833+397672596+397315453+397193343
2928+397053631+396420752+395336538+394418289+394001325+393802565+393615253
2918+393634549+393880434+393953040+393566432+392890233+392265768+391832570
2908+391492166+391176945+391006640+391037769+391075232+390860030+390181869
2898+388897527+387274061+386084833+385872515+386338656+386758534+386760824
2888+386493383+386221541+385996231+385747283+385589524+385815429+386457466
2878+386976382+386641627+385385888+384095065+383720113+384235936+384801978
2868+384761334+384123073+383282514+382655017+382442788+382511618+382532877
2858+382291303+381873565+381607106+381706500+381952475+381907430+381448603
2848+380909172+380689719+380801601+380778797+380128643+378985410+378123058
2838+378087855+378502679+378527564+377911841+377190954+376827745+376623307
2828+376116760+375217807+374306961+373909947+374254454+375001505+375487924
2818+375304655+374587276+373769047+373145117+372714149+372382991+372141120
2808+371957821+371741787+371483890+371181484+370689595+370004387+369477562
2798+369351260+369339248+368971104+368120020+367065241+366264523+366033356
2788+366242551+366428110+366296010+365947578+365590733+365259308+364873771
2778+364459393+364190465+364109624+363895730+363219769+362299885+361697927
2768+361586223+361627551+361544479+361386780+361243084+361018963+360536201
2758+359758139+358911634+358262313+357737629+357041093+356197204+355634196
2748+355623938+355916354+356037394+355809467+355415159+354966559+354312035
2738+353474569+352930321+353034502+353426640+353473082+353135086+352925088
2728+353104046+353355640+353260616+352801462+352308115+351992181+351632838
2718+350880941+349872782+349179130+349038229+349055592+348782770+348217085
2708+347664691+347398915+347416635+347410213+347152375+346846818+346807542
2698+346955429+346933993+346517534+345714259+344704257+343799179+343281899
2688+343196835+343339549+343459311+343466119+343415277+343326170+343161156
2678+342967600+342819206+342628118+342252897+341745428+341238078+340685060
2668+340003152+339394207+339228926+339584969+340088394+340259651+339944015
2658+339404940+339026033+338913765+338827482+338535898+338141263+337923623
2648+337926448+337870135+337517065+336954711+336405557+335961328+335661717
2638+335577456+335629369+335620271+335576267+335708248+335961715+335989128
2628+335632163+335127370+334784142+334669614+334667592+334693043+334715728
2618+334648058+334409397+334108389+334007507+334275424+334819731+335327290
2608+335470837+335111731+334309349+333269703+332367183+331978167+332138483
2598+332552266+332973333+333349980+333626400+333653070+333352270+332883720
2588+332583692+332670273+333004225+333220437+333106890+332794880+332552682
2578+332441929+332289968+332025381+331847226+331938474+332198750+332382078
2568+332336677+332041913+331568041+331066786+330724568+330650208+330775975
2558+330914468+330962188+330980563+331039313+331106092+331134962+331117182
2548+331027331+330871089+330789414+330960107+331351115+331673709+331670349
2538+331404395+331143882+330994388+330842665+330671259+330664807+330905073
2528+331224991+331514226+331909902+332486379+332958259+332931529+332383833
2518+331739685+331479142+331720091+332160068+332401583+332292495+331961309
2508+331658129+331609250+331844550+332097928+332055024+331740755+331467665
2498+331408111+331448874+331454494+331433265+331439092+331488864+331571757
2488+331648377+331671717+331637376+331557545+331408230+331189610+331011395
2478+331045527+331377695+331892835+332324666+332481473+332391028+332166461
2468+331872290+331611688+331513542+331497159+331303692+330903110+330623390
2458+330731110+331062950+331207538+330982674+330626333+330497236+330659960
2448+330861812+330912446+330919909+331062029+331299470+331457853+331481253
2438+331491867+331670409+332109583+332691947+333139655+333277285+333159129
2428+332900162+332575278+332322317+332305667+332525209+332825296+333085988
2418+333284956+333416907+333462011+333442953+333469920+333670107+334050381
2408+334491488+334893081+335232830+335496644+335689993+335920001+336327629
2398+336899171+337425371+337698997+337729145+337736637+337960848+338469833
2388+339117281+339639735+339765830+339275903+338110252+336478996+334690872
2378+332839419+330896480+329060815+327603848+326421072+325202528+323962488
2368+323001424+322516403+322467761+322601467+322645411+322770524+323618635
2358+325627252+328576210+331949683+335599904+339602243+343282464+345239079
2348+344663405+342298536+340119107+339650171+340565685+341568284+341969014
2338+342009212+342260895+342911882+343669131+344263120+344753850+345371536
2328+346210252+346985786+347218500+346877264+346574352+346886718+347817871
2318+349028060+350213661+351205111+351938723+352402961+352608202+352609005
2308+352506726+352463585+352701591+353296354+353963693+354312422+354316644
2298+354275583+354392669+354683628+355168649+355837623+356482009+356852651
2288+357010023+357271369+357756836+358241144+358528595+358662092+358631200
2278+358232254+357451070+356671076+356233716+356040218+355818773+355557903
2268+355413464+355356824+355201027+354902843+354609476+354433164+354357109
2258+354363353+354507703+354828097+355288559+355839675+356417698+356909469
2248+357290427+357725469+358297129+358760089+358849464+358682042+358549615
2238+358463749+358192234+357655925+357035295+356489591+356004570+355584335
2228+355359857+355377429+355480510+355538815+355634077+355924085+356446985
2218+357107604+357771197+358372649+358989354+359793907+360908537+362306099
2208+363840280+365350199+366771695+368202765+369820850+371652591+373493221
2198+375158699+376700997+378269846+379919655+381646411+383439441+385200895
2188+386748187+387998753+389110410+390344355+391756247+393106802+394131611
2178+394811973+395318758+395752135+395984730+395796465+395174408+394376397
2168+393671119+393128210+392654754+392091299+391294061+390280163+389295463
2158+388570414+387970537+387115529+385932604+384755090+383788645+382922398
2148+382085615+381404391+381228466+382292730+385299516+390057975+395615426
2138+401328852+407196321+413275127+419433852+425521310+431423922+437140381
2128+442818813+448542586+454201960+459603882+464549623+468909908+472717739
2118+476055564+478917703+481338052+483511951+485710349+488277456+491724695
2108+496547107+502832135+510240445+518379691+526849142+534924702+541702511
2098+546594348+549418549+550324786+549723661+547850057+544655571+540360222
2088+535340774+529418479+522083310+513258916+503372488+493050037+482797784
2078+472739533+462928238+453797780+445863657+439260554+433821318+429253472
2068+425261658+421777730+418853212+416349197+414138074+412340287+411012745
2058+409982763+409120945+408443765+408057009+408143738+408745874+409688236
2048+410978315+412956487+415967733+420261299+426049234+433372986+442221553
2038+452781742+465068985+478434644+491853227+504488634+515847281+525722530
2028+533998247+540470112+545156737+548575344+551294710+553403435+554561861
2018+554411238+552988017+550743951+548060323+544975906+541415833+537322603
2008+532568902+527072074+521031386+514904117+509091117+503636985+498273982
1998+492808641+487455688+482723215+478871945+475576311+472400081+469519745
1988+467467897+466280423+465446168+464592170+463778578+463239266+463184470
1978+463748133+464869423+466232911+467466648+468534242+469896482+472010381
1968+474603236+476818759+478275161+479484785+481002970+482778577+484583766
1958+486551829+488945746+491720770+494522077+496929820+498773751+500410864
1948+502541294+505573680+509216111+512619258+514969171+516269657+517390798
1938+519077624+521283633+523591386+525882133+528371014+531180171+534096839
1928+536854975+539594380+542621295+545614494+547805102+549239086+550850035
1918+552939851+554671573+555549505+556260818+557506061+559052194+560319856
1908+561279908+562340336+563732219+565300533+566606489+567195008+567108190
1898+567102006+567940751+569478559+570947210+572151126+573521066+574915506
1888+575484580+575040084+574454122+574599512+575641566+577029821+577799350
1878+577377331+576276110+575523172+575647156+576661558+578386085+580042643
1868+580222999+578399999+575700971+573441325+571945439+570844277+569783017
1858+568627505+567327970+565895176+564456079+563244552+562506718+562391535
1848+562976011+564194138+565234230+564400955+561133210+557269987+554752801
1838+553712293+552980525+551842198+550980916+551421607+552877770+553675485
1828+552858979+551198318+549239026+546435281+542789104+539525401+537639667
1818+536943696+536650001+536398289+536492183+537180543+537898991+537699429
1808+536618842+535832901+536302610+537949536+539952831+541317658+541498548
1798+540963726+540923944+542428987+545497349+548385593+548698554+546632286
1788+544753450+544775214+546445687+548653659+550792295+552809029+554623406
1778+556269380+558377214+561939844+567062046+571604470+572845551+571309229
1768+569489560+568632024+569036441+570945902+573650758+575290726+575303570
1758+575197664+576171215+578307532+581736189+586591217+591570289+594317662
1748+594418632+593712433+593559669+594127613+595482153+597648261+599707215
1738+600858089+602369792+606102252+610866122+612730092+611210421+608856404
1728+607093405+606367523+606927023+608538448+610931473+614837926+621348681
1718+629421326+634664538+634227594+630622507+627165902+625131269+624782035
1708+626306939+629412169+633015234+636809775+642044722+648844889+654036070
1698+655520420+655021632+653102063+649637906+646941197+647163237+649935644
1688+654055753+660059276+668321494+674105059+672400810+667103426+663668347
1678+663697307+666488743+670287565+673592773+676695862+680172626+682309954
1668+681064353+678405939+677868084+680049178+682209756+681676955+679667654
1658+679610985+683849427+692874098+703815127+708957546+707229095+705766628
1648+706629457+706574511+703062724+698550686+695849517+695443851+697545084
1638+702574402+708944048+711627675+708268533+703596595+702016329+704003450
1628+707679954+711210295+714392352+717541586+720346877+723121247+727480105
1618+734526931+742461203+747080634+747099484+744692782+741768146+739381424
1608+738130591+737940662+738326883+739105688+740533249+742926036+746465475
1598+751114935+756227741+760482120+762827812+763533951+763839301+764583140
1588+765766422+767201476+768890383+770786880+772709958+774816484+778018641
1578+783302645+789536831+792660376+791480781+789992090+791128514+794063081
1568+796559752+798599142+801567069+806138214+813087757+823889461+836954141
1558+843098654+839269327+834269146+832450131+832502162+832336732+831539850
1548+831031846+831690414+833761499+837560618+843624082+849900309+850315727
1538+844121977+838229771+836113790+836044336+834863492+832324839+830833651
1528+831772356+834481791+837737584+841564592+846307709+850523912+852566751
1518+853518775+855068358+857317598+859907450+862856704+866508055+872114118
1508+880910624+889138888+889138353+883235146+878926655+878635458+881456626
1498+885913005+890365282+893354853+895198189+897431434+900493314+902784298
1488+902589790+900818346+900037995+901476081+903802566+904674789+903872199
1478+903882605+906999252+913415696+921582533+928308846+930108535+927414205
1468+924027054+922544488+922435490+921830262+920906185+921374765+923512271
1458+924827980+921883245+916068104+911877293+910247434+909346430+907645867
1448+905377896+903741258+903349269+903907223+904886542+905867942+906639908
1438+907495482+908881180+910711078+912719368+914787717+916366794+916793153
1428+916509865+916789704+918243371+920527754+923225415+926042897+927890752
1418+927475156+925583118+923974309+923052671+922680424+923079073+923952545
1408+924264971+923413501+921287114+917583435+913123369+910644775+912227835
1398+916554880+920192256+921461702+921249176+921110148+922077515+924259738
1388+926667689+927933448+927794241+927299795+927792101+930132321+933979726
1378+938159953+941770630+944302504+945189534+944437904+943022474+941689877
1368+940847326+941645516+945285450+951109867+956390660+958672368+958074334
1358+956738348+956880171+959329806+963209678+967271392+971193960+975108202
1348+978663577+981223103+982816688+984197451+986252897+990106545+996856168
1338+1005896537+1014032572+1018046061+1018348616+1018673648+1022337486
1330+1029155196+1035609221+1038793658+1039505922+1039815969+1039982469
1321+1039647804+1039535892+1040477451+1042398745+1044602495+1046366089
1312+1048168098+1052015681+1058592916+1064980342+1067989834+1068915456
1304+1071025371+1073741823+1073539406+1069803735+1065598415+1063015877
1295+1061337316+1059285320+1056328632+1052157444+1047087392+1042782171
1287+1041176752+1042267329+1043806386+1043349342+1040165739+1034988056
1278+1028533198+1021947875+1017246622+1014887551+1012789767+1009262102
1270+1004813929+1000061655+994629168+988966375+984857387+982731773+980274289
1260+975559359+969931055+965829322+962739255+957829044+950566541+943511509
1250+937963482+932032624+923806085+914086870+904737405+895980027+886659045
1240+876372600+866214004+857516565+850707894+845410748+840874449+836121521
1230+830687963+825493631+821983687+820299953+819164778+817680963+816271182
1220+815485003+815114600+814965998+815262072+815866408+816202560+816271539
1210+816988263+819212528+822580888+825633729+827511614+829298221+832835757
1200+838270385+843810919+847842841+850253705+851683229+852514303+853044844
1190+853922122+855907400+859707114+865889447+874093866+882032182+886511693
1180+887003582+886925981+889221009+893071446+897196787+903200489+912766404
1170+923966876+933362842+940556545+947237903+952936672+955862854+957212101
1160+960053903+964369650+967312898+968220800+969104263+970485204+971193603
1150+971246407+971258181+970494064+968182684+964728160+961093817+959007033
1140+960943253+967754243+976420997+982290310+983385049+981215194+978844646
1130+978534956+980004559+982112749+986131471+993537402+1001438255+1004364735
1120+1000851580+994316207+988545724+985987983+988254170+995282919+1004915970
1110+1014432411+1021670415+1023414743+1016752711+1004558113+993518849+988274507
1100+989805774+995591480+1000486944+1001282221+999617099+998088032+997134818
1090+996551711+996746397+998615957+1002583301+1006348110+1005774398+1000840519
1080+996262833+994640228+994134543+991923479+986846054+979784303+972604871
1070+966743467+962538087+959413234+956684711+954092302+952112555+951266080
1060+951291174+952749418+956714563+961324003+963443730+963679565+964918565
1050+966462320+964387429+958971711+954840067+954745994+957837369+962930314
1040+969597520+974840434+973908925+967157875+960605495+958669513+960887772
1030+964293476+965971798+964121564+958908857+953225906+951493471+955482282
1020+961706002+964916781+964332782+963681409+965141973+966399109+963806938
1010+956451552+946481100+936889912+929495815+923809712+918113560+912265060
1000+907794528+904697624+900595117+894034709+886536311+880214713+875455243
990+871822267+868982368+865958009+861764165+857727426+856514710+858116918
980+858959350+856165773+851251042+847201161+844644134+842695962+840672270
970+837999406+834215093+829573958+824669693+820032780+816353183+813986680
960+812702249+812524688+814237679+818442762+824228883+829343890+832145376
950+833027173+833463285+834513782+836885222+841347428+847897430+855134066
940+861061534+864551855+866764049+870783425+878605488+888679110+897612681
930+903947005+908512382+912092197+914559136+915799325+916441303+916872538
920+916261482+913875415+910924436+909893502+911719474+914871800+917045758
910+917165163+916192147+915543450+914663080+912054556+908399578+906162528
900+906342170+907620298+908941418+911161639+915259091+920152534+923482182
890+924148302+923349101+923212690+924788317+927451548+929759004+931055327
880+932184199+933588688+933882739+931950682+929045967+927491627+928058620
870+930214798+933982045+939700080+945846794+949454319+949327006+946619474
860+942897896+939471677+937767666+939097171+943828870+950729176+957173152
850+960507200+959791011+956654206+954312558+954994615+958507949+963366486
840+968417628+972664633+974257148+972193794+967949108+963479944+960708249
830+962189686+968494039+976000168+979405098+977097821+973276343+973923196
820+979787335+984929696+984550016+980978942+978637770+978448138+979303295
810+981412972+986000114+992916178+999737574+1003060206+1001700493+998179845
800+996174944+997095215+999533968+1001914803+1003502739+1002126258+994958541
790+983561896+973270575+967860684+967360172+967909445+964079285+954897866
780+945099862+939729455+940642471+945191734+948330740+948797594+950583429
770+956372999+962121658+961444300+954809502+948448003+945942174+946296998
760+947923052+950587710+953813652+956490144+958048943+958448722+957337749
750+954423162+951713549+952902777+959025467+966545392+972233992+977210506
740+981638164+981657490+976407677+971165120+970125861+972764295+977025928
730+980856267+982112452+980275359+977370822+975579041+975935173+980081803
720+989976556+1003428647+1011421492+1006037587+992804206+984254775+982928125
710+980512503+973107523+967644531+969623862+975972041+979109858+973500345
700+961565904+951641359+947715521+945858984+941628807+937120396+936460996
690+938438662+938381755+937901164+943157577+951211670+950975834+940756643
680+930866706+930006911+937371396+946059141+950151955+946644924+933160366
670+911851604+896243752+901139751+919034723+931268448+933141040+932830993
660+936976433+942715637+943063445+937949092+934542378+934855279+936824502
650+940382909+940589489+936813798+934065592+933541117+932977454+927147447
640+912245496+892999018+880282324+884130858+905879062+930160032+933667062
630+916725899+899735619+894606935+899244562+905330027+906838757+905190881
620+903512320+902531039+904117013+910599939+919372599+919885420+905213834
610+884632678+871576204+869689875+876352382+889636129+906096226+917107839
600+917059970
##END=
