##TITLE=<SNM>
##JCAMP-DX=4.24
##DATA TYPE=INFRARED SPECTRUM
##DATE=29/4/2025
##SAMPLING PROCEDURE=Instrument type and / or accessory
##ORIGIN=Admin
##XUNITS=1/CM
##YUNITS=ABSORBANCE
##RESOLUTION=4
##FIRSTX=4497.3318
##LASTX=599.83466
##DELTAX=-1.4281778
##MAXY=2.0984704
##MINY=0.42334694
##XFACTOR=1
##YFACTOR=1.9543529e-09
##NPOINTS=2730
##FIRSTY=0.43348929
##XYDATA=(X++(Y..Y))
4497+221807071+220772473+220683052+221258145+221889051+222184641+221883866
4487+221165811+220909137+221834657+223579257+225138915+225856634+225549301
4477+224207890+222224091+220579922+220163192+220926185+222014856+222730578
4467+223122406+223477072+223567881+223010370+222169544+221792752+221908890
4457+222146061+222778948+224157827+225374408+224988969+223150556+221641815
4447+221632589+222509815+223158348+223396678+223572105+223601460+223276957
4437+222783477+222147402+221030017+219672228+219063495+219585476+220309706
4427+220206103+219459837+219037145+219345392+219877254+220021435+219675187
4417+219081962+218588894+218483065+218682784+218827285+218748066+218492840
4407+218188847+218239139+219049283+220289989+221164912+221468813+221638598
4397+221919335+222207850+222551796+223154033+223844639+224041536+223407337
4387+222234811+221060638+220136948+219365963+218566112+217761976+217179777
4377+216887205+216698314+216617447+216974614+217865274+218829024+219293286
4367+219191146+219062474+219405398+219933234+219889712+219103936+218148711
4357+217660493+218083246+219491952+221087034+221655524+221045221+220308730
4347+220164259+220235778+219857125+218868763+217627234+216762863+216738709
4337+217290440+217617825+217344163+216897453+216781269+217017251+217507772
4327+218364823+219545538+220532375+220755120+220247901+219574527+219116319
4317+218775590+218419461+218161048+218064703+218014777+218016790+218197737
4307+218436753+218433703+218198545+218074158+218252390+218590206+218845645
4297+218760265+218135658+217275511+217014109+217833510+219235003+220322104
4287+220712239+220596452+220207933+219567070+218679261+217830140+217537813
4277+218125303+219353291+220478240+220836124+220508616+220206164+220350589
4267+220623626+220612708+220396535+220130360+219592765+218653338+217858671
4257+217999955+219110432+220344642+220921778+220776972+220315287+220031469
4247+220255419+220807974+221104799+220861636+220383604+220068021+220043089
4237+220288022+220681146+220982211+221064252+220992169+220777628+220387919
4227+220053092+220164838+220714481+221233243+221474913+221647488+221754095
4217+221439336+220874841+220895047+221729239+222510852+222499644+221936720
4207+221445588+221470170+222182201+223098068+223249554+222446500+221674250
4197+221750008+222419494+223094546+223617212+224020477+224236574+224239639
4187+224129890+224019105+223986258+224108923+224439022+224926219+225343498
4177+225440285+225319313+225431272+226059250+226954088+227514557+227306040
4167+226517183+225834172+225660209+225669190+225420506+225106205+225297720
4157+226157851+227183787+227705920+227531499+226964747+226272647+225528242
4147+224985691+225042021+225679377+226359583+226579797+226370013+226185361
4137+226351364+226717390+226908890+226767072+226398560+225973854+225589925
4127+225191967+224689673+224221690+224040515+224137713+224339125+224668950
4117+225202184+225768844+226192284+226538425+226853733+226980988+226842632
4107+226653313+226668105+226885116+227136392+227318361+227398023+227379800
4097+227392228+227601158+227935130+228067097+227760771+227141638+226587253
4087+226390844+226554071+226881807+227169651+227313451+227404260+227629567
4077+227978774+228259145+228379614+228354483+228177379+227925706+227745537
4067+227612229+227377406+227060894+226871819+226961896+227243183+227454277
4057+227473156+227451670+227491775+227430550+227168019+226986935+227299483
4047+228122314+228894427+228926756+228120149+227021886+226156219+225613607
4037+225238126+224934347+224810005+225111664+225889419+226727226+227113915
4027+227132001+227396452+228186925+229050762+229477160+229497045+229351797
4017+228971466+228053952+226534308+224896437+223994599+224433517+226084289
4007+228185492+229811057+230393637+230064026+229376058+228638698+227821783
3997+227037395+226595961+226595534+226827779+227074648+227312460+227691067
3987+228402351+229444664+230387263+230531566+229655972+228508073+228149626
3977+228891835+230113875+230954732+231045861+230676708+230262967+229798461
3967+229128990+228568445+228725192+229724853+230899636+231372438+231012084
3957+230549652+230470341+230279604+229475086+228690591+228966861+230227146
3947+231276536+231316824+230870266+230974647+231790891+232400722+232094854
3937+231320652+231145560+232209406+234224725+236110655+236710787+235812761
3927+234366100+233525290+233574865+233941456+234266416+234831963+235702266
3917+236127886+235309126+233485779+231785889+231127597+231453960+232047169
3907+232531530+233254662+234648836+236550533+238345273+239452914+239461972
3897+238289064+236496795+235200399+235387720+236825156+237800419+237361745
3887+236734118+237258203+238392545+238905025+239052088+239447287+239413449
3878+238421915+237403192+237319733+238093219+239399709+240919826+241593963
3868+240915861+240252673+240854636+241936978+241916346+240662313+239135502
3858+238252237+239170895+243147460+248471216+249879678+246713730+242628545
3848+239896803+238969484+239560222+241041377+242666043+244188111+245773647
3838+246972280+246960065+245944880+244863285+244184756+243847688+243822496
3828+244081657+244371056+244797896+246282894+249170742+251461645+251274705
3818+249997188+249490289+249258623+247917502+245719329+244137087+244464015
3808+246645520+248753555+249378909+249779414+251434883+253252633+253513258
3798+252928054+252799076+252963310+252790339+252543820+252914803+254144681
3788+256020318+258218856+260384457+262417938+264928597+268608382+272889016
3778+276306026+278633970+281121663+284877450+290260998+297020939+304159457
3768+310539936+315821741+320021463+323162341+325960631+329707848+334868879
3758+340564609+346154936+352350961+360218878+369700710+378833183+385583151
3748+390983198+397855861+406627446+413370887+415879899+417164675+420002765
3738+424932070+431447139+438445547+444059510+446791862+447098645+446795979
3728+447237291+448270638+448565619+447358736+445473843+444119226+443404557
3718+442451237+440875873+439828405+441002594+444231368+446711163+446634246
3708+445760711+446567211+449505427+452900265+454497528+453755105+452179466
3698+451521707+452787055+455942542+460012707+463994517+467419000+469843440
3688+470734024+470210915+469030688+468011157+467734079+468312847+469646024
3678+471844471+474183455+474321612+471541988+468430876+467443734+468193964
3668+468395437+467109228+465205944+463507946+462070800+460898197+460505195
3658+461251796+462543769+463550155+464601710+466708082+469762467+471662944
3648+470633471+468111893+466535827+466703934+467911000+469030261+469585820
3638+469943017+470550332+471620643+473597123+477157262+482153450+486422098
3628+487527696+486494379+485798802+486431095+488591785+492383713+496750688
3618+499615952+500579030+500837626+500728961+499951892+499411643+500423062
3608+502593084+504468339+505724203+507123104+509061552+511083901+512604307
3598+513987837+516320233+519719585+522823530+524461172+524955429+525333182
3588+525835735+526242096+526702439+527177848+527673569+528846232+531175457
3578+533603068+534056458+531842152+528735706+527119413+528088530+531497764
3568+536241912+540324063+542074061+541465069+539717389+538033206+536856028
3558+536135046+535902038+536103206+536118211+535620172+535514281+536728728
3548+538568148+539258693+538051566+535896975+534135937+533502851+534024434
3538+535119876+535986824+536246975+536321635+536986500+538382168+539868295
3528+540909571+541569313+541998242+541909309+540820882+538767729+536543786
3518+534976351+534104706+533484186+533233245+534049016+535834271+537122462
3508+536766973+535421383+534347108+533748729+533063003+532193676+531634945
3498+531720829+532443580+533777336+535580829+537263121+538319098+538866605
3488+539082900+538662937+537463191+536107719+535271331+534919990+534725715
3478+534460806+533735981+532442787+531317640+530907315+530399516+528720274
3468+526613993+526216660+528349596+531391507+533045741+532340557+529855669
3458+527136980+526032145+527209444+529090342+529518844+528295980+526738183
3448+525549843+524518875+523600507+523070140+523007069+523129307+522729655
3438+521040105+518371921+516466259+516538784+517453188+517177909+515789073
3428+515264134+516509323+518227847+518658362+517483625+515870137+515151778
3418+515786877+517282213+518888869+520170656+520891456+520868948+520196031
3408+519297426+518306289+516934349+515276699+513927572+513349871+513579402
3398+514051762+513717621+512336165+511262011+511737482+513227817+514523572
3388+515273955+515398388+514580665+513358960+513264598+515002641+517508573
3378+519338965+520255564+520909999+521453114+521239198+520066291+518797069
3368+518312694+518683615+519635531+521008874+522565269+524055726+525352518
3358+526179574+526445276+527015169+528948280+531902782+534351011+535270904
3348+534719737+533086426+530931530+529168235+528604563+529390507+530890418
3338+531959997+531799332+530749882+529853534+529419175+528489706+526419169
3328+524419023+524345644+526275766+528531794+530124238+531741995+533905674
3318+535717523+535995546+534487034+531647023+528330077+525803773+525041434
3308+525860744+527235612+528265970+528446032+527780801+527279651+528157151
3298+530100022+531587307+531980553+531896988+531808603+531710765+531686427
3288+531706800+531515392+531376563+532088762+533753243+535365205+536054408
3278+535998596+535845189+536004574+536635586+537521564+538015029+537971294
3268+538379851+539972416+541674410+541830257+540646553+539760330+539728856
3258+539767711+539484686+539086865+538369847+537161134+536186161+536051541
3248+536157005+535603459+534358636+533086548+532611199+533450454+535122438
3238+536116015+535265293+532867264+530240314+528740098+529014401+530555241
3228+531881617+531559065+529496946+527180288+526214159+526858041+528413582
3218+530489669+532731607+534007965+533536765+532133716+530929761+529843469
3208+528289454+526259846+523981188+521622563+519794367+519276382+519936307
3198+520719384+520830154+520411350+520123933+520403176+521025832+521397424
3188+521238649+520598671+519363547+517446844+515439805+514173328+513711521
3178+513413369+512750273+511686305+510407233+509124988+508187315+507908315
3168+508060777+507884252+506915958+505598214+504763351+504704672+504968635
3158+504964609+504578683+504015011+503246146+502098979+500759855+499622326
3148+498774745+498050560+497300909+496397059+495308906+494261835+493611487
3138+493583398+494119682+494666793+494325363+492792422+490910457+489717542
3128+489266440+488772763+487728558+486621527+486290955+486653429+486754683
3118+486258596+485962914+486428960+487023283+486783443+485630543+484258084
3108+483177220+482297159+481399682+480658205+480324583+480186303+479915538
3098+479707356+479898337+480186608+479946952+479100468+478124550+477475361
3088+477334885+477611536+477933508+477858390+477236924+476374002+475747901
3078+475552406+475680804+476050292+476592219+476968477+476724124+475803438
3068+474579659+473383512+472334489+471484346+470774983+470001727+469084030
3058+468284392+468035037+468520236+469282605+469318502+468097681+466480137
3048+465815607+466106074+466006497+464807666+463425600+463161575+464321674
3038+466116047+467319880+467065554+465391314+463142819+461350458+460634051
3028+460885418+461359821+461297421+460618984+459882417+459596678+459764480
3018+459997488+459933319+459464742+458509684+456893787+454789397+452986820
3008+452240097+452432542+452857720+453210464+453658730+454012237+453672607
2998+452613733+451672582+451425301+451319807+450457770+448856360+447372185
2988+446690760+446786952+447138873+447203804+446704972+445692150+444458612
2978+443355546+442616783+442302863+442372155+442726974+443080694+442905847
2968+441906993+440611086+439981995+440244281+440556921+440200333+439655449
2958+439924079+440997287+441661786+441053435+439787598+438959719+438610299
2948+437954492+436760144+435627037+435038356+434900382+434969765+435177246
2938+435455178+435549357+435136561+434139446+432942689+432148053+431954907
2928+431924012+431569834+431016440+430738142+430798377+430738325+430174776
2918+429204774+428200858+427435440+426965398+426709029+426504750+426215656
2908+425953980+426016379+426365983+426441832+425771813+424579447+423575897
2898+423235291+423325505+423205829+422670552+422240951+422398964+422893556
2888+423068861+422544319+421396603+420002369+418820982+418115981+417804166
2878+417573933+417157965+416617442+416368941+416749195+417570548+418288358
2868+418508465+418145412+417244642+415895728+414333844+413015367+412431231
2858+412686503+413298118+413640432+413604566+413564491+413718233+413849621
2848+413759559+413506544+413163284+412666343+411904402+410849615+409753593
2838+409088027+408996958+409062439+408886310+408548235+408286986+408059133
2828+407540568+406520976+405319705+404557794+404350344+404198553+403878655
2818+403738088+403899730+403915741+403416238+402540965+401656999+401050264
2808+400839215+400919456+401010799+400865962+400453013+399926306+399401916
2798+398809211+398034307+397126583+396266406+395627403+395351210+395509527
2788+395968467+396404655+396576148+396476266+396126601+395438893+394480572
2778+393657298+393335723+393384093+393320535+392851317+392095322+391377420
2768+390939097+390755741+390583577+390282894+390039638+390091211+390301315
2758+390219823+389569780+388531706+387527668+386826662+386425272+386228314
2748+386149780+385996739+385504129+384640018+383718021+383107351+382901365
2738+382847230+382575398+381981807+381335119+380938793+380831133+380837111
2728+380733935+380419893+380073309+379993556+380172032+380229095+379857106
2718+379135879+378368204+377746555+377234670+376718637+376207941+375815701
2708+375528193+375150836+374627300+374255372+374315973+374569628+374453764
2698+373754344+372763421+371869513+371331856+371284614+371573526+371728854
2688+371468794+371094640+371050539+371285163+371403954+371236061+370874899
2678+370396287+369868970+369383161+368869446+368213150+367583541+367260960
2668+367192155+367084282+366847401+366688078+366827303+367211247+367483629
2658+367306341+366675756+365829090+364995264+364358945+364043409+363956671
2648+363802075+363380404+362815909+362408999+362309574+362399850+362455906
2638+362332479+362043903+361758651+361658037+361743829+361800830+361548151
2628+360875509+360012648+359389505+359247413+359448977+359643831+359556239
2618+359205233+358871764+358751966+358746537+358693287+358607343+358598437
2608+358723846+358916078+358960331+358690176+358223673+357814994+357554599
2598+357381246+357259466+357234426+357392347+357733380+358053248+358081886
2588+357752686+357212559+356630588+356145023+355905428+355963436+356120106
2578+356066886+355748056+355394946+355184995+355122961+355207350+355393573
2568+355489796+355378720+355185696+355039426+354912308+354784215+354679392
2558+354551238+354409725+354466330+354862169+355362800+355598157+355488545
2548+355187526+354776682+354312313+354025140+354155429+354609642+354971018
2538+354907612+354520221+354208253+354199500+354366722+354518787+354631601
2528+354734167+354787021+354726909+354543400+354339548+354294319+354468313
2518+354727397+354910143+354908466+354631723+354168178+353889880+354105839
2508+354700253+355312386+355718198+355853977+355675378+355263955+354926277
2498+354906392+355087491+355219122+355297229+355429714+355501568+355322237
2488+354996240+354841583+354995325+355296436+355505258+355530328+355489003
2478+355577357+355820154+355990061+355896309+355671871+355591721+355688279
2468+355746226+355637987+355487569+355489552+355664277+355820978+355740401
2458+355382990+354933962+354670914+354733710+354961746+355068796+355022377
2448+355032503+355134123+355126560+354992977+354976081+355149098+355274233
2438+355176791+354978002+354870892+354854941+354810200+354756431+354866561
2428+355173283+355443377+355503581+355524228+355755711+356154417+356509693
2418+356770607+356999375+357163335+357210485+357227046+357339646+357539319
2408+357685223+357645026+357457065+357375817+357640940+358175089+358652663
2398+358882652+358987597+359236464+359836276+360828877+362098708+363603774
2388+365678459+368967193+374061555+381368912+391239812+403941482+419506526
2378+437781657+458540427+481354361+505454871+529824621+553292960+574686798
2368+593191705+608276032+619305170+625807064+627783727+625351479+618461706
2358+607046947+591157461+570551763+545157084+517977760+495446759+482940187
2348+482408478+493138396+511677308+531748095+547718767+558008075+563888106
2338+567222862+569167319+569775457+568624508+565703127+561601823+556825651
2328+551307636+544838681+537435254+529170613+520322355+511605393+503525939
2318+495625083+486953289+477306461+467576311+458750103+450937662+443640096
2308+436625249+430109418+424284619+419044810+414114011+409332715+404888030
2298+401197663+398455399+396388278+394542697+392684033+390821221+388991866
2288+387236042+385739729+384739107+384210173+383873654+383566444+383371559
2278+383351247+383418008+383494650+383559368+383546772+383423315+383322792
2268+383422705+383699020+383934254+383967315+383851604+383795487+384019985
2258+384599608+385335626+385877033+386079512+386134928+386268663+386495663
2248+386768136+387125272+387539257+387782817+387613063+387027341+386282418
2238+385702491+385433251+385311898+385035216+384486001+383779505+383005578
2228+382137227+381234719+380497816+379993952+379548248+379060213+378730586
2218+378781213+379109468+379391975+379415458+379221092+379049111+379149909
2208+379557184+380137477+380867060+381816689+382888922+383911106+384959611
2198+386237677+387704620+389129231+390379543+391453483+392408144+393365642
2188+394388650+395359780+396160729+396838465+397457186+397997770+398498767
2178+399037644+399504391+399660024+399467122+399147133+398909581+398808997
2168+398842454+398980154+399089064+399013580+398750837+398389278+397929240
2158+397333972+396654376+395937084+395140130+394265894+393437191+392749239
2148+392148115+391542508+391062067+391123277+392034966+393568090+395202408
2138+396772436+398559581+400823844+403560923+406626104+409857501+413163650
2128+416627629+420460760+424787446+429501829+434365867+439241067+444150395
2118+449094583+453973352+458765383+463589071+468499376+473455183+478606211
2108+484434639+491477117+500035793+510284111+522412594+536277596+550961906
2098+565103833+577698942+588264626+596573978+602869885+607864243+611763464
2088+613753241+613084045+610090138+605485428+599249237+590882365+580295942
2078+567944943+554504296+540821492+527858267+516252770+505978041+496621222
2068+487989991+480290730+473740313+468292810+463785420+460020789+456684416
2058+453498400+450451518+447705442+445447401+443885943+443089325+442815510
2048+442758387+442873396+443322363+444335825+446214527+449255553+453733116
2038+460052568+468637076+479525128+492360473+506814948+522673294+539434668
2028+556136936+571768527+585807065+598248950+609195742+618635364+626504745
2018+632676647+637076651+640003461+641927910+642851951+642321889+640129176
2008+636658579+632474869+627694427+621850506+614473247+605729050+596287598
1998+586737510+577391884+568366431+559522137+550636305+541906503+533997596
1988+527441842+522266202+518185027+514839779+511874602+509092812+506594627
1978+504560414+502956717+501646749+500647408+500112130+500218966+501074965
1968+502476733+503874292+504912793+505815271+506935813+508280426+509697687
1958+511194823+512825482+514507774+516176402+517926218+519826024+521778044
1948+523748424+525963157+528651836+531665627+534516191+536845293+538797435
1938+540806487+543067821+545409428+547724379+550265872+553274478+556499013
1928+559354396+561530274+563264962+564990135+566906777+569017205+571295070
1918+573542498+575338915+576481690+577248054+578078708+579244845+580751283
1908+582372335+583820277+584961222+585882335+586765142+587687048+588578150
1898+589427165+590373713+591491419+592731484+594101289+595483294+596374640
1888+596412214+595986883+595733198+595765221+595814689+595835672+596104790
1878+596682247+597084399+596835959+596214340+596042512+596764288+597841369
1868+598049612+596811743+594937250+593444536+592356719+591045959+589268085
1858+587344977+585608642+584162347+583032930+582214170+581561626+580866201
1848+580175901+579898731+580245559+580544565+579769601+577858388+575590039
1838+573634603+572195322+571183568+570544566+570254526+569984554+569186777
1828+567802149+566260943+564601951+562441628+559920568+557841370+556632718
1818+555850922+554994588+554328869+554351499+554886014+555266634+555189534
1808+554960796+555008983+555500862+556288940+556979973+557199379+557048778
1798+557140029+557962083+559494262+561387420+563017986+563653207+563364448
1788+563164989+563809115+565079678+566479189+568174230+570456852+572813220
1778+574565292+576025861+578107194+581029978+583804296+585330375+585778579
1768+585804625+585600164+585528432+586423987+588582725+591095366+593047508
1758+594638854+596240569+597723828+599190070+601159962+603607032+605582413
1748+606483763+606905190+607726512+609289982+611473119+613918420+616111560
1738+617972695+620334247+623796731+626864505+627263302+625908563+625146896
1728+625779737+627483256+629775211+632045208+633818934+635665917+638938640
1718+643996434+648662873+650295331+649217517+647431103+646407577+646821867
1708+648887341+652227588+655586499+658005449+660208837+663456124+667400727
1698+670653442+673025364+674391327+674317216+673781237+674319351+676295525
1688+679207391+683194752+688698799+693826801+695530137+694712841+694224134
1678+695580032+698980238+703543958+707732487+710916033+713653386+716050195
1668+717412742+718142386+719708723+722408807+724709302+725497137+725893616
1658+727319965+730068116+734160452+739206291+742461020+742249666+741029486
1648+740480332+740151803+738868003+736539572+734036141+732072105+731128972
1638+731621460+733312109+734287753+732767773+730036031+728121280+727544739
1628+727939205+729089727+730875774+732559225+733218052+733151199+733659547
1618+735329212+736928610+736694382+735240950+734395412+734722233+735572773
1608+736214215+736434352+736287960+735971387+736011523+737056093+739226786
1598+741892042+744330877+746446613+748497752+750417505+751962432+753280817
1588+754800430+756716340+758865563+760965012+762870613+764656722+766507426
1578+768432912+769715797+769133155+766875420+764415906+762484198+760910969
1568+759662486+759058374+758847081+758359411+757770121+758280054+760558285
1558+762687867+762748254+762105957+761898141+761619691+760666067+759528598
1548+759304801+760638069+763498270+767577737+772652427+778126769+781576626
1538+781183136+779203119+778361973+779279243+780851313+781967372+782871345
1528+784356129+786792646+790183581+794728270+800660149+807223527+812893852
1518+817241643+821013686+824963168+829487545+834324409+838718010+842702809
1508+847417313+852735320+856005115+856440449+855976019+856441364+859111865
1498+864114458+869439723+872895253+875226063+878420100+882647484+886451367
1488+889135287+891768886+895536902+900344244+905076437+908676713+911232540
1478+913785562+917029738+920778480+924945172+929819488+934386197+937161430
1468+938537091+939937821+942107417+944307511+944698683+942018422+937004302
1458+932521402+931385459+932436251+932935327+933350410+935390570+938652252
1448+940600796+939960207+938331226+937577428+937944507+938863789+940208769
1438+942677737+946857482+951217290+953028773+951653600+948520438+945453397
1428+943484603+942634124+942967106+945006290+948422477+951446638+952441130
1418+951377895+949003655+945872262+943125697+942088142+942684934+943544258
1408+943549381+942686215+941623773+941086574+941390887+941954742+941533254
1398+939759650+938304205+938990968+941206738+943025053+943936589+944147943
1388+943276543+941834395+941761138+943865711+947325816+951825428+957432377
1378+962959969+966562135+967904736+968039112+967733152+967611585+968857079
1368+972337374+977011925+980778783+983313201+985942590+989108995+992283208
1358+995278823+998106086+1000340887+1001454566+1001397534+1000894128+1001144459
1348+1002925016+1005941614+1008883307+1010375228+1010344180+1010006441
1340+1010391880+1011707825+1013940796+1016896640+1019867551+1021973161
1331+1022987050+1023955496+1027000579+1033802943+1043207187+1050998919
1322+1053943723+1053302402+1052327551+1051900940+1050768107+1049306868
1314+1049922325+1053360715+1057550952+1060630559+1062675050+1064592058
1305+1067393763+1071157266+1073741823+1072644124+1067712654+1061010813
1297+1055388005+1052567757+1051977186+1051581805+1050326124+1048958332
1288+1047968842+1046152235+1041867331+1034913451+1026616055+1018731851
1280+1012636135+1008809501+1006512910+1004430784+1002528842+1002333347
1271+1004169534+1005515124+1003674728+999077277+994119944+989763979+985180130
1261+979945201+974553327+969156695+963080376+956154189+950004978+946534016
1251+945347994+943514430+938468835+930708638+922520671+914944867+907318985
1241+898965716+890035661+881265845+873773058+868424309+864845626+861626337
1231+857924624+854223947+851246388+848836526+846176882+842763135+838866293
1221+835355926+833365845+833462707+834739981+835628277+836107773+837850513
1211+841440053+844868562+846032015+845768814+846673884+849652175+853329551
1201+856449721+859295527+862631808+866623256+870983064+875157808+878254433
1191+879820404+880692292+882267718+885367271+889892807+894924068+899329928
1181+902691523+905346592+907821416+910969400+915809924+922388917+930078785
1171+939248130+950715042+962610274+970289162+971923084+970990808+971478051
1161+973985569+976438738+977063773+976420012+976693888+979294304+983946287
1151+989537437+994398456+996455695+994687641+990576274+986502114+983836065
1141+983289107+985290717+989168772+993102822+995419054+995381846+993531447
1131+992068134+993314054+996853150+999823268+1000810562+1001720573+1004499710
1121+1008221674+1011290363+1014312389+1018295480+1021408818+1020600794
1113+1016772939+1015234294+1020494354+1032036841+1043458372+1046873827
1104+1042147550+1036708099+1034594559+1032725495+1028639563+1025060392
1095+1024373446+1025369646+1026120273+1025387579+1021415345+1014805182
1087+1009159561+1006322295+1005616196+1006137047+1007795368+1010586033
1078+1012869509+1011938637+1007109459+1000338203+993219814+986128203+980609822
1068+979261183+982337801+986880538+989495532+989373600+988230885+987866551
1058+987916813+986523280+983658626+981978956+982798022+983010717+979513770
1048+974828972+973050061+973650879+973692784+972915746+972367384+971457434
1038+970615922+973501986+982680908+994323674+999820767+994428710+981727589
1028+968292127+959006338+956181027+959305467+965558616+971879105+976762387
1018+980068231+981912348+981997072+980414205+978331835+976747016+975383860
1008+973113436+968893189+961965721+952490537+942789056+935855610+931849644
998+927752184+921132932+912834194+905069667+898862631+894332703+891660006
988+890410975+889059956+886456796+883052442+879893417+876938366+873238970
978+868902280+865289744+862892936+860651120+857711257+854389127+850869184
968+846744580+842409597+839177681+837586702+836963375+836681997+836664857
958+836921044+837449154+838512267+840410366+842868415+845428390+848331777
948+852069113+856371096+860704614+865212339+870008640+874301535+877340335
938+879693225+883030056+888813163+897123002+906457527+914820311+921366916
928+927031385+933300332+939652844+942749103+940353392+935348970+932672796
918+933709254+935802604+936138513+935175190+935383068+937461839+939160356
908+938026791+934726132+932011103+930745175+929329622+927518688+927829772
898+931840617+937502890+941414493+942399591+941526544+940313257+940213222
888+942109247+944975182+946184748+944672028+942661329+942796864+945048744
878+947390899+948487012+948842318+949584954+951873738+957238224+965176593
868+972029706+974921138+974291163+972465650+971463351+971263281+969985520
858+966398664+961583942+957182473+954006979+952792716+954529966+959673827
848+967092624+974794752+980959517+984026985+983520041+981048755+979242213
838+978923504+979225805+980818736+985419176+992018238+997189609+999544024
828+1000368640+1000556205+1000529611+1000705465+1001006728+1002128825
820+1005590150+1010840084+1014869533+1016864190+1020004184+1025020744
811+1026964225+1024063704+1022750260+1027737298+1033637031+1031400766
803+1021181788+1011629383+1008546787+1010710222+1014429746+1017269270
794+1018125787+1017543085+1016366639+1014204363+1010991234+1007142214
785+1002294675+994869046+984757300+975907273+972366164+973176080+973276359
776+969314738+962758374+956935009+953416530+951866357+951640120+952936180
766+956280086+960076405+962612043+964695145+967517833+971397230+976168156
756+982611188+992725069+1005512135+1013653684+1010409569+999063248+987676180
746+980429760+977995682+980382426+987556017+997454213+1004642321+1005303770
736+1002913610+1004472871+1012294736+1020900837+1022314804+1014798899
727+1004742721+1000679419+1006152480+1016646370+1023078667+1021076264
718+1014852210+1010027424+1005826757+999265391+992809916+990069878+990599330
708+992782101+995206724+995259121+993103554+992839072+996071903+999740800
698+999999244+995563800+987730163+979428680+972321393+964817199+957167590
688+956012615+967382664+987590114+1003978492+1007696248+1004337215+1002433443
678+1000486669+991993595+976361394+959346518+947002899+940613483+938392101
668+941881302+952575140+963451420+968290114+968116334+965168541+958907829
658+949319740+940286784+936312842+939116804+947621284+959841629+974695023
648+986835827+983295878+962078748+940005162+931078340+934852761+939219706
638+934013933+921597179+910612081+906840648+913085440+927848803+942497552
628+946833754+940373887+932842611+931495314+934333556+936148699+935809801
618+937469951+941877215+942178356+934333617+923571829+916765866+915818158
608+917399623+915470415+906870170+895685918+888908989+887396512+884289823
##END=
