##TITLE=<SNM>
##JCAMP-DX=4.24
##DATA TYPE=INFRARED SPECTRUM
##DATE=29/4/2025
##SAMPLING PROCEDURE=Instrument type and / or accessory
##ORIGIN=Admin
##XUNITS=1/CM
##YUNITS=ABSORBANCE
##RESOLUTION=4
##FIRSTX=4497.3318
##LASTX=599.83466
##DELTAX=-1.4281778
##MAXY=2.1182666
##MINY=0.38277704
##XFACTOR=1
##YFACTOR=1.9727895e-09
##NPOINTS=2730
##FIRSTY=0.40023062
##XYDATA=(X++(Y..Y))
4497+202875481+202842322+202831853+202405330+201607742+200469106+198896907
4487+197327684+196753706+197806884+200033867+202113318+202975487+202823982
4477+202655890+202865087+202912961+202397399+201747948+201563450+201795579
4467+201871354+201424589+200753308+200509471+200975376+201713867+202001090
4457+201652579+201265440+201415253+201802619+201661432+200884087+200107844
4447+199718077+199478560+199183617+198965990+198898493+198883825+198860334
4437+198715415+198324303+197936756+198031505+198672996+199358824+199609188
4427+199527898+199573294+199907212+200242354+200310183+200197608+200059669
4417+199833839+199495872+199321375+199649538+200448893+201194363+201307134
4407+200801664+200225797+199928196+199724391+199249240+198357296+197312215
4397+196720682+197065523+198263408+199754952+200891504+201207037+200545092
4387+199029755+196989853+195050607+194028323+194305289+195350928+196179062
4377+196359995+196316699+196525655+196866885+197088349+197413415+198150772
4367+199097388+199789728+199942638+199407559+198260991+197081914+196540731
4357+196627837+196839240+197064722+197613276+198426409+199034000+199343975
4347+199751160+200329883+200579883+200187759+199543957+199247382+199447274
4337+199860140+200151261+200125806+199723847+199010162+198128384+197272454
4327+196790989+197077654+198067338+199080030+199481143+199286826+198936487
4317+198795904+198989043+199401304+199836332+200288400+200857378+201369782
4307+201412972+200846728+200010119+199355652+199082130+199123492+199317855
4297+199546495+199818597+200287161+201073600+202000411+202636946+202706815
4287+202354829+201973521+201829055+201888017+201973596+202003054+202090507
4277+202474489+203230186+204039119+204480325+204525585+204471986+204528138
4267+204737637+205059319+205265843+204984254+204056431+202834557+201996936
4257+201922551+202287695+202514884+202503010+202562848+202813483+203064738
4247+203193295+203351055+203815072+204645336+205492413+205857632+205546827
4237+204828368+204270659+204284316+204645517+204797007+204650880+204588565
4227+204811585+205323007+206232309+207372260+208035594+207796032+207178320
4217+206952430+207285744+207879014+208380284+208476377+208019581+207184710
4207+206329792+205812841+205843251+206202609+206440313+206630853+207290547
4197+208305219+208815236+208413745+207595325+206953729+206586425+206287629
4187+206022099+206180115+207182429+208678354+209656784+209553364+208716589
4177+207897580+207793495+208758722+210531054+212389086+213617200+213794477
4167+213003823+211895309+211165520+210955944+210955280+210809289+210332219
4157+209757274+209753769+210729253+212222716+213349570+213686222+213469909
4147+213202491+213224184+213470891+213631173+213487131+212890039+211714769
4137+210266445+209299284+209241788+209816235+210556886+211248032+211826649
4127+212262900+212519593+212476040+212078236+211582978+211373690+211524424
4117+211817026+212241675+213106004+214390753+215408778+215595436+215261895
4107+215030189+215003133+215056218+215394381+216203073+217177786+217784668
4097+217711551+217028910+216144640+215522320+215270854+215161028+215169850
4087+215658280+216725024+217751992+218025272+217592813+217128010+217137663
4077+217616560+218249032+218672926+218765258+218722431+218627968+218263368
4067+217706264+217556134+218108661+218886837+219362139+219573466+219741196
4057+219853589+219822213+219567741+218992825+218270484+217926535+218273007
4047+219030713+219718203+220099602+220169244+220067863+220111506+220556458
4037+221237967+221688524+221702120+221622341+221921333+222569093+223054138
4027+223042914+222707108+222317158+221911982+221568758+221590708+222148507
4017+223028563+223832088+224195192+223921595+223230237+222736686+222827236
4007+223171064+223160626+222724918+222366285+222448315+222810437+223163315
3997+223486175+223762808+223694103+223104126+222367373+221925351+221723450
3987+221656211+222090014+223261115+224576953+225218610+225230393+225394437
3977+226108409+226878971+227006125+226473417+225825491+225366263+225043508
3967+225006180+225539038+226448053+227185516+227567912+227862085+228231640
3957+228475432+228322159+227836479+227447527+227535659+228025690+228434553
3947+228391876+228157496+228340151+228912121+229017188+228258243+227420320
3937+227290689+227766610+228529091+229542281+230466297+230642713+230161595
3927+229983895+230751542+232040022+232934866+233143505+233079785+232985413
3917+232509356+231256498+229533565+228220249+227860589+228101269+228374005
3907+229041298+231071154+234399188+237426282+238904971+239204748+238914004
3897+237942569+236455647+235341861+235351952+236097694+236379222+236098465
3887+236621201+238565916+240535330+241157529+240874581+240114911+238353320
3878+236174648+235477821+237011090+239506020+241538913+242697566+242635916
3868+241472564+240562945+240883992+241583251+241159871+239590527+238017724
3858+237617140+239798184+245825195+252993411+254348768+249541698+243792937
3848+240182483+239098638+239712363+241037492+242691705+245077701+248261119
3838+250843638+251319529+250113501+248451584+246716399+244887961+243367427
3828+242634284+242749865+243929079+246929252+251324801+253951945+252952940
3818+251003920+250368865+249649892+247297629+244794390+244384938+246694328
3808+250264342+252614127+253211899+254036180+256057184+257351223+256467149
3798+254702929+253276827+251970763+250534978+249501635+249299371+249820129
3788+250970670+252739105+254614978+255941678+256966395+258417060+260090640
3778+260971270+260713549+259989516+259914647+261625269+265366259+269792037
3768+273425740+276177182+278301576+279784781+281266173+283621578+286462150
3758+288810636+291323483+295770531+302994641+312124733+320290323+324486539
3748+325611081+327136917+330573629+333285643+333087926+332586263+335252474
3738+342260800+351876874+360258822+364430444+364675414+363510567+363393158
3728+365643058+370267156+376097705+381727274+386355632+389566921+391467222
3718+393118777+395981615+401199829+409255865+418992037+427392053+432580295
3708+435377057+437376428+439945985+443687732+447697712+450513026+452033816
3698+453312567+455309249+458728528+463971547+470748167+477745405+482297263
3688+482004616+477837889+472988308+469869290+469292245+470703028+473110974
3678+476253287+480246741+484266027+487333592+489706793+491621566+492101778
3668+490673470+488665096+487767033+488785285+491203050+493749555+495794971
3658+498010428+501298309+505537881+510410756+516610844+524661744+532428577
3648+535931275+534162765+529635169+525802359+525041345+527041471+529563865
3638+531625203+534128624+536716219+537286043+535982880+536384476+540666619
3628+545442146+547433631+548657031+551743449+556300836+559675248+560146939
3618+559024150+558724433+560214073+563131840+567449574+573615582+580369301
3608+584338795+583638751+580077681+576423372+573735590+572246795+572656066
3598+574975245+577594080+578927760+579163122+579929515+583151047+589475252
3588+595997656+597732509+594291265+590185387+588443525+588644988+589498879
3578+590416701+590840897+590471931+590391201+591998250+594768878+596890704
3568+598068965+599763452+602357815+604676934+605959190+605972242+604491364
3558+602579763+602725693+605937255+610203204+612796479+613769410+615683670
3548+620123345+625812646+629989827+631438861+631232081+630521462+629431847
3538+628120948+627071517+625959362+623558184+619247096+614540999+611951229
3528+612004465+612710854+612209312+610850858+610098242+610799918+612813700
3518+615085082+616474293+616955955+617363111+618386619+620505786+624428692
3508+630161016+634946454+634197404+627330566+620207217+618372842+621494549
3498+625773792+628838456+630977926+633291727+636466127+640110525+642224556
3488+640843139+636967367+634071051+634358199+636784636+638408424+637456280
3478+634854847+632500197+630855562+629260839+627813134+627253522+627569796
3468+628063120+628602731+629642615+630778457+630803534+629657782+628716696
3458+629123972+630849459+632944092+634363758+635112748+635741791+635672119
3448+633905965+631168029+629555057+630119805+631457291+631049773+628716756
3438+627069825+627794886+629753377+630867345+630070074+627529310+624881892
3428+624621151+627265608+630152980+630645941+629332143+628333409+627464532
3418+624367117+618776493+614005558+613034741+615362501+618676547+622020081
3408+625504167+628359695+629695368+630081434+630457954+630553247+629344167
3398+627195754+625617830+625112541+625213635+625622422+626212973+626888605
3388+627845402+628819844+628690229+627332137+626463140+627249171+628927525
3378+630600379+632255650+633551381+634353607+636129731+639717993+643281903
3368+644491103+643377438+641380817+639517014+638368240+638128769+638317240
3358+638404436+638692490+639810688+641690020+643790697+645984913+648276175
3348+650034776+650340777+649046375+647303486+646192540+645551956+644951495
3338+644462884+643838252+642357978+640343893+639260925+639267572+638507464
3328+636017156+633357351+632492100+633588241+635085435+635540570+635492228
3318+637074382+641286853+646281307+649204210+648943831+646566098+644023823
3308+643057720+644582771+647952530+651173639+652441030+651597472+649983534
3298+648900324+648350077+647372010+645861703+645428443+647524527+651542363
3288+655654465+658834907+661143995+662186236+660957518+657710123+654334563
3278+652688598+653211894+655125791+657486907+659348232+659760524+658507817
3268+656438502+654596392+653411544+653186213+654237155+655734349+655874600
3258+654306223+652813078+652701590+653419279+653863839+653371058+652002755
3248+651329540+653528530+658412101+662646567+663422930+661736238+660047249
3238+659000658+658212270+658148640+659311312+660730374+661160008+661083991
3228+661565713+662039520+660928936+658287924+656057934+655109415+654171713
3218+652137688+649806725+648742670+649356123+650692279+651466044+651039552
3208+649849024+648413284+646250126+642833234+639189440+637501418+639178322
3198+643583675+648213150+650429725+649633663+647197437+644276226+640788876
3188+637055046+634483403+633594224+633163743+632091470+630523275+628736395
3178+626739472+625223787+625302100+627150736+629771083+631969287+633095824
3168+633222478+632865960+632317346+631455358+630364353+629554936+629110316
3158+628101249+625751675+623099968+622040807+622762907+623367296+621914274
3148+618471881+615202189+614380264+616246787+618877285+620160930+619450674
3138+617115603+613968516+611633868+611610060+613193906+613687290+611766202
3128+609344177+608740151+609434213+609323632+608196914+607744982+608792420
3118+610230517+610437720+608954243+606644732+604665272+603550338+603221555
3108+603331290+603036589+601370502+598876448+597717704+598798618+600201849
3098+599515944+596535213+593222920+591467039+591280199+591433381+591331018
3088+591401657+591795156+591800051+590845972+589325393+588186409+587970988
3078+588320375+588602387+588818534+589325212+589905551+590042357+589878298
3068+589766630+589348658+588254691+586975396+585916599+584502612+582435715
3058+580719292+580369603+581160045+582187905+582951578+583430037+583480191
3048+582732954+581119257+579188985+577725992+577132903+577378478+578298113
3038+579484351+580110614+579578677+578313099+577247231+576492440+575259976
3028+573317678+571617209+571023516+571202862+571246853+570786582+570053303
3018+569238207+568348362+567606261+567447822+567836970+567993778+567369630
3008+566450116+566045861+566285695+566701491+566790198+566298747+565363038
2998+564249554+562859920+560895083+558580798+556721346+555866368+555936161
2988+556420119+556586715+555962688+554818688+553873976+553350801+552684113
2978+551359981+549546211+547712863+546271987+545695576+546020853+546096749
2968+544636114+542278019+541164415+542178557+543892018+544528735+543791226
2958+542355910+540713208+539140118+538110264+538075277+538981981+540225564
2948+541014194+540773755+539309132+536821845+534080343+532335278+532407126
2938+533642309+534324951+533587502+532355340+531879540+531989939+531540848
2928+530231581+529072233+528923523+529231578+528617099+526637699+524507353
2918+523572914+523549891+523020130+521513570+520200496+520197293+520997706
2908+521223702+520579976+520018068+519854915+519046587+516909352+514436810
2898+513148088+513473426+514688789+515659485+515412642+513724982+511442422
2888+509790173+509252314+509340839+509394015+509151885+508578737+507717958
2878+506873917+506486581+506724511+507363676+507913136+507878512+507189042
2868+506356845+505976851+506096647+506179855+505579062+504062984+502022977
2858+500180202+499091553+498896888+499264495+499502123+499013814+497884559
2848+496853406+496457671+496394586+496040999+495377271+494877572+494598582
2838+493973225+492650302+491043584+489825713+489295710+489396290+489941098
2828+490549656+490644375+489930856+488751476+487632554+486681255+485704910
2818+484707959+483895279+483246477+482467666+481464733+480609241+480284719
2808+480319223+480153352+479496543+478632410+478086031+478064247+478216039
2798+477901034+476778486+475222678+474046139+473686993+473786787+473708686
2788+473240378+472549731+471830531+471337237+471309079+471515889+471306057
2778+470359230+469019176+467778766+466765922+465739664+464450882+463049888
2768+461958550+461310201+460946855+460944377+461453261+461974926+461636203
2758+460335910+458876332+457920290+457481863+457329527+457241999+456875964
2748+455892156+454345775+452772050+451820631+451777244+452340935+452873688
2738+452942182+452484691+451472301+449903017+448245874+447206201+446832190
2728+446487697+445842520+445230336+444903156+444572621+443904392+443032857
2718+442331181+441896199+441467562+440792051+439919156+439147627+438795550
2708+438986831+439490791+439790870+439475382+438568497+437438003+436429208
2698+435623961+434905124+434154080+433360828+432617397+432082892+431887442
2688+431927746+431816561+431219756+430269273+429476112+429163675+429121437
2678+428904958+428345285+427656783+427144817+426914228+426873380+426963113
2668+427193158+427368305+427090282+426280140+425370355+424722912+424215297
2658+423631393+423074500+422681968+422258648+421546942+420638365+419820337
2648+419210420+418788943+418577268+418544154+418465781+418056208+417267276
2638+416464507+416167388+416414201+416580133+416153913+415412597+414897550
2628+414574327+414017857+413188016+412516886+412278352+412255390+412079789
2618+411631211+411039271+410527970+410320827+410451348+410610059+410425123
2608+409927992+409477601+409241756+409074887+408894936+408815384+408870040
2598+408929772+408927416+408911070+408903577+408919892+408997088+409027633
2588+408776288+408221510+407664466+407409223+407515363+407836138+408096427
2578+407984003+407364628+406456142+405717999+405458285+405506747+405392117
2568+404924384+404416346+404224491+404325917+404478646+404558470+404609349
2558+404729538+404949582+405110680+404975324+404582369+404255671+404079316
2548+403684276+402868122+402113119+402062572+402717991+403548134+404185244
2538+404565177+404550131+403978222+403095870+402524958+402719925+403538043
2528+404289027+404332504+403767876+403296396+403333196+403668172+404009734
2518+404312291+404508920+404452270+404210744+404037863+403984355+403780294
2508+403170799+402295910+401653453+401628738+402109161+402620251+402797694
2498+402673004+402538796+402618831+402894740+403213521+403516561+403879817
2488+404281262+404455563+404153218+403494596+402865584+402524777+402487705
2478+402683669+403068859+403642340+404364651+405005265+405239872+405023635
2468+404639291+404295251+403981304+403771623+403904592+404428401+405034512
2458+405373355+405364140+405117871+404774556+404496049+404397342+404436226
2448+404548046+404776218+405054392+405084515+404700865+404142220+403785521
2438+403791382+404027379+404197510+404144939+404063756+404220050+404539345
2428+404704612+404574513+404340450+404323470+404608292+404842506+404614969
2418+404085147+403862958+404186573+404646089+404849515+404933116+405195398
2408+405587145+405833565+405832145+405704373+405624730+405775133+406271841
2398+406981039+407599689+408027873+408410525+408741694+408792362+408534068
2388+408205527+407791815+406854898+405063033+402488581+399202725+394996568
2378+389779654+383978896+378264971+372975182+367998342+363217528+358830393
2368+355098074+351945368+349015244+346204704+344091731+343634361+345345647
2358+348922730+353762310+359685281+367003386+375498996+383327193+387800436
2348+387373279+382751598+376606437+371738518+369019132+367754279+367326397
2338+367598287+368392839+369250687+369914475+370770058+372314264+374380678
2328+376319320+377713516+378657413+379559584+380741411+382199388+383861819
2318+385811972+387978211+389990392+391671435+393327581+395309126+397575855
2308+399843490+401943320+403895135+405717002+407296467+408458957+409114285
2298+409395089+409719701+410544919+411879807+413203032+414027012+414401537
2288+414767481+415448521+416331689+416965868+416940609+416182132+414992873
2278+413926039+413476071+413643241+413893982+413765243+413380264+413165356
2268+413236388+413335699+413285243+413234092+413409299+413820110+414307966
2258+414756242+415158926+415564390+415979219+416269872+416254614+416050100
2248+416164760+416922934+417885140+418220539+417655186+416685215+415866554
2238+415310265+414891235+414546017+414247781+413962899+413729319+413591486
2228+413464016+413256812+413068341+413045621+413158286+413317994+413553387
2218+413837362+413970120+413927791+414100460+414829358+415866463+416639714
2208+416963481+417156877+417554122+418231295+419120444+420085701+420954306
2198+421643413+422168491+422552020+422906725+423475583+424348085+425271798
2188+425922142+426257299+426523901+426950152+427465894+427817669+427980398
2178+428217785+428675336+429191139+429536176+429635397+429634913+429851755
2168+430434964+431066091+431327588+431301332+431430706+431912851+432587305
2158+433308528+434102989+434978482+435803670+436441596+436948123+437558494
2148+438411357+439387370+440312655+441185278+442099263+443120838+444314387
2138+445670666+447043925+448398270+449946706+451800478+453717789+455425208
2128+457004552+458789529+460972990+463398671+465689933+467514398+468725290
2118+469415394+469941349+470700249+471762309+472870899+473779476+474430514
2108+474922146+475484115+476390607+477751357+479397594+480950864+482014859
2098+482433767+482384912+482139277+481775417+481185954+480262573+478976842
2088+477352390+475450095+473309899+470885698+468179637+465404356+462822472
2078+460519638+458541024+457060417+456150662+455575006+455026603+454411035
2068+453778669+453153736+452511580+451839363+451207933+450792499+450745487
2058+451007800+451336008+451605572+451990279+452656423+453386228+453823838
2048+454057901+454599114+455743446+457233751+458631966+459868690+461266603
2038+463076657+465268336+467844963+471002443+474754250+478691084+482324425
2028+485485137+488289725+490846956+493051717+494682333+495752280+496626685
2018+497646689+498752861+499561976+499733467+499265613+498499885+497792438
2008+497178895+496398604+495190643+493576493+491947720+490804627+490300154
1998+490162411+490143286+490348707+490985605+491925513+492710245+493041807
1988+493126163+493412011+494136045+495254726+496648620+498202948+499828397
1978+501551527+503421947+505279677+506862919+508221313+509821232+512067537
1968+514730907+517061688+518657196+519933531+521466739+523310601+525251630
1958+527267829+529387540+531467369+533393532+535252804+537208274+539412763
1948+542030088+545192584+548884236+552740854+555973867+557968494+559114729
1938+560478380+562627458+565188828+567513627+569390905+571012578+572625006
1928+574437205+576636981+579201735+581707089+583614278+584893815+585999867
1918+587116312+587958540+588470959+589048216+589964769+591202249+592721498
1908+594369638+595702955+596383783+596589174+596780183+597234411+597902187
1898+598610570+599290613+599958087+600677166+601664660+603017676+604177326
1888+604334617+603580974+602818992+602616321+602745272+602591727+601762672
1878+600504406+599493828+599073862+599063892+599451650+600517820+601777718
1868+601664418+599495399+596641141+594617449+593484084+592409394+590874494
1858+588982834+587046821+585232991+583580379+582312927+581771202+581820389
1848+581913688+581885831+581796399+581062214+579129525+576664536+574670150
1838+573383423+572472126+571724104+571368855+571591950+571709420+570507290
1828+568019278+565576043+563724506+561827468+559608658+557729144+556762557
1818+556534325+556554749+556780262+557586174+558883657+559804138+559799606
1808+559493424+559747095+560688061+562025789+563443461+564463042+564743543
1798+564702453+565201034+566721190+569011244+571001279+571508803+570784346
1788+570278877+570987018+572859281+575362218+578107527+580771622+582993272
1778+584862514+587078605+590255603+594135726+597396717+598877475+599010716
1768+598760368+598510383+598738071+600138159+602499939+604567078+605814226
1758+606921003+608203561+609479593+611142477+613878722+617510854+620975121
1748+623659157+625898029+628095750+630355289+632788554+635368353+637557011
1738+639242072+641706275+646086914+650676991+652092972+650629617+648870171
1728+648077734+648469118+649862197+651806549+654328641+658469265+665236639
1718+673603450+679702082+680761726+678574760+676268452+675690228+677495901
1708+681349799+685774428+689038380+691542224+695658555+702201868+708190704
1698+710854860+711341658+710870692+709901205+709852561+711617446+714425417
1688+717623927+722541215+730431440+738013730+740277619+738907744+738206854
1678+740058451+744410870+749879855+754718227+758722527+762304747+764122867
1668+762993491+761283232+761886654+764578304+766882618+767595593+768250982
1658+770626842+775627217+784062189+795072732+802368237+802367693+800393852
1648+799783663+799485155+797667880+794996594+793002571+792087650+792286635
1638+793992966+796908980+798279218+795620440+791059911+787810643+786907082
1628+787701573+789269345+791041179+791849326+790286026+787170603+784751236
1618+783616421+782363714+779870083+776744931+773777856+771259570+769324282
1608+767653059+765709735+763649061+762227038+761843086+762225467+763006483
1598+764076641+765152056+765519994+764840133+763854693+763524884+763795717
1588+763867020+763353030+762603436+762203592+762640417+764134469+766447847
1578+768692762+769011090+766016098+761747974+759415562+759728995+760894386
1568+760998320+760411636+760174643+760381967+761566996+765573291+772860517
1558+777753575+775574404+770571249+766631001+764318348+763019897+762354780
1548+762662231+764665439+768601820+773805894+779369749+784200748+786040864
1538+784541555+783078079+783890094+786273870+788174835+789359018+791754215
1528+796378313+802081451+807367283+812480414+817776579+821620144+823175045
1518+824602265+827633151+831779696+835949808+839519761+842295827+845220361
1508+850356153+857383182+861475343+861348688+860689553+862091998+866337280
1498+872750494+878675097+881480289+882307350+884395457+888979250+893877625
1488+896130637+896346542+897160128+899596777+903398164+908543504+915140837
1478+922492600+929330553+934937130+939309066+942207618+943067068+942647162
1468+942935156+945560820+950109445+953367172+953277076+952670089+955687319
1458+961732231+963735680+958586836+952514732+949708936+949680656+951004002
1448+953050113+954962137+955482351+955185414+956300892+959947224+965406541
1438+971722165+977624470+980694150+979986915+977409351+975120869+974352482
1428+975972463+980329716+986096061+990188766+991112329+991765361+995864713
1418+1001511957+1002728529+999049083+995374471+994815765+996175729+996666334
1408+995426377+993615145+992538522+993084054+996043939+1001184685+1006529372
1398+1009495179+1009326165+1007549920+1005442960+1003241915+1001340466
1390+1000045037+999260878+999222568+999984489+1000632868+1000853245+1001948903
1380+1004772223+1007988618+1009969710+1011191237+1012679488+1013692724
1371+1013519360+1013180305+1014111723+1016862229+1020923028+1024983224
1362+1027807933+1029694578+1032062461+1035187854+1037800466+1039098433
1354+1039882893+1041147988+1042349272+1042247392+1041647475+1042979765
1345+1047122986+1052351352+1056379159+1058582560+1059893338+1061262246
1337+1062131182+1061119276+1058075942+1054525024+1051955557+1050448030
1328+1050505919+1053731862+1059485457+1064021573+1065204729+1065063573
1320+1066459914+1070080324+1073741823+1073084017+1066082489+1057210389
1311+1052546893+1052605265+1053480003+1053394197+1054560917+1058546667
1302+1063182004+1065136931+1064255667+1062809292+1061944585+1061458028
1294+1060784270+1058719608+1053970789+1047202991+1040941691+1036461892
1285+1032129172+1025525856+1016233790+1006078166+997664343+992609946+990570482
1275+989693267+987820943+983358608+975938322+967077764+959321143+953741033
1265+948985446+943670852+938234437+933140400+927547419+921127861+914820757
1255+909055802+903249031+897284728+891788793+886838995+881688157+875598528
1245+868261450+859751669+850484439+841241138+833100142+826960601+822689939
1235+819071645+815306091+812028422+810049325+808840548+807134579+804570853
1225+801983318+800322911+799921315+800664746+802236204+803867848+804508794
1215+804012388+803686024+804987676+808265285+813007215+818317761+823083922
1205+826786995+830024057+833503309+836902798+839232492+840271953+841081913
1195+843076178+846821066+851400871+855156032+857707613+860714993+865413899
1185+870483403+873992264+876318634+879477081+884751189+892027599+900456952
1175+909153330+917560083+925022789+930592687+934327605+938019741+943093897
1165+948026051+949852933+948931666+949336284+953183596+958086019+961099321
1155+962356319+963288281+963909407+963354931+961534575+959878761+960128565
1145+961485508+960661952+956257566+951260514+950273866+955367540+964582743
1135+973402875+978337869+979121483+976789796+972403175+968846395+969993416
1125+976502587+984190383+988104224+988185196+988642083+992619614+999237493
1115+1004463502+1004556016+1000328015+995807851+993115537+992168408+993237055
1105+996351632+999666402+1001072533+1000055672+996789242+992670554+991286358
1095+993773343+995969432+994446315+991199283+989360194+989249070+989198190
1085+986665221+980793431+974692685+971422025+969125506+964521712+959576627
1075+959229656+964012979+968823191+968926219+964996243+960518620+957158771
1065+954268558+950622710+945739139+940487751+936821297+936653250+940374813
1055+945471630+947575086+945059640+941220728+939099990+937945295+936454929
1045+935211407+934299990+932640369+931002138+931694750+935249717+939710421
1035+942178915+940841368+936569679+932644055+931900805+934795247+940099026
1025+945745182+949531160+950542644+949449101+947332533+945651883+946735274
1015+951160991+954581448+951176037+940989777+929287287+920257111+914661049
1005+911003779+907187950+902144792+895786507+887996107+879705192+873450840
995+870249007+867952246+864641766+861197682+858286320+853969492+847177040
985+840587743+837210189+836737954+836681757+835245957+832289940+828590311
975+824862463+821173651+817447978+814433226+812939476+812077670+809878861
965+806176211+802937215+801494284+801244299+800968692+800245505+799664139
955+800307080+802708500+806125875+809591834+813417633+818379215+824159337
945+829967256+835795840+841930607+848089243+853822353+859062623+864165965
935+869996423+877416528+885710706+892488958+896502383+899252586+902785558
925+906865633+908755058+906306686+900752741+895632841+893626552+894736954
915+896843431+897303642+894387083+888851871+884045042+882633896+883582475
905+883746413+882068543+880368738+880682111+883874518+889774769+896964224
895+903301179+907470626+909245783+909067524+908328807+908440657+909605927
885+911481936+914263199+917946573+921645839+924070282+924104544+922114932
875+920682878+922299778+926707246+931518304+934175269+933107407+928747797
865+923591158+920481838+921275302+926235796+933250498+938737127+940630600
855+939676340+937533426+934946979+932677048+932712699+936570828+942823185
845+947892266+950045453+950739877+951123224+950286314+948292170+947503117
835+949361965+952492918+955306932+958357517+962639962+967881561+973484874
825+979088671+983707512+986213833+986494939+984913993+981717538+977905455
815+975802603+977017665+981221313+987229063+992581364+993390539+989256200
805+985344171+986828434+994686512+1003035013+1003322705+994510912+983023783
795+975070050+972766944+973890942+974360096+972055902+967323640+959800327
785+949094819+938389250+932660430+933361260+936820088+937761235+933394857
776+924232890+913430095+905220454+902234587+904200813+909398482+916318132
766+923082909+927233804+927660599+926286131+926118085+927958201+930991685
756+934943172+939740393+944998911+949726762+951308372+948081160+944090939
746+946163214+955256113+964358620+966304603+961384535+955392315+952972525
736+953922978+955188254+955573414+955746416+955134414+951603376+944438755
726+937001791+933528400+934557226+937261143+939775138+943986159+952385842
716+963588843+972356223+974759275+972724222+971200501+972641256+974606395
706+971342081+960428523+946961210+938114308+937075874+942982651+951709606
696+955823520+950510376+940692598+935566474+938708485+946756303+953091022
686+951922973+944153782+937804500+938269424+940867352+935252678+919881317
676+904736799+897807299+897704452+896819321+890989467+885779653+888522666
666+895011413+898024533+897611395+896956550+896928391+896200370+895133052
656+896437847+902610139+913126632+924189625+931840439+932292552+923618531
646+910210315+899952328+897087314+899810083+904051499+907769074+909217685
636+906898022+903097964+903114521+909045046+915218425+912319210+900040672
626+889022274+885905341+887816398+888607746+885667743+879273020+870121930
616+858886479+848314877+842803955+844671082+854454719+869879377+882526941
606+882163957+867331905+848501535+839443925+846994793
##END=
