##TITLE=<SNM>
##JCAMP-DX=4.24
##DATA TYPE=INFRARED SPECTRUM
##DATE=29/4/2025
##SAMPLING PROCEDURE=Instrument type and / or accessory
##ORIGIN=Admin
##XUNITS=1/CM
##YUNITS=ABSORBANCE
##RESOLUTION=4
##FIRSTX=4497.3318
##LASTX=599.83466
##DELTAX=-1.4281778
##MAXY=2.1720245
##MINY=0.43229032
##XFACTOR=1
##YFACTOR=2.0228554e-09
##NPOINTS=2730
##FIRSTY=0.44600263
##XYDATA=(X++(Y..Y))
4497+220481713+218967756+218212744+217876807+217995538+218456233+218749150
4487+218585631+218274194+218378105+219173838+220319254+221025530+220793503
4477+219952496+219249049+219100542+219527352+220354746+220997228+220544430
4467+218749533+216624872+215499110+215840145+217261241+219071062+220583973
4457+221459072+221828335+221827628+221259398+219994632+218478951+217639903
4447+218185120+219733095+220831440+220321774+218615774+217175761+217003166
4437+217941572+219105640+219829757+220199904+220466140+220368963+219837786
4427+219736911+220735456+222062852+222454390+221604396+219904614+217907421
4417+216628040+217023940+218724296+220289273+220871690+220772700+220509411
4407+220238077+219992127+219820549+219711482+219741125+220160081+221022289
4397+221902898+222215262+221700027+220591457+219481371+218899720+218767537
4387+218512409+217924600+217430742+217422359+217791342+218109732+217952091
4377+217261020+216582751+216538450+217037111+217616758+218322002+219409430
4367+220462870+220711147+220130674+219330787+218402664+216961458+215390573
4357+214846697+215710864+217047777+217811098+217796763+217387457+217039925
4347+217122193+217729110+218574508+219247414+219431809+218990415+218087427
4337+217172225+216612202+216407711+216427468+216758573+217457069+218087751
4327+218143367+217812690+217580294+217279082+216378584+215012574+213950413
4317+213703019+214248811+215378463+216816738+218154476+218981059+219128255
4307+218793526+218494848+218741372+219454513+219859974+219390690+218496778
4297+218024474+218103942+218263351+218300507+218350584+218368882+218227447
4287+218103707+218262556+218628946+218808494+218445611+217630577+217015778
4277+217257130+218195934+218992595+219174737+218993656+218767994+218598787
4267+218586427+218610574+218182940+217222567+216552343+216969929+218191912
4257+219216327+219593413+219799113+220299895+220860036+221062981+220981273
4247+220843359+220512062+219849941+219130686+218566287+217961579+217362647
4237+217417821+218446038+219597819+219673678+218671273+217804483+217905123
4227+218521573+218867941+219006282+219507403+220465860+221535462+222518036
4217+223267685+223441783+222936315+222174894+221616595+221421091+221635541
4207+222159189+222582418+222561188+222266857+222120958+222259741+222524474
4197+222749709+222777775+222401809+221706170+221294477+221578246+222011773
4187+221737875+220825355+220177923+220341943+220993427+221562437+221963965
4177+222561409+223507682+224382825+224638336+224289375+223910020+223913070
4167+224083632+224003986+223725315+223672955+224048052+224713149+225575077
4157+226649629+227715340+228235231+227809542+226666660+225440655+224452924
4147+223611519+222949884+222669077+222686196+222740914+222904787+223508640
4137+224649091+226005908+226953036+226852042+225625950+224022078+222916219
4127+222461315+222258577+222137679+222298400+222783639+223295766+223568544
4117+223631232+223732623+224116456+224751469+225300075+225460058+225214330
4107+224775513+224520813+224809590+225520374+226009739+225846205+225249114
4097+224588525+223984657+223612830+223786471+224442773+225072468+225398077
4087+225630193+225914683+226051005+225857358+225383345+224771742+224201568
4077+223837800+223650281+223455838+223195494+222996454+222996778+223189557
4067+223382012+223352502+223114980+222965957+223213130+223834382+224400402
4057+224489078+224169848+223863008+223815289+223974904+224245088+224605674
4047+225111848+225810758+226418854+226289618+225188194+223877918+223358586
4037+223722781+224309765+224741024+225185483+225664770+225743223+225165137
4027+224407046+224241877+224866488+225712019+226130356+226052287+225929872
4017+226173494+226579545+226364637+225118213+223619195+223094147+223738840
4007+224647898+225154957+225549309+226434368+227823096+228928071+228954324
3997+228151372+227575924+227684696+227849571+227432515+226676074+226301920
3987+226706748+227685226+228639882+229016246+228717981+228189103+227996869
3977+228251334+228563390+228642888+228655617+228820978+229019930+229069240
3967+229046007+229059944+229043060+229017204+229163722+229392257+229359462
3957+229153659+229320272+229970004+230571455+230819777+230930523+230942663
3947+230694298+230603116+231342393+232543161+232866045+231817261+230383774
3937+229686103+230163062+231739811+233730182+234828011+234366241+233345524
3927+233208656+234195032+235296971+235447319+234654695+233976353+234338352
3917+235308993+235414038+234064587+232323082+231463040+231771088+232961572
3907+235091419+238474585+242774456+246671458+248845607+248814226+246620674
3897+242917615+239371754+237880147+239096103+241405322+242114412+241115764
3887+240853682+242438622+244243463+244817939+244922321+244727951+242967338
3878+240308112+239443414+241475347+244917238+248006456+249876343+249816793
3868+248288265+247034430+246551091+245545136+243397182+241231623+240248886
3858+241168419+245188631+253361710+261846329+262419288+255617272+247944843
3848+243216042+242239921+243984638+246581102+248758772+250847264+253665177
3838+256369765+257013529+255511727+253310470+251173242+249197779+247785817
3828+247259768+247225765+247712036+250006463+254240257+256986951+255897107
3818+253817808+253140394+252242460+249484185+246458628+245516878+247600744
3808+251611130+254866990+256455746+258286325+260871372+261638774+259682612
3798+257388361+255898581+254424888+252841967+252099257+252739397+254632002
3788+257623025+261390997+264933175+267436896+269633380+272901055+277195195
3778+281206111+284553521+288214533+293309960+300332378+308207737+314273525
3768+317232430+318521786+319646399+321049787+323389768+327489287+332898817
3758+338018406+342328280+347423000+355926860+369031095+382672223+390158783
3748+392291591+394968629+400638547+405429712+405911504+405214201+407896572
3738+416053180+427965620+438251088+442507040+441500642+438774692+437072464
3728+437585637+439765973+441501026+441165383+439021201+436072225+433251071
3718+431468490+431314179+433035677+436530592+440321783+441674048+439888904
3708+436914499+434571365+433838791+435006631+437136699+438725396+439498985
3698+440299566+441908800+444882085+449563844+455726279+462007137+465561484
3688+464357166+460266781+456648346+455077182+455523262+457517876+460940718
3678+465843381+470581154+471709363+469756530+469340211+471393491+471563920
3668+467392535+461939602+457815066+454669054+451905240+450586772+451898522
3658+455018752+457705395+459487917+462593738+468641257+475985469+479714782
3648+476588954+469500062+462924607+458846598+457091067+456620708+456699676
3638+457295293+458613672+460587131+463244692+467337110+473360202+479133780
3628+480518457+477507839+473722069+471544532+471868330+474520587+477778893
3618+479551484+479781935+479887863+480822836+482903255+486090460+489517427
3608+491418754+490741752+488736382+488056758+490471376+495225650+499709312
3598+502155428+502731481+502087539+500592632+499145517+499336985+501972565
3588+505306538+506110713+504010936+501900551+501838143+503576966+506100223
3578+508336132+508721542+506325517+502817461+501899490+506050486+514230077
3568+521939809+523935691+519539718+512976374+508019377+505733023+505245662
3558+505212189+505371245+506660954+509260055+511680477+513115511+514906666
3548+517783687+519733779+518755639+515991294+513752675+512424660+510892626
3538+508555827+505976763+504094795+503402884+503800787+504599423+504930675
3528+504822418+505145892+506044298+506525589+505824956+504056549+501670483
3518+499537410+499048988+500629346+502653750+502798309+500413245+497358488
3508+496114922+497394377+499895358+501885288+502892540+503600244+504164275
3498+503749812+502000616+499928890+498642245+498008676+497389132+496928938
3488+497221414+498177514+498927472+498678782+497286886+495189407+493171250
3478+491934991+491691016+492111343+492635506+492824174+492380098+491211463
3468+489833092+489126124+489301032+489634788+489330792+487992730+485647622
3458+483295412+482675751+484280271+486324712+486860219+486074932+485234720
3448+484659846+484253251+484694144+486250900+487409252+486508489+484136920
3438+482342200+482073946+482455997+482077216+480443761+478400028+477255201
3428+477363840+477767873+477491633+476718897+476218071+476080879+475467965
3418+473629370+471169789+469835085+470628329+472661367+474336928+475053620
3408+475182237+475137479+475268335+475740728+475991627+475196587+473389845
3398+471496267+470536661+471108323+472946977+474662847+474676460+472828790
3388+470614804+469634778+470163568+471374545+472448095+473016368+473053141
3378+473069583+474065461+476360360+478462200+478173879+475328534+472398887
3368+471937250+474204568+477414109+479667667+480368005+479960084+478988514
3358+478077026+478380492+480726307+484070092+486043875+485751606+484742409
3348+484402140+484121215+483122597+482480276+483636506+486013702+487769380
3338+488309426+488426434+488583309+488625474+488423782+487648837+485945548
3328+483921497+482717857+482436873+482219565+481871635+482113783+483130081
3318+484047669+484043456+483209815+482136884+481206802+480618375+480370539
3308+479913056+478767847+477530851+477286817+478139051+479143592+479637730
3298+479916592+480514420+481414005+482115227+482109127+481307928+480395585
3288+480528711+482169768+484380365+485914197+486782872+487843752+489298940
3278+490465689+490696699+489995418+488870333+487937275+487618988+487895817
3268+488359075+488535486+488091145+486982325+485685897+484987592+485050501
3258+485020299+484179999+483043334+482548165+482671243+482636031+482120884
3248+481735769+482416247+484276970+486074902+486381728+485275766+484037150
3238+483469259+483322904+483034023+482445949+481875554+481667144+481609420
3228+481125330+480109415+478971631+477947495+477022010+476272729+475652832
3218+474854579+474001727+473828263+474467490+474813151+473893471+472209335
3208+470877313+470162212+469646859+469181303+468935825+469010225+469433587
3198+470095709+470401679+469621077+467909980+466317659+465570058+465503701
3188+465643221+465563075+464841521+463545123+462468480+462004662+461282814
3178+459362128+456772514+454877759+454159387+453968568+453650163+453263191
3168+453124349+453156644+453051540+452771911+452471127+451995375+450936529
3158+449373939+448125275+447886427+448364241+448587325+447873904+446244810
3148+444288117+442925805+442806911+443499058+443642438+442335226+440131023
3138+438328140+437618491+437716111+437983570+438061978+437987106+438054317
3128+438528094+439168706+439269566+438517545+437383267+436300436+435145620
3118+433870880+432847333+432285984+432078959+432250743+432772991+433162762
3108+432908327+432024712+430923524+430073560+429766941+429869333+429916508
3098+429593742+428956283+428311664+427938512+427656968+426972777+426010666
3088+425566089+425782219+425784606+425100710+424357882+424102415+423910388
3078+423175368+422168058+421746257+422202650+422896919+423093100+422731941
3068+422163372+421522908+420730667+419844872+419105845+418738586+418799374
3058+419055754+419011585+418298193+417167775+416330186+416141724+416220957
3048+416042189+415546136+414914217+414197260+413440672+412825194+412510737
3038+412474377+412454635+412137939+411593738+411257595+411267643+411234671
3028+410854594+410330843+410061910+410149688+410224295+409772617+408841239
3018+408150418+408145704+408329392+407888498+406641780+405130695+404082781
3008+403875225+404269711+404647990+404581162+404047039+403162747+402047386
2998+400962197+400239730+399969236+399936441+399865517+399571274+398978367
2988+398192372+397475003+397002993+396728639+396517783+396320629+396232144
2978+396410764+396808049+397068259+396983222+396840815+396863385+396605797
2968+395479150+393664953+391948818+390840853+390361772+390457977+391096997
2958+391986181+392604781+392616715+392123196+391487917+390956034+390548731
2948+390299982+390305787+390466610+390478072+390142724+389496338+388693724
2938+387944532+387441642+387210337+387077359+386842901+386491023+386197487
2928+386053341+385885947+385537458+385141352+384853826+384553984+384097886
2918+383611969+383308857+383161646+382841208+382030668+380880420+379994566
2908+379807695+380155979+380598611+380909709+381078900+381037648+380659840
2898+380030131+379462447+379121707+378786948+378126978+377138702+376251227
2888+375991606+376483387+377282759+377788654+377736205+377222590+376463438
2878+375712920+375258119+375244948+375487567+375550476+375108875+374257496
2868+373386140+372802898+372555593+372498548+372492301+372595077+372965371
2858+373528252+373918171+373852492+373401020+372829269+372338932+371983106
2848+371672391+371252742+370717912+370321541+370331883+370631931+370700292
2838+370144512+369164604+368310425+367861605+367626293+367354326+367117069
2828+367073577+367085393+366901705+366551300+366193469+365770844+365177525
2818+364608102+364410359+364623867+364847569+364643844+364036057+363451430
2808+363177666+363114963+363032282+362777729+362327760+361884008+361717439
2798+361719708+361436514+360698931+359854683+359316346+359188024+359328191
2788+359551158+359690530+359561854+359041756+358282958+357676615+357419999
2778+357283220+356941920+356369462+355805727+355474209+355348715+355130198
2768+354553085+353772541+353259427+353207214+353240923+352888662+352211366
2758+351725507+351751025+352047891+352077327+351498298+350468623+349516413
2748+349019210+348865282+348778506+348754049+348879573+348983409+348834814
2738+348488829+348123073+347785132+347485172+347218450+346855875+346349509
2728+345886280+345523294+345079365+344645278+344563540+344695251+344474878
2718+343837596+343324689+343223946+343273890+343174267+342892369+342516477
2708+342142529+341891158+341822267+341780426+341494728+340962638+340549206
2698+340508249+340594053+340348928+339651596+338852813+338403403+338362446
2688+338353106+338111782+337859410+337879947+338012925+337885516+337431274
2678+336905137+336522732+336280142+336091120+335977059+335980477+335937310
2668+335635965+335239918+335152376+335405839+335609976+335533837+335324632
2658+335126623+334857838+334408310+333824597+333271734+332909189+332767666
2648+332724499+332663859+332617097+332660028+332748278+332745596+332573222
2638+332295509+332071924+331986651+331899550+331581705+331058101+330654040
2628+330610548+330797125+330885610+330715328+330430602+330271340+330250449
2618+330140955+329847448+329573684+329499666+329564873+329688540+329854432
2608+329879124+329536203+329007590+328763497+328957941+329341760+329688982
2598+329902873+329832421+329387815+328757545+328266649+328132344+328417070
2588+328974353+329415984+329438761+329184472+329005086+328959915+328844174
2578+328628633+328543625+328713141+328966574+329080724+329025005+328898980
2568+328767770+328622740+328421284+328147519+327877467+327736592+327758544
2558+327865415+327982689+328080072+328147372+328226045+328388695+328611278
2548+328744374+328670917+328441321+328205949+328021200+327791044+327489523
2538+327343580+327563658+327961532+328140271+328041738+327971285+328071675
2528+328125449+327959381+327735472+327695193+327849180+328060271+328251533
2518+328409910+328511684+328525622+328420636+328204123+328041620+328209544
2508+328759490+329343263+329555061+329389612+329211551+329296000+329530752
2498+329611841+329428212+329114639+328786068+328427884+328061244+327822425
2488+327813144+327982188+328199879+328384481+328498042+328472554+328288925
2478+328141420+328298412+328689156+328889463+328704124+328462830+328510565
2468+328728168+328810937+328734739+328690658+328774901+328933484+329055443
2458+329018670+328779733+328444356+328135792+327849180+327567872+327420249
2448+327536962+327817357+328018872+328049075+328021495+328066253+328212962
2438+328392584+328441733+328225957+327879971+327765910+328067933+328584995
2428+329022795+329322430+329569057+329717034+329625160+329374084+329307727
2418+329603562+330019174+330267598+330411214+330649856+330957123+331173489
2408+331263889+331303874+331364013+331514376+331816281+332244710+332717250
2398+333232839+333864994+334576500+335203351+335726572+336394026+337476357
2388+339117915+341520599+345015837+349812395+355880687+363232324+372123303
2378+382743441+394782201+407568384+420624915+433725526+446442377+458248152
2368+468984826+478398319+485545170+489721417+491261525+490422021+486588635
2358+479236526+468785550+456109421+442073159+428252409+417149447+410870476
2348+410343101+415530283+425090367+435940160+444916295+450996079+454900860
2338+457494687+459070536+459662029+459453353+458623926+457165821+455144334
2328+452812721+450287254+447443618+444168193+440422938+436193829+431589417
2318+426766135+421705919+416369434+411004456+405961389+401295541+396847533
2308+392583242+388617791+385028322+381796093+378854542+376122168+373538005
2298+371140125+369095831+367540725+366357239+365263977+364143872+363091803
2288+362184086+361429678+360869448+360517394+360264962+359960258+359549655
2278+359113800+358763807+358491280+358177855+357755848+357265423+356792353
2268+356448636+356318281+356338759+356328682+356141399+355733742+355178699
2258+354653032+354279497+354007500+353810788+353871487+354328174+354962421
2248+355385400+355488470+355520942+355737484+356120979+356454706+356531287
2238+356269103+355759790+355234654+354852308+354519907+354067846+353534666
2228+353098427+352828081+352694454+352714196+352874813+353019018+353026531
2218+353056527+353398888+354094866+354867571+355421112+355707606+355950904
2208+356471354+357390917+358512171+359595651+360630011+361690065+362773722
2198+363922114+365217834+366591196+367880581+369045563+370138442+371191306
2188+372223486+373238164+374228738+375210031+376138816+376901857+377504163
2178+378068282+378571584+378851065+378882859+378821099+378793548+378791722
2168+378709660+378440138+377965948+377379111+376826690+376410724+376116452
2158+375895165+375778481+375801052+375913817+376068423+376264870+376496823
2148+376759686+377111357+377773597+379210958+381859591+385691740+390335135
2138+395537345+401144884+406877357+412558472+418317493+424278001+430286861
2128+436054781+441441711+446609123+451791296+456828352+461176826+464495624
2118+466962573+468940893+470548801+471703528+472536285+473497689+474917341
2108+476716923+478693358+480845790+483344708+486293007+489478680+492376503
2098+494476870+495526317+495470922+494371678+492376828+489727045+486731956
2088+483473178+479569134+474601234+468637721+462061029+455207449+448326054
2078+441554152+434928547+428587845+422805428+417804586+413732175+410721233
2068+408793181+407671396+406744290+405445270+403796169+402288797+401241207
2058+400632860+400361806+400257645+400112881+399940566+399934909+400238375
2048+401004068+402433562+404586642+407403524+410891220+415144608+420364999
2038+426821383+434523484+443027727+451676999+459872001+467229826+473686327
2028+479257742+483766391+487115509+489584402+491601352+493491688+495374687
2018+496917800+497367799+496224416+493827419+491092628+488721620+486687522
2008+484463399+481686502+478461522+475097405+471769531+468482673+465287247
1998+462433887+460228652+458772462+457860944+457070618+456066931+454944174
1988+454071992+453624233+453522842+453716166+454207740+454951216+455915802
1978+457100555+458457092+459961399+461660769+463545359+465587148+467871498
1968+470326601+472472905+473966162+475212292+476873886+479032949+481320658
1958+483568146+485871354+488255474+490631904+492922030+495088399+497174858
1948+499328734+501786342+504827428+508416161+511803879+514089938+515337983
1938+516508357+518420615+521158676+524222922+527125401+529829341+532429444
1928+534770368+536930550+539466831+542524653+545514350+548201436+550944624
1918+553470769+554857537+555068511+555100452+555647333+556633134+557790838
1908+559120620+560788196+562793860+564794633+566298322+567090239+567412121
1898+567672892+568034730+568440235+569121951+570629116+572869150+574595657
1888+574768031+574024437+573663071+573980593+574429766+574641093+574685056
1878+574774808+575070348+575558947+576182910+577215856+579034178+581107260
1868+581833233+580471274+578246150+576520527+575357579+574111597+572460580
1858+570600358+568918874+567635942+566571704+565447591+564369150+563722498
1848+563900294+565146630+566757160+566597869+563495613+559303543+556366942
1838+555085306+554370118+553516735+553304583+554802437+557284265+558292578
1828+556755122+554142113+551588094+548769473+545573163+542672098+540492410
1818+538876281+537667308+537122430+537601364+538846933+539789008+539536900
1808+538448205+537662652+538015355+539657002+542031163+543968349+544466200
1798+543808233+543509746+545031586+548400211+551463985+551697588+549738833
1788+548285766+548491495+549593862+550822931+552375002+554299577+555959315
1778+557333237+559649999+564132247+570406239+575745405+577292997+575735799
1768+573615042+572200340+571971510+573359635+575745110+577440620+578045136
1758+578714535+579824092+581059879+583125535+587047760+592121913+596034767
1748+597638108+597879196+597901884+598230603+599214105+600922698+602784982
1738+604639370+607781405+613133064+618167733+618821811+615822743+612316632
1728+609998043+609761139+611651240+614336498+616718615+619812798+625408197
1718+632787738+637367929+635824403+630667099+625966865+623929436+625160745
1708+629277148+634710486+639079822+642024790+646138423+652837840+658640087
1698+659725482+657386562+653478009+649120931+646526662+647090398+650114099
1688+654566527+660967339+668993061+673437121+670380419+664665331+661505322
1678+662236894+665899232+669903960+672072805+673453033+676093091+679140482
1668+679962337+679137064+679677051+682378693+684736824+684337153+682574580
1658+682732044+686979569+695987732+707067210+711761963+708495407+705366455
1648+705242464+705137095+701941669+697302311+694266765+693985486+696753484
1638+702606649+710020959+714557424+713396420+709910227+708043700+708865436
1628+711778877+716074548+721306872+726045883+728220386+728476560+730177667
1618+735286354+741637546+744916831+744997331+744885126+745750825+746644929
1608+746405256+745029979+743617693+743514799+745284856+748228823+751348346
1598+754719505+759078292+764226285+768927050+772544483+775520744+778034572
1588+779710457+780694254+781645816+782648649+783331249+784098710+786288534
1578+790752100+795932801+798444979+798641868+800670338+806072208+811549096
1568+813328347+813069167+814223806+817529021+823214232+833361064+847863795
1558+856587144+853157879+846663956+843501944+843593464+844330281+843933969
1548+843418792+845082596+849514930+855275925+861084950+865327466+863529004
1538+855482361+848382920+846343194+847346615+846479089+842593755+839368805
1528+839325078+841710907+844779219+848187740+851954151+855032481+857209576
1518+859302164+860534710+859529461+857794114+859123013+865694371+876656222
1508+889045209+897352563+896881349+891257487+886357181+884595315+885977487
1498+888525083+889559973+889084634+890026119+894288082+900329708+903858390
1488+902768517+900543688+900880067+903360952+905452656+905934949+906109798
1478+908251240+913361694+920311862+926510481+929402471+928529405+926372111
1468+925764766+927221604+928529287+927410714+925003964+924054818+925560746
1458+927916462+927722696+924340753+921056163+919494428+918410860+916158686
1448+912761244+909380951+906460438+903983796+902779007+903826450+906806482
1438+910555803+914106231+916454344+916983252+916616759+916667027+916750886
1428+915346202+912499884+910030255+909658340+912393808+918231473+924751915
1418+927510308+924712314+919014610+913632542+909931957+907422431+905258596
1408+903629678+902838291+902472388+902778417+905013324+909805373+916485047
1398+923396557+928517737+930360869+928693057+924832062+921206261+919759324
1388+920460840+921608938+921939365+921973958+922760159+924352421+926515078
1378+929514617+933595484+938387887+942955290+946303466+947825364+947569426
1368+946559640+946934384+950554291+957058292+963697244+967555411+968269951
1358+967438550+966243838+964945230+963648155+962814926+963108875+965090437
1348+968655244+972770409+976528451+979903205+983614397+988622488+994269334
1338+997819349+998296810+998983712+1002935638+1008734821+1012735542+1013493987
1328+1012563935+1012278472+1013661469+1015914762+1017826019+1019846887
1320+1023159174+1027418132+1031275061+1033597185+1033802737+1032939160
1311+1034194866+1040225413+1049775449+1057955806+1060738301+1059148455
1302+1058043495+1061232970+1068059559+1073741823+1073299368+1066047177
1294+1056013080+1048772086+1047716864+1050532007+1050149662+1042928233
1285+1033257860+1026575180+1023670226+1022187870+1019944949+1017017719
1277+1015094676+1014813810+1014644441+1013102919+1010674365+1008121465
1268+1004811536+1000103758+995059248+991360255+989119691+986744881+983029918
1258+978402640+973713072+969207134+964873216+960727053+956699872+952362359
1248+946785759+939200902+930082714+920713184+911525398+901736514+890972613
1238+880104581+869951915+860354262+851236074+843829248+839623446+838231609
1228+837257241+834574575+830387278+826509369+824245704+823462921+823343998
1218+823162490+822226663+820265550+818175673+817454709+818680065+821202851
1208+824308407+827898967+831871872+835527375+838137201+839995184+842455797
1198+846716287+852540457+858300215+862467653+865175777+867821905+871202199
1188+874705423+877196621+878326096+879164334+881561183+886174612+891143042
1178+894165977+895867851+899137648+905203849+912349610+918990095+925858997
1168+933730437+940835948+944793590+946409307+948959259+953916434+959486787
1158+963106164+964138403+963737259+962998379+962062493+960131200+956813963
1148+954468737+956881203+964277186+971653722+974378465+973719555+973261483
1138+973607173+973260775+971178088+967577038+964547091+964943875+969866633
1128+977584970+984342551+987444866+988451529+990743599+994122478+995421793
1118+994103384+992709897+992286889+991206444+988402203+986367132+989518773
1108+999124558+1010670829+1017077003+1016350146+1013231154+1012676847
1100+1014188196+1014160381+1012446190+1011253658+1009460500+1004783602
1091+999138347+995108514+991268086+986589598+984147135+985660488+987789496
1081+986300128+981112414+976815623+978038445+983738860+988278271+988202250
1071+984037052+978669304+974818975+972894813+971865167+970818844+968664790
1061+964146418+958754980+956378049+957608355+959146577+960092246+963394574
1051+970206725+976776552+978637894+975735945+970772465+964982887+958058059
1041+951369074+948764079+952926449+961483612+967723011+967460944+964210240
1031+964275241+968758609+972608171+971596853+968070057+966619407+967423994
1021+967494712+965893669+964372949+963697951+963334700+964335646+968138476
1011+972584422+972728745+966369185+955871417+944899077+935779651+929039455
1001+923881384+918684654+912345072+905486836+899613518+894985474+890537229
991+886032882+882128985+878683455+875047695+871474343+868472859+865379384
981+861110585+856125890+852455832+851399844+851733630+850470970+845990490
971+840207395+836573462+836166542+836353354+833787608+828389569+822796586
961+819017623+817530023+818224822+820464325+822947214+824939973+827011169
951+829724538+832796326+836069659+839896769+844165450+848283857+852234545
941+856630105+861556871+866209607+870295071+875098022+881739804+888773360
931+893808323+897326044+902091456+908950812+915623296+919931933+922120579
921+923377404+923673003+922261130+919230652+915449744+911504301+907764822
911+904995763+903602511+903056042+902700569+902621719+903538571+906024112
901+909253541+910719278+908981692+906424726+906797702+911025308+916812823
891+921635987+925029187+926820400+926557921+925661224+926138743+928059841
881+930410725+932581986+933275370+931222620+927904734+926201387+926918698
871+928744681+931047889+934813003+940473226+946410308+950248203+951209488
861+950438197+949317149+948430293+947732783+947395933+948348320+951033991
851+953742174+954210088+953036886+952735217+954104189+955646713+955707824
841+954720609+954932172+957337095+960019407+961279474+961889471+962687281
831+962940391+962855471+964546089+968937229+974025408+977090832+978499052
821+981595945+987618301+992688682+992527446+988212563+984161809+982808454
811+983821423+986309851+989652193+993635235+996744091+996935735+994040445
801+989144795+983314320+977127605+971904533+970168538+973210154+978229382
791+980117833+976786511+970342385+964783759+962270815+960280885+955770763
781+950655712+949466362+953085268+956899826+956412288+952132940+946560878
771+940794696+936086742+934642574+936838468+940162364+941735238+941113160
761+940667228+943245114+949437133+957666933+965921190+973365496+978728942
751+979726412+976968608+973604993+971511992+971273439+972755323+974086991
741+972857038+968593484+963654932+960791052+960491328+962494871+966964861
731+972930761+978321728+981917415+984112012+985398893+984949307+983037814
721+981860605+981917768+981980766+981807508+982457460+984533960+987127580
711+989313456+991175800+992027356+990511174+986476568+979626995+970891859
701+964421509+963762128+967751180+970971181+970766631+969638982+968189687
691+965382735+961634240+957784501+953807234+949101166+945190786+944990656
681+949093505+953091868+951066168+943047753+934642397+931677745+934514104
671+937083857+935508921+935998639+945592992+955553248+955986097+949731435
661+942688921+936371144+931575971+932033631+937745478+943984465+948465593
651+950969815+949320390+942257368+935679409+934443386+932568372+923307099
641+911578023+906724804+911037860+919016555+921677121+914726482+905301144
631+902628320+906727868+910186599+909121830+907388782+906370922+904422362
621+904294717+908669298+915502959+915513272+902763390+887692031+882449217
611+888286470+899645576+910577195+918318279+919909893+908095543+888764284
601+878000266+879299463
##END=
