##TITLE=<SNM>
##JCAMP-DX=4.24
##DATA TYPE=INFRARED SPECTRUM
##DATE=29/4/2025
##SAMPLING PROCEDURE=Instrument type and / or accessory
##ORIGIN=Admin
##XUNITS=1/CM
##YUNITS=ABSORBANCE
##RESOLUTION=4
##FIRSTX=4497.3318
##LASTX=599.83466
##DELTAX=-1.4281778
##MAXY=2.2413199
##MINY=0.67603201
##XFACTOR=1
##YFACTOR=2.0873918e-09
##NPOINTS=2730
##FIRSTY=0.70640093
##XYDATA=(X++(Y..Y))
4497+338413194+339253755+338768498+336355891+332172014+327409763+324038378
4487+323864452+327038467+331621909+335210652+336738323+336381277+334757747
4477+332756241+331252013+330633920+330856846+331841694+333441751+335340575
4467+337139087+338283613+338230587+337046199+335527123+334420518+333958932
4457+334316493+335583918+337105878+337500474+336031226+333702712+332162048
4447+332068104+333091958+334718428+336546322+338331670+339972361+341118628
4437+341086276+339850946+338634006+338685604+339764626+340547250+340346940
4427+339627392+338892083+337924624+336505032+335457649+335949131+337658895
4417+338709162+337840674+336083366+335309822+335780402+336076799+335154856
4407+333503686+332130695+331568227+332096915+333638607+335134268+335152429
4397+333580698+332019961+332129039+333763933+335074247+334640102+333069599
4387+331947832+331894092+332318470+332427663+332044032+331808285+332410845
4377+333488610+333884805+333155634+332090491+331601779+331869421+332677116
4367+333905650+335314619+336183079+335846078+334659206+333755424+333749513
4357+334377657+335241291+336082281+336622306+336818704+337077381+337859605
4347+339039339+339685044+338827921+336598748+334280629+333268711+334046709
4337+335816324+337218041+337702555+337667890+337227378+336004698+334254644
4327+332766207+331741953+331095134+331451524+333451660+336393212+338625754
4317+339074604+337929279+336075599+334284740+333044243+332723004+333479929
4307+334953118+336281021+336535243+335301227+333249151+331926787+332394397
4297+334064613+335368102+335575523+335273872+335038068+334710347+333964957
4287+332634998+330832632+329216955+328542067+328953939+330115597+331825561
4277+333997595+336178853+337583939+337801611+337357044+337187344+337603214
4267+338076649+337984360+337256875+336221542+335129186+333944312+332544166
4257+331067836+329923110+329501930+329978335+331257096+333133019+335312649
4247+336922900+336701773+334670028+332762723+332707841+334206672+336031169
4237+337650215+338926834+339417516+338753393+337144084+335247402+333792345
4227+333289441+333831836+334937870+335663985+335517043+335284780+336049900
4217+337512610+338321876+337873255+336821075+336018233+335700935+335476238
4207+334731249+333342153+332025043+331724735+332746675+334496302+335853159
4197+336059837+335520898+335297401+335766239+336438157+336906653+337055137
4187+336596921+335487689+334376972+333941057+334340308+335493200+337110475
4177+338376815+338479783+337582997+336690209+336735725+338065456+340109908
4167+341448662+341052124+339537103+338432696+338266766+338157915+337373406
4157+336449950+336215803+336364772+336003299+335344031+335583832+337061304
4147+338579267+338810931+337651499+335922204+334496330+333957762+334526998
4137+335923860+337290484+337668518+336962163+336100385+336005155+336716622
4127+337507413+337505243+336319370+334387052+332650903+331842979+332108451
4117+333083734+334236426+335266590+336127540+336778585+337263728+337698272
4107+337909547+337499675+336556545+335665584+334917054+333938830+332942874
4097+332666323+333349834+334461379+335276442+335432578+335133412+334943438
4087+335180241+335508762+335447027+335118735+335022706+335152943+334981473
4077+334389993+333933348+334026121+334485708+334877762+334820882+334096080
4067+333038732+332634256+333482499+334809117+335365903+335145119+335114651
4057+335549167+335837111+335644768+335235123+334863942+334543017+334266608
4047+334119409+334204473+334478027+334664945+334613432+334545216+334750552
4037+335187780+335447284+335112339+334213068+333387326+333399376+334442105
4027+336030769+337465952+338298718+338466334+338214967+337974738+338009546
4017+338023680+337551644+336865791+336727415+337134176+337216356+336567995
4007+335777718+335386577+335258081+335289634+335904814+337331231+338851421
3997+339322972+338422588+337014846+336111378+335929257+336169087+336723304
3987+337702955+338922836+339684273+339216948+337514437+335694681+335109654
3977+335991620+337401904+338458196+338884487+338462821+337111047+335550081
3967+334881703+335455137+336666451+337629398+337787705+337237115+336635184
3957+336579588+337083377+337836705+338875807+340454733+341993370+342009018
3947+340126812+338161970+337872398+338759418+339026775+338035016+336816734
3937+336509801+337300963+338741200+340401879+341911618+342759118+342800808
3927+342658521+342915541+343256882+343028731+342471002+342514748+343449340
3917+344284819+343842280+342354728+340979881+340075842+339129229+338333269
3907+339099361+342462322+347451582+351601394+353490195+353595476+352466827
3897+350070239+347052589+344969330+344873672+345928223+346088814+345243169
3887+345305589+346830691+348474265+349700343+351097491+351665385+349873955
3878+347226458+346563734+348506161+351566843+354331814+355868594+355408122
3868+353985818+353747387+354857561+355016981+352466427+348469154+345511097
3858+345284516+348902070+356558387+363925846+363633904+356696078+349176080
3848+344618137+343940736+346308541+349950110+353467409+356485088+358656180
3838+359113082+358022725+356809554+356026415+354888457+352955053+351081158
3828+350112871+349998453+351036612+354439950+359807216+363182855+362023310
3818+358891384+356086865+353125667+349741176+347290763+347218691+349768760
3808+353080665+354397860+354114656+355308724+358624741+360884124+360284735
3798+358442649+356333520+353818031+351465817+350159929+350057447+351128587
3788+353675972+357307061+360368171+361879966+363061184+365160376+367107429
3778+367398914+367152088+368704288+372690367+377780283+382306987+385976339
3768+389845745+394192155+397724474+399785773+401607728+404257652+406947867
3758+408376854+409019418+410803510+415151947+421459888+426776755+429073116
3748+430449305+434049555+439769899+443342822+442689236+441554961+443882361
3738+450829382+460684432+469741952+474575561+474382418+471437182+468890625
3728+468642714+470998326+474747317+477792580+478572806+476966067+474408089
3718+472877276+473446170+476148920+480559521+485072462+486426578+483172610
3708+477964679+474388186+473934111+475280974+475476316+473373441+471210544
3698+471241754+473689455+478286089+485208724+493691383+500986684+503445464
3688+499973681+493500638+487684865+484650082+484689259+486674718+489661643
3678+494007768+499449990+502986706+503043358+502193516+501966564+500263282
3668+495608539+490246499+486536856+484893881+484766870+485480964+486453591
3658+487131820+486951812+486226239+486809096+490650889+497492972+502848159
3648+501486676+494761495+487906449+484181044+483793387+484786516+485226257
3638+485285708+486260333+488346304+490812165+493785042+497871663+501176972
3628+499691505+493749235+487960931+485911739+488316550+492893054+495844058
3618+495723728+494499193+493543356+492132930+490229537+489795507+491752069
3608+493751519+493388419+492086043+493000133+496746554+500695770+502589169
3598+503351976+504710319+506179682+506293900+505634803+506435074+509478138
3588+512528112+512621486+510034782+507286401+505670953+505060570+505418587
3578+507000627+509072035+509781045+508304887+506467341+507141458+511140244
3568+515837819+517606092+515944671+512803836+509502981+506896117+506238618
3558+508071824+511233047+514082739+516014515+516883432+516322676+514823560
3548+513985939+514801801+516485609+517486905+516961900+515227208+513654649
3538+513591200+514614711+514733898+513339863+512105219+512282828+513174417
3528+513661730+513483207+512353758+509678135+505979171+502744849+500714502
3518+499989386+500907131+503318510+506036737+507944585+508706650+508248120
3508+506739466+504990954+503614051+502221671+500545744+499531599+500178018
3498+502096602+504022895+505198603+505742796+506199898+506825016+507031580
3488+506193159+504956802+504672398+505436976+505706475+504239168+501622367
3478+499391910+498446067+498624077+499219840+499550731+499165586+497958983
3468+496559921+496203731+497374185+498757370+498411002+496002193+492990253
3458+490653345+489147546+488473715+488957772+490171571+490695891+489955699
3448+489047719+488972278+489417216+489666498+489424926+488761031+488156987
3438+488222606+488885701+489293746+488577254+486548221+483933190+481937166
3428+481338890+481848247+482545437+482963133+483192141+483182433+482822702
3418+482312431+481674236+480546729+479077137+478245770+478632285+479567991
3408+480174890+480488591+480945979+481475838+481588172+481179499+480703722
3398+480375001+479747542+478508244+477349498+477379994+478717521+480169122
3388+480529025+479943770+479680553+480530053+481920262+482843147+482943602
3378+482543895+482338473+482953310+484212968+485276399+485886268+486733312
3368+488258813+490055183+491731110+493473454+495471820+497399427+498637326
3358+498613340+497234838+495490038+494931681+495880379+496858774+496592417
3348+495813904+496061187+497423870+498582787+498770733+498549035+498416256
3338+497884627+496518517+495006037+494353850+494418383+494079612+492828520
3328+491352304+490456832+490425879+491467208+493466087+495352404+495883406
3318+495050811+493948946+493335421+493008528+492418819+491304275+489857128
3308+488590103+487877780+487623987+487645003+488120837+489272444+490869218
3298+492375987+493469285+494183722+494664124+494907581+494913120+495041902
3288+495719617+496760032+497527808+497766639+497718839+497505821+496982986
3278+496159072+495411341+495383129+496631251+498926813+500889085+501048876
3268+499451817+497581434+496787445+497289092+498388216+499144399+499001740
3258+498144987+497233296+496792128+496927077+497225529+496783561+494939048
3248+492379927+490861679+491384742+493184653+494711925+495104094+494521066
3238+493663114+493224630+493313434+493405323+493161809+492795854+492462850
3228+491988387+491201650+489960096+488245906+486736910+486480489+487445349
3218+488352301+488365493+487880521+487388411+486733369+485842065+485112267
3208+484622555+483759464+482028770+479855479+478405019+478608214+480189168
3198+481795821+482444924+482324538+481691197+480188996+478144915+477093021
3188+477792066+478935906+478798102+477281224+475511410+474217144+473407849
3178+472991609+472820367+472313837+470891446+468939825+467621773+467532112
3168+467981133+467839416+466883351+465940621+465683144+465750247+465400482
3158+464594385+463834719+463332529+462874742+462183235+461246244+460540374
3148+460639287+461296243+461460689+460568786+459232688+458414056+458436157
3138+458773273+458514825+457329923+456000935+455478585+455602255+455370192
3128+454313044+453005129+452159455+451743843+451331058+451014302+451353245
3118+452250288+452616558+451700612+450176367+449257480+449186436+449206624
3108+448778419+448157185+447664047+447158374+446599846+446457530+447043099
3098+447838544+447960986+447202005+446261531+445844434+445811053+445446611
3088+444417789+443189798+442545006+442853682+443633165+443797011+442804996
3078+441411560+440726278+440946177+441567525+442253178+442810478+442827211
3068+442047528+440860770+439944339+439516248+439194866+438644305+438135719
3058+438069843+438113960+437564170+436501510+435702981+435462808+435305586
3048+434859192+434416624+434463197+435028350+435716116+436181442+436401855
3038+436535005+436606991+436481950+436197775+436002776+435878991+435502071
3028+434805881+433920745+432581963+430597960+428675921+427630652+427250618
3018+426916844+426742803+427237283+428347429+429392242+429644722+428913667
3008+427799524+427227089+427562149+428344974+428851903+428674779+427877335
2998+426922526+426382273+426491865+426968413+427272605+426969670+425975170
2988+424648466+423461508+422505900+421646549+421045303+420964380+421155496
2978+421034310+420391803+419522886+418776897+418292011+418105721+418273108
2968+418711136+419032547+418886832+418349578+417594023+416619283+415767470
2958+415801422+416898832+418211259+418742917+418165971+416820536+415430555
2948+414651100+414558411+414683795+414558126+414118756+413665795+413501006
2938+413597806+413609571+413150184+412134725+410988287+410355060+410428902
2928+410842544+411297019+411810431+412226700+412040181+411028206+409743363
2918+409056082+409261333+409833396+410074653+409769690+409142574+408510518
2908+408128372+408103415+408320601+408535275+408501637+408008499+407016341
2898+405860679+405095387+404966349+405201553+405407575+405453948+405360774
2888+405079768+404690740+404567356+404925516+405428049+405624333+405547892
2878+405544152+405745776+405941774+405797973+405167002+404266990+403469831
2868+402916043+402473761+401987676+401477205+401239574+401632200+402456914
2858+402865244+402358000+401554245+401399622+401861179+401913348+400870220
2848+399380184+398695644+399174505+400029373+400450867+400398412+400219061
2838+400040395+399767413+399347460+398792787+398084147+397313259+396844735
2828+396987708+397513912+397850628+397752514+397473222+397314972+397268685
2818+397066633+396533490+395918937+395705292+396000347+396375069+396381179
2808+395976332+395386480+394781750+394200065+393678943+393313159+393139946
2798+393107537+393244713+393636968+394084019+394100181+393525519+392825789
2788+392520483+392613457+392760998+392681674+392293074+391725665+391221048
2778+390842529+390380572+389683155+388919119+388359506+388058855+387901947
2768+387832616+387928703+388260079+388694366+388900444+388633373+388008399
2758+387370317+386923124+386627241+386410740+386297664+386298235+386286242
2748+386090700+385737023+385487199+385520065+385680627+385676915+385376921
2738+384782499+383905445+382852037+381901511+381341184+381213831+381272882
2728+381253436+381160519+381163974+381259318+381243956+381047129+380871118
2718+380918462+381083079+381034793+380642111+380131126+379746467+379493759
2708+379353299+379463805+379869651+380327781+380580547+380606075+380427294
2698+379921764+379046908+378077279+377404190+377162161+377148369+377079039
2688+376889979+376764967+376867563+377148712+377460814+377672717+377598732
2678+377096657+376359834+375798022+375497199+375134013+374574600+374206645
2668+374425088+375041868+375493916+375503110+375216079+374768314+374107104
2658+373309631+372709442+372508475+372530919+372574693+372732171+373081880
2648+373356261+373278478+373005096+372874145+372875401+372690168+372196173
2638+371670197+371436649+371493587+371601723+371643613+371716027+371908314
2628+372171559+372349340+372227612+371684874+370888029+370212742+369918429
2618+369981963+370218310+370474759+370720957+370996708+371251358+371244477
2608+370737718+369902667+369402019+369770117+370704252+371285595+371040568
2598+370462766+370286555+370581838+370846311+370772212+370567190+370559537
2588+370805478+371119008+371276800+371204814+371074948+371088311+371137111
2578+370936372+370473674+370029221+369837420+370010632+370582352+371313236
2568+371686445+371402498+370748283+370274991+370197950+370248920+370075622
2558+369661895+369309845+369317783+369729712+370296378+370669016+370698741
2548+370498459+370218795+369930651+369717376+369656498+369698159+369731454
2538+369747987+369796815+369808751+369621347+369228350+368927213+369100854
2528+369795873+370579183+370911159+370649970+370097324+369619091+369379861
2518+369366298+369449106+369435200+369234632+368965762+368820419+368915135
2508+369292056+369876968+370404115+370599057+370484182+370324133+370251005
2498+370152120+369996241+370005521+370303374+370647114+370772440+370740002
2488+370701025+370639719+370554283+370552827+370611450+370528127+370212942
2478+369853239+369751756+370041785+370554340+371004304+371269433+371369574
2468+371311751+371164981+371127032+371297788+371498698+371466060+371168007
2458+370862959+370820983+370986629+371042453+370854992+370640347+370593375
2448+370617817+370561508+370484838+370517591+370583695+370457398+370114685
2438+369874170+370036988+370492405+370867499+370972580+370900536+370778837
2428+370621901+370392636+370135130+370048096+370342037+370968896+371612745
2418+372021133+372231980+372423896+372677232+372955725+373209347+373398036
2408+373496978+373568593+373729155+373942972+374001252+373843060+373713193
2398+373883150+374399960+375183784+376231567+377703785+379944893+383445573
2388+388726004+396261421+406417037+419218094+434171655+450600774+468251288
2378+487290412+507644247+528651983+549382168+568909919+586380824+601376102
2368+613993696+623888780+629881192+631619539+630423501+627473468+622274417
2358+613295194+599924044+582816524+562815795+542049631+524834233+515085234
2348+514348925+521924804+534475751+546246187+553136413+555909465+557668200
2338+560433256+564065630+567291615+569378785+570690584+571691365+571877827
2328+570470371+568172639+566479179+565259384+562754917+558189664+552597074
2318+546702376+540238185+533367947+526824603+520643730+514142190+507069957
2308+499772200+492518817+485439388+478783310+472653665+466738551+460684404
2298+454538339+448635817+443224577+438326121+433877456+429859453+426232447
2288+422861148+419647270+416668711+414070870+411913913+410170825+408745836
2278+407522357+406487253+405656029+404860754+403938897+403122207+402823983
2268+403023380+403181629+402800711+401892589+400875788+400120176+399667529
2258+399374958+399138840+398835076+398283830+397520023+396865351+396528578
2248+396383692+396253569+396120133+395982643+395810944+395700238+395807432
2238+396094891+396334750+396420156+396514301+396805444+397237846+397587554
2228+397708283+397594750+397294356+396842393+396224415+395432281+394616048
2218+394025053+393709582+393483772+393236861+393050371+392983410+392957397
2208+392888095+392791152+392717167+392667311+392652919+392791866+393181265
2198+393652473+393837393+393543537+392975586+392575707+392657259+393162105
2188+393808581+394440894+395070437+395644185+396049746+396342202+396716011
2178+397230793+397742577+398098996+398281260+398377289+398505899+398746271
2168+399053662+399255771+399252859+399173934+399192723+399304628+399433152
2158+399603623+399881231+400259408+400668767+401007368+401216958+401415499
2148+401797502+402300891+402586266+402484469+402239556+402169797+402327219
2138+402595318+402862931+403046680+403183543+403437736+403810830+404038696
2128+403952918+403687132+403446930+403394190+403718199+404456792+405282820
2118+405777528+405918360+406081806+406562066+407256371+407871409+408291047
2108+408620082+408966706+409322697+409639567+409942389+410327761+410857392
2098+411512092+412269332+413140076+414082777+414935703+415477127+415601397
2088+415476927+415430412+415611048+415899507+416145733+416311007+416412919
2078+416509547+416697408+417034724+417493196+417960607+418332616+418730953
2068+419469204+420541229+421371654+421445639+420980256+420626950+420749107
2058+421238561+421796204+422188858+422394794+422625315+423096552+423760503
2048+424391475+424928844+425592224+426624502+427960486+429184365+429931467
2038+430326435+430794445+431469418+432107814+432563688+432990636+433555589
2028+434259717+435069583+436026819+437221743+438746302+440598639+442531072
2018+444090724+445013552+445560287+446304877+447657594+449649848+451949979
2008+454017532+455455542+456293562+456929645+457916863+459646444+461892863
1998+463904877+465361990+466849856+468919180+471156690+472734675+473536059
1988+474120601+474871415+475749213+476686061+477763169+479021627+480390364
1978+481855729+483533883+485524138+487756880+489976144+491931677+493633075
1968+495318424+497209767+499363812+501639728+503762592+505557306+507098626
1958+508551655+510076357+511979007+514545781+517563374+520437109+522912165
1948+525309724+528050109+531234918+534501965+537058572+538329195+538811654
1938+539755326+541953517+545076648+548131191+550530349+552599872+554961452
1928+557706634+560489794+563122928+565642758+568165157+570980527+574136724
1918+576767746+577858817+577869496+578366004+580280019+583249412+586098533
1908+587761725+588122997+587978682+588260973+589487850+591586499+593998849
1898+596200067+598045379+599437074+600214501+600661895+601306943+602065582
1888+602492416+602789270+603572580+604863705+606020623+606547398+606582292
1878+606583491+606833915+607430307+608599560+610689015+613631738+616286517
1868+616747274+614413792+611057712+608867631+608583056+609524273+610523570
1858+610707690+609890800+608515610+607228711+606616557+606991137+608056223
1848+609279960+610645098+612036392+612180022+610097706+606906330+604186618
1838+602246618+600550475+599065464+598821779+600621062+603217360+603977084
1828+602383794+600353562+598583634+596045472+592639365+589660891+587914606
1818+587037237+586348329+585735947+585611791+586070093+586386878+585721841
1808+584137232+582511847+581831562+582681975+584813519+587023303+588027682
1798+587796161+587632658+588860049+591383419+593118911+591998086+589073238
1788+587054998+587039807+588225566+589550042+590739284+591690667+592157249
1778+592648160+594524368+598747994+604681355+609650198+611052401+609483896
1768+607125229+605239940+604741377+606444487+609730722+612492581+613709806
1758+614218078+614703735+615629133+618162611+623119747+629272122+633638521
1748+634491275+632942017+631094363+630304200+630893338+632441912+634125548
1738+635779316+638619757+643370272+647454551+647272316+644106695+641054037
1728+639170747+638642601+639605176+641761392+644813365+649252520+655699693
1718+663139595+668082396+667949960+664384404+660525992+658393705+658808318
1708+661705183+665899911+669472949+672137664+675819438+681389869+686197836
1698+687427398+685288544+680420212+674637620+671173718+671351727+674061673
1688+678036702+683662359+691020538+696173444+695246390+691307283+688778544
1678+689349465+692559688+696147574+698159474+699763386+702640605+704874032
1668+703415862+700321914+700066693+703569429+707523385+708408920+706953378
1658+706397991+709300166+716843150+726640577+730412012+726868672+724060212
1648+724647009+725384803+723036701+719612262+718356544+719965368+724183168
1638+730903037+738222553+741058253+737972300+734551573+734546947+737294128
1628+741041520+745586785+751448245+757334891+760928431+762612581+765382035
1618+771087587+778221955+783257388+785423654+786635283+788272547+790876441
1608+794446738+798103611+800328243+799990500+797373470+794496651+793783129
1598+795848140+799104336+801705832+803215057+804150505+804827364+805229241
1588+805563102+806393926+807965343+809619283+810492311+811086019+813269704
1578+818291259+824842256+829088440+829803276+830085566+832116370+835169828
1568+837811985+840433126+843732554+847422608+852185459+860016044+869952818
1558+874375469+870953771+866508048+864271308+863704043+863500677+862704460
1548+861763586+862555291+866423640+872856707+880111346+884953693+882448369
1538+873496273+865118067+861185755+861420988+863361616+865291907+867671933
1528+870456350+872378760+873621913+876048083+880028766+882985596+882605534
1518+880137217+877771639+876885361+878582761+883284277+890059256+897110130
1508+902718083+905024210+902397015+896902252+892646246+892231747+895941105
1498+901099836+904769046+907877157+912633212+918124433+921740531+922705391
1488+922474499+922214537+922349258+922638802+921624085+918577823+916233547
1478+918735559+926928274+937112445+943957154+944890262+942527368+941117513
1468+941492435+941324077+938884943+936278650+936788636+940940189+947554121
1458+954410481+956738366+951552108+942757690+934927960+929988985+928237960
1448+928316313+928317284+928177024+928719847+929226292+928796031+928963361
1438+932238802+938087128+942198362+942262667+940452705+939375740+939469570
1428+939401667+938481352+937395192+936379905+934556751+932122299+931927443
1418+935772434+939974872+940370639+938010030+936089790+935400882+934637903
1408+933506627+932777742+932127325+930274417+927361962+925115514+924682740
1398+926044509+928885235+932561641+935199515+935194032+933861617+933513023
1388+933655453+931904999+929104935+929114986+933061517+938358853+942837072
1378+947006729+951864609+956636141+959879772+961541307+962909187+965049412
1368+967688085+969966857+971639814+972536086+972032954+970509052+969788562
1358+970855591+972801872+974608351+977002140+981355918+986909331+990526285
1348+989713279+985812492+983384322+986301118+994750768+1005148070+1012559588
1338+1014159788+1010838545+1005653715+1001961148+1002666675+1008304838
1330+1016088023+1022560096+1026745744+1029654201+1031913327+1033640652
1321+1035126177+1036265163+1036484234+1036363162+1038010192+1043164983
1312+1051227318+1059146537+1063881119+1065125072+1064554437+1063513336
1304+1063113686+1064818966+1068919407+1072983413+1073741823+1070478260
1295+1064772594+1057998300+1052016225+1049828485+1052070478+1055390808
1287+1056466402+1055279559+1052647738+1048199274+1041762723+1034673986
1278+1029775615+1029582929+1032581391+1033113648+1028432178+1022138630
1270+1017700216+1014989928+1013936605+1015462678+1018294952+1019359581
1261+1017643107+1014770971+1012161423+1009443824+1005908879+1002103007
1253+998660350+994985030+990985101+988274584+987122120+984902970+980023788
1243+974398988+969311929+962754307+953777539+944979923+938309968+932425606
1233+925503628+917881890+910897720+904999424+899457661+893346919+886865995
1223+881210470+877190610+874748335+873512206+873045681+872804909+872262200
1213+871208250+869872808+868483284+867071030+865783446+864988657+864829380
1203+865037200+865457809+866314505+867789121+869940254+873297419+878767624
1193+886118550+893108374+897583680+900406131+904131136+908905979+912535441
1183+914272589+915202612+915512886+914859271+914363906+915717223+919296942
1173+924320782+929833248+935380951+941264741+947990207+955216234+961774313
1163+967076903+971440960+974861916+976837666+977717718+978957102+981204807
1153+983485291+985220840+987177173+989773700+992193075+993691278+995469430
1143+1000358435+1008697178+1015709732+1016590242+1012473810+1008887124
1134+1009931994+1015851020+1024128429+1028821435+1023719412+1012073361
1125+1004544540+1006346449+1012722007+1016086082+1015353485+1014533054
1117+1016457977+1021496037+1026284187+1024952971+1016628277+1006144968
1108+999860557+1002729381+1015616530+1033423980+1047659363+1054379061
1100+1055628039+1055383612+1056576052+1058298580+1057100200+1052680176
1091+1048858657+1046695131+1043548871+1039623984+1036923975+1034099239
1083+1028727661+1022030807+1017805183+1017837850+1020053915+1021496151
1074+1022310643+1024060926+1025249825+1023854876+1021883237+1021309061
1065+1019676309+1014932704+1010061403+1007938540+1007444202+1007031189
1057+1007247290+1007290122+1004285835+998975478+995434365+994653568+994470247
1047+994509995+996416072+1000140849+1004111195+1008080171+1012604133+1016446327
1037+1016049760+1009291228+1000425024+996518983+999027105+1002115799+1000172373
1027+994948708+992319743+995297303+1001469894+1004428494+1000105784+992683643
1017+988856298+988768464+987676993+984815365+984373225+987910341+992459546
1007+995058472+994946766+992632016+989636181+986776152+982349047+975266020
997+967206312+959947504+953804495+948267129+942701723+936542266+930317534
987+925780094+924068359+924448079+924641793+921584166+913625484+903586143
977+897071124+896695803+899591753+900928509+898799649+894649408+890746108
967+888540665+887644507+886463832+884330460+882080700+881038800+881567003
957+882673208+882860755+881590646+880141100+880187873+881615603+882541743
947+881523943+879306449+877976890+878850147+882056143+887317500+893662733
937+899418541+903868433+907752145+911747220+916370096+922666842+930333354
927+936314286+938420874+938947249+941627727+946738087+951433549+953780281
917+954662047+955578250+955989208+954457767+950782733+945877451+941262285
907+938880203+939260550+940477376+940997298+941659366+943018222+943945675
897+944367541+945992527+949291668+952380648+954043154+955782929+958893610
887+962101891+963160468+961820229+959581776+957751255+957074911+957805908
877+960179367+964131667+968502463+972353565+976124829+978921581+979048706
867+978578240+980629945+982807976+980455991+975795765+974967339+978193667
857+980131039+978020055+975371444+977404303+985025070+994556596+1001809466
847+1004053972+1001349622+996584887+993558784+994335812+998064358+1003963853
837+1011100105+1014511124+1008358749+995674566+986016714+983578951+984248385
827+981674701+976924472+977264043+983992079+990368436+992688554+995148362
817+1000671165+1007175218+1013485100+1021067261+1028583518+1029945230
808+1022226235+1012726690+1009725487+1015248290+1026776811+1040516258
800+1053452635+1060838683+1057436459+1045241245+1031847080+1022040402
791+1016466886+1013501662+1009782253+1002821326+994702339+989770731+988089207
781+985168414+978068940+968915248+962919238+962865556+966048366+968019090
771+968330793+969720031+972941790+975949046+977099683+976980896+977385800
761+977812520+974740501+967422185+961569862+963493985+973377305+985973425
751+996824746+1005382674+1010982004+1010174251+1001626488+989583527+979156185
741+972783255+971008757+972519410+974688418+975338663+975155685+977773000
731+983853189+989000213+991319647+993711837+996914064+997811136+997254664
721+1000236564+1005745089+1007022394+1003662088+1003135199+1007242493
713+1007787657+999507850+988790394+983064054+982196108+982611178+984177112
703+988411988+990600185+984397668+973154464+962978175+956789022+954970436
693+955879158+957231790+957469193+956378064+954340122+949884976+944720933
683+946091497+955080200+963522540+964905839+961678826+958526398+955585274
673+951554563+943459276+926592701+907433190+905237113+922948905+943656703
663+953944926+952912278+946478811+938956387+932902069+932429319+939639470
653+949132619+950606322+943449625+942483109+959352768+985595819+995286680
643+977884706+953517350+939458377+937509639+944107580+955137709+960992716
633+950817512+929763746+913734848+908153052+906988995+907160779+911035696
623+917353802+920906451+921064815+919573979+914626666+905753894+896925210
613+893241267+896179535+899848631+901245807+904156664+909886088+912998482
603+911420783+913376088+925724583
##END=
