##TITLE=<SNM>
##JCAMP-DX=4.24
##DATA TYPE=INFRARED SPECTRUM
##DATE=29/4/2025
##SAMPLING PROCEDURE=Instrument type and / or accessory
##ORIGIN=Admin
##XUNITS=1/CM
##YUNITS=ABSORBANCE
##RESOLUTION=4
##FIRSTX=4497.3318
##LASTX=599.83466
##DELTAX=-1.4281778
##MAXY=2.1180553
##MINY=0.38050526
##XFACTOR=1
##YFACTOR=1.9725928e-09
##NPOINTS=2730
##FIRSTY=0.38933882
##XYDATA=(X++(Y..Y))
4497+197374151+197759123+198102986+198805532+199979273+201086115+201471963
4487+201105634+200620903+200710827+201494157+202437921+202977978+203120962
4477+203335091+203894170+204338955+203866129+202454343+201128282+200852330
4467+201457414+201905130+201512906+200616310+199940717+199725440+199683062
4457+199562800+199397743+199242431+199024269+198683866+198213699+197596635
4447+196842161+196118599+195667091+195456906+195258883+195219103+195839808
4437+197126709+198310890+198762957+198614444+198238975+197846660+197771285
4427+198384603+199475460+200274245+200251100+199457270+198184585+196842992
4417+196015879+196077203+196726810+197175222+196878512+196031319+195351586
4407+195420571+196191134+197118490+197690275+197713149+197202023+196308374
4397+195465729+195268748+195901872+196830679+197221347+196615206+195295097
4387+194094116+193741430+194293559+195216141+196008914+196562282+196811431
4377+196432125+195242807+193730129+192896006+193479922+195252295+197087231
4367+197929030+197611516+196566406+195199296+193940451+193434160+194077890
4357+195416552+196435539+196612411+196321382+196095559+196041865+196153560
4347+196576605+197290014+197954593+198205163+197865878+197014878+196035519
4337+195397500+195287180+195590462+196149873+196807684+197313582+197481963
4327+197366522+197162712+197074405+197282550+197792059+198274267+198350851
4317+198041390+197689248+197543756+197598780+197694566+197701908+197689943
4307+197816066+198069234+198340562+198674574+199234303+200069665+200979013
4297+201534314+201388490+200648808+199795315+199298150+199356860+199768106
4287+200057760+199944841+199508728+198897541+198261244+197860756+197880759
4277+198287351+199004703+199950582+200902641+201578717+201749213+201303552
4267+200484703+199868998+199804350+200058077+200219871+200250254+200401925
4257+200773979+201292734+202015299+202953050+203737467+204011500+203899669
4247+203643358+203210932+202679199+202494999+202893569+203353734+203126915
4237+202207067+201314883+200993909+201180601+201558941+201826235+201755786
4227+201557506+201922822+203170698+204660956+205426292+205153740+204418062
4217+204083309+204542039+205519132+206479122+207018077+206954955+206389530
4207+205775352+205648760+206095767+206596090+206579108+206064160+205443062
4197+204762302+203786886+202781602+202542892+203457830+205003988+206330246
4187+206984990+207006625+206737321+206636081+206925509+207396416+207787719
4177+208194824+208840896+209658068+210251956+210192475+209523122+208990422
4167+209321548+210305349+211021100+210827851+209811839+208615104+208035387
4157+208347568+208981916+209213132+209017209+208945263+209322999+209862784
4147+210110000+210017326+209851347+209714709+209482979+209117678+208762394
4137+208683982+209151173+210114275+211098786+211636033+211749572+211967205
4127+212799440+214092203+214993982+214816883+213843235+212949404+212592911
4117+212538476+212512218+212698140+213351615+214211256+214688373+214526398
4107+213957650+213364517+213108494+213525072+214731567+216369145+217636013
4097+217820741+217016652+216049818+215482656+215076805+214511396+214072789
4087+214207539+214916900+215947551+217065421+217815770+217616025+216597294
4077+215840116+216208530+217336478+218230233+218495443+218419086+218225217
4067+217909275+217592697+217489131+217577876+217689269+217856547+218207828
4057+218530025+218398614+217921663+217815302+218381315+218993983+219027523
4047+218686304+218475953+218473581+218462975+218339118+218243256+218412483
4037+218771273+218927779+218873314+219149552+219967177+220763274+220973806
4027+220755040+220670449+220937501+221205732+221100262+220782431+220642741
4017+220603837+220256938+219630733+219281008+219551778+220114331+220385448
4007+220234230+220095824+220437586+221291169+222335508+223234507+223719842
3997+223595381+222953585+222193416+221632841+221370653+221539533+222234193
3987+223161398+223806835+223947719+223701516+223267518+222861772+222791172
3977+223314384+224244535+224884518+224677173+223874626+223229899+223165462
3967+223590773+224268345+224987949+225584375+225988792+226120384+225885119
3957+225505722+225491067+226002162+226639245+227095392+227515989+227940982
3947+228059325+227917006+228089647+228748636+229234954+228925251+227912534
3937+226756530+226356253+227663686+230506400+232935798+233053204+231441537
3927+230253609+230461151+231049056+230729638+229838799+229828495+231348062
3917+233295509+233747456+232016389+229391959+227660680+227542579+228814448
3907+231427290+235631388+240829016+245184603+247150376+246379601+243072644
3897+238265849+234256798+233274433+235637642+238832618+239471408+237810473
3887+237164703+238812298+240571557+240884961+241195359+242063295+241583172
3878+239470653+238112562+238877339+241011311+243728989+246478349+247620468
3868+246571566+245383760+245536353+245755572+244243045+241598431+239744081
3858+240101888+243898926+251903476+260217230+260588016+253400517+245332936
3848+240328995+239375849+241719160+245648047+249710370+253605188+257188369
3838+259079251+258167229+255640927+253232454+251298982+249517136+248224222
3828+248009670+248678042+250055925+253067684+257733292+260682774+259516905
3818+257072278+255881117+254601362+251698156+248517170+247186697+248637854
3808+251872051+254307689+255123350+256592653+259922258+262447261+261855835
3798+259546064+256808761+253416426+249946677+248014278+248152050+249347350
3788+250646565+251960933+253246489+254382535+255870662+258103684+260066632
3778+260291472+259026402+258078605+259287291+263423130+269250392+274046852
3768+276432890+277194373+277186608+277253839+279158681+284011132+290087982
3758+294276125+296373657+299313138+305829395+315837881+324957492+328858307
3748+329805833+332391209+337243599+340188580+339112665+337723224+339852120
3738+346439567+355218155+362223434+365419210+365723399+365209025+366061671
3728+369714652+375556600+381179932+385048839+387765565+390341694+393204668
3718+396548323+400587138+406037239+414021015+423807773+431388221+434180307
3708+434524441+436146699+441014923+448352582+454903104+458037753+458733697
3698+459406828+461213738+464346242+468890546+474649368+480304609+483399342
3688+482597489+479212709+475297268+472362894+471416728+472734767+476479213
3678+483377526+491934658+496155526+493988920+491155861+491768649+494048778
3668+494585663+493429191+492119310+491212365+491048018+492551375+496345164
3658+501454364+505550589+507855919+510960231+517970556+528430928+536008294
3648+534314483+526409632+519528996+516851642+517460382+519213960+521124422
3638+523784734+527713107+532122828+536019897+540001995+545454846+551081320
3628+552803292+550649528+548342325+548139150+551023788+556939796+563366159
3618+567046274+568502886+570264985+572297340+573209512+573483273+573824174
3608+572748108+569410042+565926454+564574331+565315841+566765866+568727454
3598+572455553+577713266+581308534+581114545+580102416+582640171+588990992
3588+595015235+596507623+593489851+589062484+585965848+584962422+584910631
3578+585006235+586046707+588481544+591297047+593770803+596556030+600067115
3568+602674125+602259798+599860374+598318129+598690818+599865753+600604967
3558+600781551+600582244+600470866+601868979+605696308+610631190+614307861
3548+615256776+613293859+609670671+606722095+606284501+608485161+611820326
3538+614234737+614858585+614703514+615467324+617727390+620045410+620482944
3528+619282326+618546194+619070146+619637006+619366750+618844369+619121091
3518+620774109+623247442+624419596+622495718+618786414+616324745+615897424
3508+615438437+613564416+611969172+613202787+617202108+621217021+622891735
3498+622387362+621760795+622975797+625812572+627459608+625632120+622094022
3488+620916247+623653127+628100014+631306155+631998594+630517628+628604567
3478+628959368+632825737+637705383+639335497+636731267+632996158+631061886
3468+630848074+631268868+632924364+636317423+638952958+637632441+633332164
3458+630395070+631260407+634251770+635853481+634512296+631843161+630161014
3448+629828754+629307884+627678253+626182300+626261709+627070420+626518548
3438+624580710+623224900+623232998+623553292+623414599+623227318+623322016
3428+623578976+624364300+626228531+628879295+631331295+632847372+633395437
3418+633340262+632938807+632266553+631360182+630502399+630355487+630974983
3408+631221126+630171469+628752628+628999375+631624575+634911817+636213116
3398+634161483+629575118+624914299+622567815+623239948+626198556+630449520
3388+634531816+636149904+634191579+630434895+627465167+626000216+625471550
3378+625725912+626849659+628443272+629974277+631419889+633246954+635741922
3368+638260458+639512263+639256572+638922318+639527432+640117921+639401913
3358+638176880+638958034+643252388+649537641+654377401+655741248+654330142
3348+651825747+649476966+647920459+647204028+647235030+647946324+648878319
3338+649120050+647969228+645267580+641037164+636557704+634618537+636516005
3328+640373733+643422507+644482800+643357723+640431265+638112942+638996046
3318+641811006+642601346+640777424+640317651+643657349+647839479+649132378
3308+648550531+649123072+650703389+650444556+646866330+641249767+635908958
3298+632900976+633356760+636627323+640594856+643568815+645413949+646699294
3288+647783881+649161628+651723857+655836551+660312143+662768132+661592835
3278+657767741+654192779+653055977+654076264+655313324+655536683+655348737
3268+655869728+656851036+656681280+654598887+652096849+651166365+651856084
3258+652619532+652768257+653226761+654655633+656228578+656697778+655807301
3248+654376736+653461844+653719409+655112264+656774528+657421099+656234501
3238+653685083+651435653+651156454+652761186+653735423+651687719+647719822
3228+645733880+647910065+652072675+654465512+654381631+653779781+653235523
3218+651546004+648686807+646224896+645350313+646287384+648326205+649540118
3208+648408635+646297960+645733215+646453937+646420457+645653021+645864052
3198+647511873+649211666+649187070+647053067+644622823+643823781+644191635
3188+643753739+641650678+638676478+635916633+633941145+632798180+632168893
3178+631548430+630348416+628344283+626112258+624558229+624132299+624764668
3168+626062945+627076222+626823190+625516754+623896913+621763152+619002884
3158+617055015+617672033+620709204+623959401+625418248+624579743+621977024
3148+618701627+616096369+615105876+615484245+615748820+614435495+611657399
3138+608989714+607654754+607163012+606010619+603757685+601904151+602364588
3128+605304825+608736984+610257050+609343669+607532317+606267157+605647781
3118+605189156+604330346+602320049+599170534+596304811+595067328+595251407
3108+595837907+596096559+595552060+594203442+592613636+591396641+591094960
3098+591832663+592779524+592832101+591830125+590320333+588708711+587569130
3088+587735380+589158270+590472865+590314591+588706596+586836019+585573095
3078+584631975+583586004+583052866+583774313+585060444+585491934+584882046
3068+584249798+584216379+584567554+585026783+585552125+585737774+584875761
3058+583162189+581847232+581671010+581825960+581139020+579642160+578203920
3048+577270838+576647655+575991415+574975600+573436438+571684128+570252778
3038+569456817+569572365+570874510+572761222+573548963+572208504+569834039
3028+568465659+568752594+569235512+568185432+565919384+564175173+563516274
3018+562832054+561423003+559959320+559026117+558373624+557833476+557762468
3008+558182294+558351204+557781081+556952124+556393363+555877931+555244717
2998+555039668+555375916+555160534+553574354+551475946+550314549+550332679
2988+550479953+549721945+548129299+546724599+546351427+546795970+547093481
2978+546612617+545607076+544707594+544155541+543743389+543128183+542040333
2968+540584265+539361407+538922786+539082208+539040207+538280506+537245353
2958+536738926+536677768+536132846+534739689+533206630+532236018+531806825
2948+531603952+531379021+531026940+530663799+530247840+529342073+527905828
2938+526908324+527351901+529050546+530798806+531404101+530424485+528232950
2928+525544114+522929187+520854046+519829287+519942901+520379769+520147647
2918+519316877+518861577+519304791+520125347+520431621+519711806+518133905
2908+516517449+515666616+515462655+515068694+514119053+513080697+512381247
2898+511788039+510821235+509506097+508502127+508432629+509124343+509694949
2888+509394477+508206610+506706820+505592771+505369865+506132527+507346591
2878+508061451+507614188+506036106+503817770+501642703+500215099+499826576
2868+500047670+500119796+499667427+498943744+498413144+498158782+497805009
2858+497042105+496021033+495116324+494614913+494654738+495019661+495188571
2848+494877131+494205360+493293368+492107798+490737092+489442138+488392541
2838+487536238+486714957+485837593+484939169+484100967+483418106+483029765
2828+482920261+482756065+482263145+481578290+480907607+480236712+479544636
2818+478819835+477949452+477043444+476500425+476338072+475999860+475137696
2808+474033105+473101866+472469406+472066290+471795702+471611351+471565906
2798+471677072+471725660+471309339+470204265+468738709+467640615+467335369
2788+467502345+467455751+466879192+466010773+465177737+464415981+463610926
2778+462734892+461726752+460391218+458732851+457206017+456351406+456356936
2768+456981539+457592575+457457055+456478950+455429051+454984538+454853550
2758+454266717+453072233+451881012+451230513+450991048+450646762+449955895
2748+449139961+448450816+447838662+447182573+446597191+446264327+446074629
2738+445703783+444996357+444077778+443197454+442606119+442435729+442553089
2728+442614791+442288303+441375224+439946109+438497233+437596724+437170461
2718+436623998+435826798+435272297+435131428+434926622+434289479+433380570
2708+432490455+431778164+431376830+431291106+431199248+430691582+429739524
2698+428728000+428017794+427644863+427422349+427077671+426316460+425099524
2688+423900749+423334947+423460194+423769157+423863372+423700233+423158635
2678+422019688+420622693+419836402+419966031+420285327+420026222+419255099
2668+418454909+417854630+417429425+417095292+416789048+416542271+416309272
2658+415737760+414569231+413229889+412474238+412477924+412703097+412582896
2648+412034045+411331061+410740935+410369575+410238980+410370693+410714646
2638+411038778+411007745+410457293+409600628+408866370+408469115+408262223
2628+408025115+407679530+407225559+406733938+406427846+406514295+406872994
2618+407113033+407028155+406793344+406581950+406240504+405568582+404698683
2608+403963004+403556352+403422040+403273375+402827019+402230728+402014923
2598+402403234+402989160+403248507+403045574+402565254+402093002+401904995
2588+402076050+402335458+402283335+401805040+401200228+400842557+400756440
2578+400661651+400389824+400035084+399760538+399690406+399863122+400081345
2568+399987705+399446438+398640476+397786017+397085178+396850608+397213356
2558+397783328+398026963+397893588+397703164+397592119+397465723+397327785
2548+397249948+397123039+396783649+396322697+396025277+396065888+396397876
2538+396863057+397302404+397607710+397728576+397676604+397551266+397462400
2528+397386164+397222542+396988093+396801778+396744126+396878045+397273094
2518+397857056+398380525+398636307+398613735+398398534+398022914+397488114
2508+396893667+396467253+396425433+396799845+397390998+397878691+398023609
2498+397813665+397410276+397002294+396737961+396650243+396585701+396383100
2488+396139737+396081631+396218904+396401653+396652721+397140746+397830435
2478+398414669+398621380+398434642+398061560+397817080+397887333+398049504
2468+397897818+397534435+397597920+398332843+399136448+399368238+399132218
2458+398884504+398757928+398708977+398885682+399342766+399717751+399676959
2448+399429759+399364068+399443900+399355578+399004221+398548860+398145743
2438+397890415+397872134+398117068+398495045+398781436+398888462+398945269
2428+399025433+398958534+398629961+398243161+398026026+397956407+398005418
2418+398331876+398990322+399713733+400195986+400397469+400421824+400282345
2408+399963864+399611782+399496960+399751050+400194385+400516189+400652133
2398+400882473+401464138+402265296+402905098+403153144+403055847+402808496
2388+402613509+402527453+402396344+401970716+400991221+399178812+396418151
2378+393026451+389539691+386165667+382788955+379531718+376834602+374857967
2368+373281728+371886879+370867982+370386393+370295563+370515750+371382537
2358+373465595+377012788+381643210+386726393+391693002+395673196+397518602
2348+396588481+393409444+389726337+387457569+387079834+387608954+388071264
2338+388333603+388593766+388626944+388088427+387311957+387123316+387914985
2328+389305181+390560914+391188116+391349925+391725182+392776501+394273693
2318+395645608+396595733+397233480+397804540+398511573+399488530+400720603
2308+402034201+403311085+404560080+405698906+406529434+407010781+407341076
2298+407788158+408572697+409697351+410783751+411392853+411546564+411659573
2288+412049999+412672306+413142594+413025355+412332130+411605365+411294952
2278+411262409+411063223+410523890+409912794+409636193+409823414+410202448
2268+410392358+410296633+410158121+410203385+410295907+410131047+409804559
2258+409871911+410649953+411736444+412485871+412778033+413051159+413652707
2248+414373127+414654048+414168985+413137336+412114723+411548105+411490301
2238+411656250+411723693+411558983+411194362+410736523+410323495+410030215
2228+409791747+409526568+409308979+409296591+409516868+409854839+410208371
2218+410525794+410752326+410880021+410993967+411175718+411455462+411875832
2208+412430363+412969817+413396321+413860536+414505595+415181053+415703313
2198+416182092+416794034+417471093+418070465+418634062+419246518+419814737
2188+420206855+420511225+420972629+421678424+422433078+422987036+423314793
2178+423596440+423972634+424409563+424782373+425004887+425067827+425026642
2168+424990081+425071272+425331979+425779091+426343171+426857212+427224613
2158+427634227+428361022+429320423+430143699+430727933+431338243+432153965
2148+433101279+434136886+435326898+436580093+437622801+438392563+439226868
2138+440461450+442032370+443731529+445668551+448080333+450784096+453287826
2128+455459207+457659535+460170729+462870111+465514166+467984296+470159242
2118+471867768+473133382+474281846+475671287+477408065+479384157+481546714
2108+484155900+487796402+493002989+499785210+507575571+515585696+523034159
2098+529156605+533477187+536103355+537285420+536765879+534085745+529336332
2088+523091087+515905325+508237431+500476078+492841845+485551867+479028480
2078+473631438+469330769+465866248+463034790+460681507+458624677+456761413
2068+455192064+454124821+453594916+453370831+453235401+453174424+453135596
2058+452877518+452306821+451729869+451528144+451740747+452146160+452654098
2048+453430387+454665724+456439669+458796336+461692275+464961357+468692599
2038+473473739+479835106+487614650+496211245+505286407+514883830+524910174
2028+534700709+543202455+549635647+553929336+556536407+558000754+558640375
2018+558400759+556970738+554124172+550038129+545326366+540630254+536094290
2008+531417094+526421175+521300946+516332283+511652428+507358618+503611724
1998+500581684+498378667+497081447+496675671+496824517+496954931+496808563
1988+496573328+496431553+496499660+497072291+498315726+499880241+501273609
1978+502419204+503590542+504993157+506498659+507805095+508978942+510518407
1968+512571309+514584929+516137689+517528671+519170690+521019390+522854250
1958+524661312+526559566+528585032+530616661+532496907+534327477+536557990
1948+539577938+543318970+547345304+550993511+553424420+554360343+554830812
1938+556218470+558703648+561366921+563620399+565791387+568273181+570807732
1928+572924391+574765838+576901533+579339211+581499320+583304085+585159795
1918+586735338+587175047+586710924+586637377+587759191+589726339+591570687
1908+592619559+593002219+593295802+593827610+594510017+595206022+596012739
1898+597173411+598647669+599853847+600387952+600827964+601792834+602492162
1888+601652267+599713825+598323447+598133870+598480875+598714024+598874776
1878+599165155+599411600+599271154+598961618+599511012+601671243+604334153
1868+604794047+601833867+597239102+593262261+590531243+588420809+586302881
1858+584191057+582476760+581331136+580472144+579575201+578804864+578765643
1848+579979496+582262526+584099079+583217969+579413241+575157382+572350098
1838+570865264+569746955+568715428+568546760+570014008+572284347+572860936
1828+570532763+566958526+563817833+561029948+558290408+556233397+555425531
1818+555518054+555817680+556154411+556861294+558059797+559207295+559557201
1808+559005993+558175405+557924065+558942539+561208345+563590183+564696466
1798+564499032+564454432+566061884+569535743+573010507+573837409+572108669
1788+570465985+570773890+573018666+576269043+579631645+582245786+583516930
1778+584100046+585808904+590145621+596832812+602954473+605056023+603285040
1768+600217230+597705099+596952832+598662475+601887653+604358145+605313285
1758+605894528+606591076+607259403+608804850+612498442+617912435+622625709
1748+624783644+624870062+624489698+625132582+627663508+631521356+634661021
1738+636368973+639181031+645345357+651747305+652318093+648031958+643746245
1728+641356612+640871639+642231739+645142787+649196981+654880443+663041167
1718+672235593+677656052+676794341+673015479+670245300+670150179+673062979
1708+678585811+685069162+689983194+693195922+697937539+706072821+713538023
1698+715477372+713768876+711575347+709831982+709582878+711757129+715663988
1688+720331152+726830639+736065495+743567561+743945387+740500597+738540097
1678+739823750+743972582+749450996+754651177+759701969+765151617+769070502
1668+769000037+766921391+766813942+769665040+772944486+773857202+773107654
1658+773741836+778441634+788859522+802968222+810589885+808155773+805518909
1648+807086536+808910216+805703290+799743650+796263144+796745397+800332990
1638+805890088+811073167+811199652+805173778+798359255+794451671+793198778
1628+793194004+793868736+794889627+794474212+791167753+787228622+786234745
1618+788381197+789416531+785523632+779337187+775086526+773585919+773246529
1608+772388202+770586700+768443512+766811222+766029282+765591024+765028817
1598+764737531+765044228+765208605+764407085+763051456+762098008+761717765
1588+761435423+761026414+760545731+759899221+759356535+760142101+763524101
1578+769019497+773194496+772152031+767804979+765148414+765402655+765859224
1568+764302536+762193432+761169458+761206927+763621277+771847026+785599777
1558+792867969+786502462+776749032+770287558+767117012+765548177+764321935
1548+763614267+764952551+769720819+777868368+787793186+796023105+797294913
1538+791908357+786696874+785133780+786170626+787212668+787732934+789898604
1528+795292956+802839682+809893458+815348364+819874719+823748280+826865162
1518+829611228+831915530+833515307+835577637+839804427+846664395+856067133
1508+867744501+876937901+875897671+868430051+863331155+863645587+868433979
1498+874681098+878703868+879630967+880804149+885393294+892554580+897821600
1488+898451370+897049994+896889908+898656540+901764719+905543159+909743842
1478+914972729+921949514+930295222+938283289+942935647+942366249+939395132
1468+938471779+940784844+943894595+945123314+944989637+945351871+946592617
1458+947712074+947354433+945591668+944141886+944354005+946582706+950040791
1448+952779484+953543536+953697700+955445840+958999046+962936605+966753903
1438+971262068+975481244+976031183+972891155+969629053+967993984+966986992
1428+966160936+967363730+971854189+978117444+983927573+988859675+992574297
1418+993144904+990796848+989103642+990501452+993731464+995248448+993435767
1408+990456853+988927299+989063212+989861167+991007275+992361574+993231383
1398+993859703+996030388+1000281110+1004021537+1004356879+1001687562+998217209
1388+994918183+991146210+986731413+983642633+983641243+985726960+987644311
1378+989199488+992369128+997969495+1003693206+1006413830+1005989289+1004840704
1368+1004736638+1005971160+1008650689+1012704340+1016417330+1017559631
1360+1017009330+1018505404+1024503238+1033492133+1041175316+1044021701
1351+1042136802+1038860015+1037449755+1038603780+1040529290+1041442550
1342+1042340702+1045964011+1053041658+1060100087+1062675733+1060403701
1334+1055564727+1050433378+1046872195+1045800842+1047065096+1049476123
1325+1051651341+1053471697+1056128927+1060476221+1065814491+1070268992
1317+1072548034+1073385028+1073741823+1072882590+1070385023+1067860262
1308+1066535938+1065295736+1062936198+1060090055+1056903071+1052192577
1300+1046432727+1042461447+1042133297+1043769454+1044036446+1041492830
1291+1037329978+1033572871+1031214421+1029182791+1024978119+1017685331
1283+1009099221+1001784557+997402877+996107803+996231629+994472552+988535151
1273+979651953+971533835+966715105+964019621+960183891+953519000+945259228
1263+937667418+931857047+927392091+923244105+918706569+913658195+908143642
1253+901882140+894665498+887134967+880191602+873734600+866836741+858851333
1243+850096736+841324433+833023747+825573169+819443954+814876867+811508222
1233+808642983+805974935+803723330+802048556+800673952+799223746+797734078
1223+796743766+797003204+798892756+801846771+804461396+805619107+805830984
1213+807002172+810374201+815144463+819606821+823067928+825737969+827777093
1203+829884505+833341321+838200782+842911640+846541898+849757829+852933572
1193+855281567+856575192+858025579+860685770+864292339+868107944+871800751
1183+875290080+878487156+881974732+887354882+895438494+904300721+910928264
1173+915189622+919955957+927115671+935369038+941679249+944209268+944160680
1163+944447615+946343271+948541030+950277023+953073188+957703730+962604829
1153+966614303+970173553+973214833+974133714+971460046+966104734+961288482
1143+959550616+960907755+964520851+969855435+975578178+980116137+984128633
1133+988583376+991651791+991826441+990668368+990974158+994462641+1000749525
1123+1006653144+1008189768+1004741836+999213444+994403537+992168310+993603770
1113+997760700+1002219854+1005245603+1006441991+1005166436+1000194147+992580099
1103+985774218+982488366+983604560+988540287+994687571+997834186+995367984
1093+989396680+984990344+985252804+989244692+993952950+996438430+994485545
1083+988640183+982247421+977294832+973090704+968830011+964046514+958625511
1073+954539831+954480426+957776007+960148961+959040322+956253040+953880026
1063+951193667+946763581+941619723+938046151+936812415+937074996+937678901
1053+938967086+942256987+946541672+948533053+947064355+944612113+943492777
1043+942920176+941187810+939503488+941226729+946944759+952274871+952235529
1033+947173678+941524783+938404094+937884493+938576025+939390660+940263672
1023+941375575+941755878+940288872+938608599+940080862+945497998+951965636
1013+955232512+952508625+944745488+935629262+927567044+920020559+912017989
1003+903811517+895785378+888026472+880457567+872892288+865942033+861048488
993+858689252+857709515+856672005+854763961+851620005+847523810+843245833
983+839149698+835474840+832925302+831545017+829923484+827036851+823758312
973+821070624+818410977+815204292+812222659+809917148+807081641+802846330
963+798703843+796722856+796756940+797162263+797650983+799462577+802813938
953+806317770+809398755+813267239+818727765+824823923+830447557+835665022
943+840523033+844211730+846648441+849535738+854527729+861644174+869901348
933+878268872+886207566+893917461+901607231+908268194+912199287+912708554
923+910365333+906383839+902537836+900369870+899590770+898709962+897068668
913+894871271+892692004+891350819+891143595+891413670+891831562+893248893
903+896016412+898731476+900139198+901251645+903919511+908026221+911587768
893+913552196+914882866+916096537+915686622+912821866+909684920+909197348
883+911818077+915520069+918797098+922372302+926662003+928882303+925838485
873+919611913+915967513+917418988+921569573+925512329+928675563+931094627
863+932550816+933768174+935077873+934612480+931400417+928625706+930494892
853+937437109+946000315+952615772+955655421+955394653+953674011+952235831
843+951409171+951162122+952231480+954808697+957423201+958996206+961045300
833+964266308+966316007+965340803+962117922+958820890+957146237+957798670
823+960875968+966058382+972487162+978503670+982137070+983150710+983518927
813+984681049+986019273+986623540+986831429+987076907+987156316+987097877
803+986763805+985699281+983900801+981124398+977410743+974556139+973897301
793+973906789+971835757+966977444+961495948+958246779+957929083+957577969
783+953058080+944083749+934073420+925828332+919897035+915500368+911846057
773+909202304+908242269+908789064+910084018+912331030+917104858+924525401
763+931564734+935805726+939197395+944511009+950093368+951976212+950785081
753+951044821+953483285+954444529+951983282+947803448+943676916+940415358
743+939960964+944406823+952718870+960903102+965979698+967554094+965438523
733+959935634+954486409+953240164+955667930+957380716+955944712+953087329
723+951808813+952460822+953443641+954717383+958482527+966156706+975474234
713+981138056+979288208+971903563+964317374+958008613+951137042+944247945
703+940406414+941495473+946289909+952167904+956734508+957525392+953396382
693+947278408+944301066+946348468+949971656+949880221+944634111+938466098
683+936504450+939358570+942910749+942631187+937684158+931059878+925367109
673+919731449+913389934+908639191+910714453+920659395+926616315+921724039
663+912123686+906702985+909933480+918468887+924392389+923642176+918710195
653+913583379+911082731+913044379+918322881+923039842+925444584+926007213
643+925486706+923348291+916949244+908724945+907177624+917363269+934778368
633+946820267+941009594+917207715+889589506+872200695+868595033+873856735
623+882118864+889214097+891289118+887323880+880336097+874187604+871112481
613+870418532+867756528+860920491+854336036+853400959+856225769+855202642
603+850086644+847758591+850894207
##END=
