##TITLE=<SNM>
##JCAMP-DX=4.24
##DATA TYPE=INFRARED SPECTRUM
##DATE=29/4/2025
##SAMPLING PROCEDURE=Instrument type and / or accessory
##ORIGIN=Admin
##XUNITS=1/CM
##YUNITS=ABSORBANCE
##RESOLUTION=4
##FIRSTX=4497.3318
##LASTX=599.83466
##DELTAX=-1.4281778
##MAXY=2.1247647
##MINY=0.38643557
##XFACTOR=1
##YFACTOR=1.9788413e-09
##NPOINTS=2730
##FIRSTY=0.39664665
##XYDATA=(X++(Y..Y))
4497+200443889+200154712+199935356+199964544+200018927+199833141+199515997
4487+199214049+198861363+198527622+198591825+199339669+200495576+201311629
4477+201347684+201053809+201134834+201620550+202103585+202404253+202505520
4467+202414825+202389659+202763943+203446981+203906898+203655253+202780449
4457+202017198+201886368+201888009+201275589+200372126+200129486+200618214
4447+201029094+201066399+201101806+200932798+199857750+198305856+197850773
4437+199018082+200465953+200882164+200407608+199764480+199300391+199167347
4427+199372395+199523467+199191940+198434970+197656192+197208594+197244920
4417+197720244+198477636+199337485+199951712+199826394+198873562+197677307
4407+196933966+196863724+197250583+197787971+198217692+198222602+197568043
4397+196624834+196280717+196879522+197775772+198386174+198952223+199791288
4387+200607114+200882044+200340107+199052134+197541567+196471428+195942172
4377+195571308+195283758+195386561+195904672+196458280+196781750+196892685
4367+196832775+196713661+196945246+197916618+199326415+200204683+199940718
4357+199104183+198856829+199690548+201089366+202253467+202794425+202845706
4347+202758220+202551273+201759197+200263344+198845173+198162360+197856406
4337+197480918+197417348+198013984+198693363+198658121+197910172+197120008
4327+196907821+197292090+197634023+197471596+197347075+198049030+199139861
4317+199327575+198420181+197657141+197909765+198800940+199676979+200262681
4307+200292335+199602053+198709493+198482501+199211203+200361071+201082890
4297+200935268+200369987+200340981+201133494+201955179+202055693+201682554
4287+201473499+201559706+201701651+201771080+201697253+201383362+201038417
4277+201233736+202282895+203685404+204418850+203927546+202760042+201991369
4267+202063554+202514435+202781142+202801729+202747496+202686818+202769650
4257+203322958+204395762+205425749+205699624+205152642+204563762+204861402
4247+206123863+207370224+207661102+207118277+206420675+205860831+205454063
4237+205271123+205185624+204957036+204709969+204693071+204774352+204725195
4227+204613808+204641233+204983437+205680482+206390238+206656326+206596356
4217+206834748+207656087+208546885+208648679+207693859+206404741+205677666
4207+205604682+205708118+205813722+206190942+207041514+208186984+209142046
4197+209458903+209067903+208238416+207396309+207036709+207373613+207952809
4187+208055446+207583962+207179001+207393673+208017418+208387289+208312890
4177+208340195+208945160+209927360+210829619+211492536+211901941+211920420
4167+211540248+211101009+210969726+211129804+211242487+211030315+210509177
4157+209954273+209706693+209933248+210485622+210987212+211144278+210946865
4147+210512324+209913986+209357938+209273388+209821620+210502430+210729045
4137+210656649+210945841+211799846+212673354+213002531+212916355+212938404
4127+213216496+213509543+213726278+213941192+214113122+214224916+214380732
4117+214509093+214478761+214554274+215030848+215509697+215316892+214568325
4107+214088543+214330234+215025833+215850877+216690620+217168143+216782383
4097+215817563+215362751+216087658+217455904+218298508+218013970+217234725
4087+217184062+218218205+219398346+219795581+219532113+219115464+218668650
4077+218273538+218159274+218205494+218030582+217664823+217516643+217732791
4067+218038654+218155960+218162948+218460002+219292606+220261206+220634872
4057+220263209+219697763+219364038+219210752+219181474+219443256+220031428
4047+220660505+221021098+221051897+220866969+220598215+220414356+220522144
4037+220905780+221197924+221150363+221080151+221430202+222091101+222567464
4027+222623700+222461002+222403215+222517780+222508533+222153843+221801789
4017+221976159+222578986+223062970+223213936+223196270+223048828+222696970
4007+222364735+222525837+223311438+224152732+224296529+223671218+222874171
3997+222433110+222503126+223031373+223847983+224762832+225611235+226078592
3987+225876902+225293082+224949115+224918287+224758917+224371064+224156527
3977+224431637+225124435+225908695+226445270+226575287+226305252+225727863
3967+225155083+225123847+225895788+227007885+227663829+227634476+227423629
3957+227444805+227521116+227438148+227543601+228381010+229869905+231114986
3947+231342399+230968432+231025692+231561304+231527101+230477024+229260799
3937+228769676+229167363+230321464+232014414+233559710+234039252+233475070
3927+233083633+233830227+235096137+235504788+235113275+235413386+237014120
3917+238450560+237849752+235331110+232681172+231220018+230964155+231669709
3907+234019206+238986352+245859629+251757980+254295040+253431592+249899485
3897+244588538+239627161+237654869+239581422+242996931+243896614+241904699
3887+240456813+241660206+244090774+245717533+246584234+246486823+244393113
3878+241699183+241365849+244053484+247944543+251674048+254609081+255163910
3868+253238456+251523172+251468261+251211540+248770897+245239302+243030350
3858+243822998+249068056+259370185+269050315+267909001+257849828+247654794
3848+241716698+240445774+242357914+245697608+249765236+254857007+260468938
3838+264108607+263849928+261003495+257648319+254418596+251515235+249713910
3828+249416073+250002318+251506018+255545633+262142219+266671179+265763002
3818+262657619+260299989+257454159+253156768+249313346+248086337+250281600
3808+254772668+258791109+261408622+264656959+268703081+269904878+267057150
3798+263157537+259503590+255344244+251331452+249331238+249775688+251424977
3788+253265475+255218851+257141292+258782554+260612043+262992745+264783678
3778+264463914+262513219+261061086+262111616+266372349+272325400+277021894
3768+279315335+280401016+281197084+282274089+284916814+289699574+294833063
3758+297979742+299603926+302466774+309266767+320595359+332008922+337104368
3748+337174309+338465204+343347454+347545747+347233061+345316613+346271749
3738+352449412+362998805+373288132+378326499+377864172+375432746+374049139
3728+374886954+377916402+382333855+387127429+391631781+395335155+397844836
3718+399485375+401688815+406806912+416608551+429046981+437826494+439993127
3708+439485227+440628318+444564317+450095764+454871506+457254679+457842610
3698+458008878+458529579+460200541+464309555+471860132+481428002+487477862
3688+485104720+477252842+470263298+467575151+469662927+475133831+482320637
3678+490768579+499026126+502367808+499817675+497219710+498417260+501091100
3668+500916489+497937523+494895907+493695194+495041120+498353554+502277023
3658+505746358+508354233+510800358+515266757+524144616+536885309+546822101
3648+546165403+537234171+528657823+525313310+526417967+528128357+528158899
3638+528102693+530058630+533329527+536361686+540101266+546758124+554942176
3628+558735733+556436960+552954854+552542558+556202920+562101451+566806228
3618+568836322+570426349+573326578+576095057+576841154+576293133+575923428
3608+574898833+571849264+568272337+567112017+569331391+573562365+578336119
3598+583205899+587028492+587396390+584216096+581516172+583632833+591341696
3588+600634140+605311326+603267437+597600957+592083576+588815871+588474540
3578+590761024+594771633+599118693+602493870+604649689+606521286+609461877
3568+613727370+617542373+618894865+617829848+615869634+614238884+612433975
3558+609316814+605755008+604043474+604678063+605677115+605677718+605643440
3548+606942317+610179419+615440169+621322074+624611225+623456688+619961811
3538+617818040+618439376+620147898+620491217+618978361+617398515+617413636
3528+618325940+618170817+616786939+616093614+617256886+619119026+619650962
3518+618318591+616830795+617672134+621397919+625129909+625049847+621398461
3508+618619439+620155730+625135210+629290942+629074432+625897271+624704299
3498+627599046+631160671+630942776+627296451+624421041+625065510+628566773
3488+632888592+636647148+639156045+639747320+637812710+633826017+629880530
3478+628376951+630091075+633311972+634930072+633409504+630569397+629258953
3468+630343248+632603165+634325664+634198493+632010565+629476909+628506591
3458+628649063+628279720+627430007+627192112+627526153+627637902+627543864
3448+628267551+630861811+634703261+636720101+634280121+629146060+625891427
3438+626410231+628192972+627989655+625889439+624309714+624549839+625991369
3428+626869275+625644616+622851618+620548688+620100006+621419907+623794826
3418+626765357+630014628+632707565+633728184+633027209+631906588+631525738
3408+632420090+634958024+638350068+639974914+637685961+632460512+627296812
3398+624431463+624751710+628244960+633858005+639289120+641895007+641078969
3388+639160684+638935740+640447091+640865893+638420913+634971157+633151488
3378+633125523+633457999+633787101+634911999+637004564+639104840+639849491
3368+638695014+636564075+634980735+634735369+635236402+635218028+634391689
3358+633724509+633985779+635228570+637462222+640297872+642305074+642270736
3348+640846495+639742139+639691898+640363957+641741811+643927269+645469705
3338+643880341+638937247+633844150+631865804+633100162+635408754+637669274
3328+640282209+642930566+644164502+643506720+642271398+641690847+641688256
3318+641619038+641101319+640339800+640441609+642757792+647030514+650616838
3308+650594067+647030755+643216354+642152722+643694193+645621936+646606290
3298+646974007+647277867+647215517+646377551+645176085+644156851+643192679
3288+641852235+640582937+640960473+643995764+648700361+652737476+654436119
3278+653922978+652259516+650522801+649818572+650823769+652804043+654332743
3268+655211854+656229040+657280804+657765632+657541592+656394766+654223404
3258+651916860+650410811+649612846+649286756+649594954+650801721+652686090
3248+654115571+654134306+653225255+652525786+652164575+652061501+653459777
3238+657399662+661917086+663050057+659930909+655719634+652619643+649986888
3228+647669741+647367387+649496338+651638602+651635831+650583283+650827866
3218+652700548+654881066+656416573+657104476+656840014+655528727+653409776
3208+651125401+649587665+649753932+651871377+654562566+655453485+653646045
3198+650597501+647751248+645076385+642540800+641128849+641589459+643215450
3188+644166791+643130690+641061438+640115338+640765530+641503675+641114210
3178+640059253+639377917+639351229+639666897+639937203+639785273+638893752
3168+637372883+635789965+634408256+632831241+630600722+627862544+625305032
3158+623596871+622901860+622722098+622421791+621968350+621606055+620932128
3148+619224027+616619707+614114726+612559519+612250779+613051154+614344428
3138+615312155+615776922+616328798+617107125+617132848+615506978+612931935
3128+611194978+610909913+610758947+609652965+608249749+607149790+605748442
3118+604087089+603520814+604341912+604705232+603119001+600189434+597180287
3108+594791151+593579384+594062766+595987436+598207112+599607195+600122083
3098+600509138+600926615+600580946+599089355+597201372+595630683+594141743
3088+592405690+590992112+590672770+591118319+590976510+589414315+587398197
3078+586835959+588268573+589803599+588921957+585633891+582839145+583188067
3068+586327035+589112503+588618157+585307680+582448235+582367330+584293266
3058+585692687+584904842+582464019+580354466+579986447+580710014+580436816
3048+577955631+574343884+571867156+571884385+573804116+575626676+575595170
3038+573724476+571857698+571932518+573737127+574977328+574219484+572519817
3028+571360762+570709305+569845255+568909034+568852407+570141826+571946434
3018+572811328+571972158+569835074+567515216+565947961+565023729+563858709
3008+562394107+561676986+561997775+562242598+561477405+559965030+558612176
2998+558258978+559083931+560149371+560029730+558096566+554838861+551285910
2988+548602613+547785671+548970811+550921687+551762966+550730780+548893220
2978+547774225+547655910+547485606+546342274+544824538+544475315+545695155
2968+547067045+547181685+546138716+544789115+543644940+542877397+542535162
2958+542450101+542146903+541109416+539322398+537393992+535912522+534961482
2948+534426293+534347255+534727201+535304560+535853907+536464037+537194712
2938+537656949+537296581+536009210+534244904+532684758+531821430+531507328
2928+531134431+530524059+530086401+530051762+530202728+530059834+528836682
2918+526043924+522653627+520611545+520814018+522315549+523489304+523455689
2908+522393743+520882272+519426525+518633500+518999892+520022318+520282503
2898+519065917+517275044+516184001+515905021+515471339+514084207+511953088
2888+509999019+509071534+509386961+510381857+511050603+510698850+509437745
2878+507801091+506139136+504715226+503966780+503972503+504013498+503455718
2868+502704711+502526515+502868569+503091946+502904082+502409556+501721562
2858+500997333+500440306+500164518+500310515+500943838+501578909+501360863
2848+500025299+498118370+496140385+494149268+492295110+491142682+491175031
2838+492204446+493456274+494122159+493773358+492413968+490395862+488309713
2828+486756856+486054254+486069465+486277179+486093080+485372345+484491276
2818+483805722+483303756+482893749+482591545+482260636+481643969+480764768
2808+479928730+479386552+479200706+479201248+479021336+478415844+477412514
2798+476100895+474667799+473542750+472994308+472760719+472472883+472127576
2788+471812270+471353377+470578605+469668168+468944903+468405647+467713467
2778+466660196+465462496+464577632+464289976+464395339+464308802+463685810
2768+462793777+461970841+461060013+459820625+458514248+457592937+457136514
2758+456916420+456668343+456142762+455270700+454383848+453909412+453852001
2748+453902002+453887936+453722873+453148466+452054050+450919905+450435228
2738+450671346+451043340+451085058+450812162+450280978+449379849+448239017
2728+447272645+446599712+445921870+445074145+444225215+443519300+442925254
2718+442350365+441620413+440565395+439399231+438730666+438841541+439189198
2708+439029255+438308038+437462452+436647589+435723056+434736834+433881971
2698+433116536+432221552+431164938+430244350+429849856+429978924+430075281
2688+429666238+428981919+428511942+428253564+427918287+427570721+427471894
2678+427491413+427223095+426606308+425989912+425589755+425218785+424643112
2668+424033313+423870298+424326300+424845646+424572810+423222908+421323148
2658+419664234+418743617+418568674+418734611+418792473+418642952+418449515
2648+418262615+418013273+417767727+417616399+417327720+416501531+415185967
2638+414043177+413732178+414256434+414990211+415290397+415036055+414533155
2628+413988899+413320816+412476916+411664463+411187648+411207196+411575546
2618+411795911+411415212+410615620+410095039+410244921+410768635+411160388
2608+411227166+411038700+410652067+410087117+409460631+408965201+408710408
2598+408620135+408440795+407905485+407028091+406186450+405789697+405887439
2588+406148919+406199161+405952621+405596772+405299839+405100619+405095468
2578+405460565+406134341+406672633+406602813+405866445+404840976+403995721
2568+403574931+403508454+403505803+403266522+402724013+402114876+401769690
2558+401837522+402196926+402597204+402886636+403123929+403432429+403719873
2548+403715686+403399085+403162575+403307938+403576467+403509538+403116038
2538+402771213+402585818+402334940+401970326+401795805+402051713+402547414
2528+402786815+402425966+401627067+400955339+400852747+401236037+401709689
2518+402061502+402319820+402436629+402284427+401983007+401870897+402077285
2508+402388104+402570848+402583348+402405604+401950868+401323508+400915760
2498+401025099+401555319+402186354+402592896+402521450+402010537+401483270
2488+401311490+401410467+401477035+401393539+401190915+400888922+400607351
2478+400659672+401286851+402315211+403249413+403722403+403714361+403387006
2468+402937721+402574794+402405152+402377531+402440725+402631783+402953384
2458+403319565+403678336+404013613+404180453+403989847+403530563+403158900
2448+403112001+403297968+403446525+403341072+402975041+402569613+402364971
2438+402392502+402522865+402633469+402666934+402642656+402631331+402681844
2428+402814948+403005524+403101700+402946457+402638108+402472443+402626783
2418+403038838+403483845+403741590+403856683+404099156+404468711+404538471
2408+404092952+403613395+403756078+404560158+405489752+406154221+406651639
2398+407153966+407519334+407552828+407383066+407273637+407231889+407096526
2388+406903390+406837425+406823298+406409858+405114866+402808623+399847640
2378+396895031+394460803+392528964+390658421+388409347+385657223+382666511
2368+379982099+378125050+377259313+377117262+377293229+377696549+378675240
2358+380571055+383324474+386772483+391052916+396076011+400686178+403115014
2348+402264819+398608975+394327759+391773379+391131682+390821526+390023139
2338+389450901+389898228+391047885+392006968+392443029+392632610+392758275
2328+392834451+393085449+393805672+394957529+396250713+397553024+398968499
2318+400488343+401811588+402670458+403136640+403481646+403905750+404478922
2308+405210560+406058496+406898119+407596745+408188803+408875802+409727322
2298+410524896+411081773+411551841+412227093+413162590+414127697+414843943
2288+415242565+415492268+415711669+415749772+415416363+414815690+414261615
2278+413953929+413847300+413719768+413339431+412713245+412146007+411898172
2268+411902449+411991848+412193327+412540381+412841169+412959786+413120330
2258+413632749+414462702+415288077+415906762+416429753+417015034+417512753
2248+417567904+417100577+416462826+416035530+415855225+415690705+415320879
2238+414689513+413905615+413171657+412707974+412648576+412878007+413022769
2228+412788608+412320950+412062331+412231159+412590894+412797976+412852374
2218+413046835+413516060+414054503+414459690+414840570+415401844+416088904
2208+416663160+417016389+417220218+417395522+417707184+418312284+419139467
2198+419859930+420279666+420674402+421481554+422677417+423714995+424156689
2188+424146146+424140122+424425398+425014353+425753763+426388894+426725767
2178+426866131+427156678+427819551+428673149+429251261+429259394+428946497
2168+428913816+429504940+430523933+431538197+432242486+432545111+432588064
2158+432726620+433262081+434140198+435031478+435704260+436214871+436757169
2148+437459741+438355087+439410045+440504822+441492308+442378317+443362249
2138+444640854+446245309+448042025+449844164+451636453+453654498+455997640
2128+458286985+460087828+461529027+463081552+464880950+466679956+468355345
2118+470077753+471934019+473649770+474873736+475619381+476231379+477009736
2108+478023638+479214200+480555969+482105814+483906387+485822262+487550694
2098+488863065+489709134+490088206+489961035+489221234+487689642+485314000
2088+482418470+479520139+476787081+473860286+470399144+466693450+463446438
2078+461028506+459268085+457875743+456695513+455607784+454566471+453700613
2068+453116116+452691651+452273963+451940193+451888716+452133087+452412941
2058+452444749+452224083+451975675+451859950+451941277+452378724+453295848
2048+454466379+455538355+456582950+457981588+459779389+461634540+463423426
2038+465424513+467904193+470944153+474597256+478810368+483262972+487575062
2028+491571092+495165369+498179184+500470668+502120966+503390596+504536097
2018+505534306+505966844+505492920+504443686+503578491+503258305+503131164
2008+502586998+501264055+499181400+496693346+494344934+492575627+491493049
1998+490964034+490909575+491386089+492280140+493089130+493317597+493061057
1988+492865843+493103377+493791671+494889943+496428643+498338132+500373287
1978+502276330+503928195+505331652+506576071+507870249+509492685+511585732
1968+513944386+516102313+517838788+519513575+521582344+523922263+526049105
1958+527844195+529548922+531229673+532840423+534659188+537118446+540222473
1948+543512468+546707762+550037576+553524562+556286596+557491074+557796440
1938+558667961+560611487+562946044+565012584+566930748+569125905+571565223
1928+573853996+576017827+578504194+581250746+583723076+586066428+588774666
1918+591060427+591417119+590125351+589153829+589769321+591685076+593894570
1908+595557489+596411841+596783293+597094081+597387279+597562221+597913613
1898+598922666+600395943+601359333+601355176+601354513+602497966+604397094
1888+605604464+605525366+604728304+603806181+602957612+602198443+601466865
1878+600758178+600169554+599750631+599732197+600806793+603309004+605831154
1868+605723020+602223203+597542342+594076501+592425389+591701943+590690421
1858+588808943+586327155+583878862+581985938+580999778+580989838+581644005
1848+582816013+584777190+586860779+586661860+583097764+578613172+575764751
1838+574570936+573508328+571874204+570815211+571680466+573676463+574111892
1828+571964266+568995060+566348751+563457920+560280758+557889514+556812869
1818+556508889+556383344+556565094+557535110+559171704+560395760+560245517
1808+559166162+558469162+559031159+560996011+563847023+566319774+567189427
1798+566777794+566904603+569183738+573470616+577123629+577110255+574295208
1788+572304934+573050790+575676014+578497085+580980862+583311924+585276174
1778+586870959+589228830+593920956+601014628+607387746+609146390+606834725
1768+603597382+601105654+600314677+602225552+606133629+609428624+611032144
1758+612119090+612987598+613427304+615122152+620161031+627641577+633462818
1748+635079231+634217530+633598724+634476450+637005347+640564081+643530335
1738+645201387+647847515+653925929+660918636+662662581+659089027+654452986
1728+650909433+649115006+649401155+651551914+655429870+661926303+671912072
1718+683263766+689795321+688270295+682922978+678704835+677697349+680293597
1708+686010017+692958867+698273956+701651723+706380235+714787664+724002636
1698+729360135+730180691+726745152+720533904+715794428+715301227+718563811
1688+724339750+733272730+745308111+753893374+752569738+746492890+742556680
1678+742787286+746621386+752103344+757087283+761735914+767277693+772244884
1668+773536893+771977169+771253843+772816942+775021195+775875125+775994886
1658+777968172+784527438+797390422+812818149+817917691+811938134+808108733
1648+809786171+810954805+805980987+798327546+793550419+793081375+796489926
1638+802903647+809303994+810008765+804134691+797719283+794465795+793789700
1628+793789941+793735482+794195851+794688088+793364090+790483259+788922450
1618+789938250+790498199+786689883+780076098+774713058+772110846+771211554
1608+770089908+767940837+765613087+764277402+764241257+765004282+765972912
1598+766721599+766773167+765934357+764830243+764308547+764402946+764407946
1588+763655524+762065438+760444688+759953535+760618667+761424463+762495686
1578+765230791+769162122+770818716+769719902+769980750+773487375+776884780
1568+775573614+770218344+764716325+762131282+764995245+775363249+790403559
1558+796999994+790128615+780450081+773718764+770316057+769493212+769968461
1548+771081913+773870995+779707839+788782569+800263904+810322927+810104128
1538+799302743+789551798+787176277+790765252+795245989+797846936+800704694
1528+805724477+811519573+816253808+821108106+827819482+834720742+838995090
1518+840652226+840373065+838533938+837431028+840172459+847816923+859177413
1508+871378399+878134415+874794480+867668217+864053639+865908670+872213594
1498+879631187+883730412+883629868+883825594+888933209+899145307+908695827
1488+910266335+904632145+899028799+898441379+903227543+910647425+917704290
1478+923706679+929570812+935293377+939205792+939593268+937164975+935037108
1468+935741758+939272359+943164954+944959321+945890361+948694564+953038973
1458+955755705+955443411+954682073+954265379+952908429+951167918+950848816
1448+952567640+955272083+957709894+959601131+961294773+963026489+965161163
1438+968650377+973606604+977714323+979566824+981001968+983505745+986144524
1428+987399063+987424063+987812985+990115674+994498518+999292754+1001608034
1418+999462396+994598941+990914482+991029424+995094672+1000726814+1004545552
1408+1004713868+1002016715+999062871+998378281+1000181624+1002569495+1004148257
1398+1005314240+1006570104+1006779144+1004453141+1000485846+997818332+998093638
1388+999470528+998438162+995077925+993499525+995882698+1000432472+1004427779
1378+1006585466+1006951195+1006216484+1005450929+1006159073+1009636119
1370+1015303141+1020831787+1025269933+1030534237+1037898818+1044980140
1361+1048147663+1046581853+1041797678+1035855772+1031931730+1033108497
1352+1038606902+1043764096+1045892324+1047443675+1050835539+1054518491
1344+1056596357+1058500967+1061852830+1064663720+1064001059+1060985346
1335+1059203509+1059803760+1061570175+1063748524+1065809884+1065869885
1327+1063051043+1060714257+1062951764+1068173538+1070522974+1067869677
1318+1063578040+1061157036+1061683068+1063677800+1064957460+1065149271
1310+1064891796+1064797578+1066164227+1070011159+1073741823+1072337101
1301+1065411082+1058231204+1054674277+1053984748+1053916554+1052996900
1293+1049486119+1042783477+1035833964+1031565580+1028599627+1024057383
1284+1017864268+1011848023+1006682636+1001130014+994143331+986773510+981243599
1274+978213609+975805677+972357728+968370614+964528682+960094512+954320079
1264+947509966+939955081+931761812+923899634+917447478+912134860+906923930
1254+901474080+895898686+890113048+884419881+879361002+874428510+868087501
1244+859581998+849894187+840630900+832600706+825611795+819287473+813897203
1234+810177924+808542415+808542957+808708623+807307093+804065955+800659633
1224+798920147+799261538+800868191+802424783+802810031+802192611+801978210
1214+803060155+805194227+808164276+812085606+816596465+821092985+825391129
1204+829313122+832565646+835399548+838234354+840688130+842322675+844065355
1194+847495412+852877429+858562042+862514276+864564671+866407052+869307280
1184+872912762+876230588+878985815+881854356+885898159+892139527+900804069
1174+910851344+921163142+931452470+941238476+948596430+951558346+951432802
1164+952261671+956354269+961860024+964711938+963054200+959016121+956080711
1154+956241557+959547576+964170182+966599922+964153797+958067671+952331853
1144+949756027+950828214+954915029+960189273+964106928+966330580+968844176
1134+972081519+974010406+974028599+974857047+978664158+983464419+985289088
1124+983870450+982884530+984695825+987876179+989648377+988671011+985989401
1114+984730825+987542619+993493682+998654129+999816739+996684880+991412262
1104+987675814+988018350+990674057+991120871+987864673+984314975+984058525
1094+986907910+989892357+990417787+987900758+983687013+980306053+979980506
1084+982997965+987575812+990381221+987942566+980087796+970892222+964539887
1074+961600742+959758844+957156753+954331224+952787282+952737462+952812042
1064+951618408+949110715+946462057+945028900+945223904+945978495+945540776
1054+943058567+939477182+937088467+937290157+938625782+938240595+935628624
1044+933264609+933477865+936088451+938774158+939440735+938447707+938215173
1034+940666900+944919441+947766175+947734307+947351409+949424034+952490049
1024+952800174+949949946+947291468+947622498+950714778+953716153+954082545
1014+951938292+947965455+941293718+931721089+921951589+915194911+911373582
1004+907901115+902998563+896741953+889726957+882036588+873830910+866185963
994+860397313+856707011+854605229+853629550+853023094+851250535+846965222
984+840802951+835266715+832381546+832016600+832522091+832516127+831345204
974+828302924+823132537+817170691+812510854+810049247+808902060+807587459
964+805127117+801326572+797076983+794255973+794251093+796582879+799683412
954+802819308+806509429+811369992+817269126+823227298+828106415+832214555
944+837344340+844155055+850919143+855431387+857228525+857780824+859433261
934+864125869+872050398+881408084+889790332+895891457+899870499+902332709
924+903602670+903900325+903389353+901869508+899417419+897270095+896768821
914+897768838+898870603+898525718+895832962+891519577+887732225+885776289
904+885369174+886518048+890024071+895298978+899686400+901229257+900822202
894+900824551+902691088+906288738+910532484+914242063+916829817+918184659
884+917902666+916019623+914692252+916665718+921785743+927149567+930412995
874+931351926+930779808+929665814+928384949+926377627+923887645+923069861
864+925583878+930552515+935839712+939596160+940795155+939872670+938353006
854+937272266+937056780+938306198+940689069+942460183+943266883+945525174
844+950892492+956823554+958776298+955970950+952086668+950285193+950917251
834+952916923+955840948+959069616+961116939+962273283+964618021+968386457
824+970870776+970911319+971397411+975193077+982127710+990739901+998945218
814+1003077938+1001791350+999769569+1001906231+1006394619+1007108728+1002016293
804+996132581+994839668+997078139+996596685+990282002+982095480+976395807
794+972449416+967067098+959742519+953127107+949679339+949176921+948610466
784+944833777+938080773+932168325+930304077+930635047+927867892+920656628
774+913359699+909603914+909056375+910116513+911956664+913766393+914783639
764+915588893+917691699+921996530+928088378+933693953+936296346+936911778
754+939424349+945224386+951420513+954654422+954172546+951150207+947139357
744+944386781+945505173+951188762+960030596+970315947+979758393+986161934
734+989638558+989914466+985091916+976544003+970818727+972849905+979518630
724+982735069+979652849+975021869+973198345+974815420+979133142+984619257
714+987591596+984923600+977716612+969493102+962935102+958496474+954036159
704+947444664+941030220+939385614+942846153+947174719+949573615+951979498
694+956560237+960635304+959899328+955147864+950657187+947439242+942459099
684+934497581+926440881+921207300+918412374+916233181+915448710+917847123
674+921024887+919550887+911369124+900365748+895704828+904460395+919252749
664+925875992+919016842+905422158+895235964+891372768+889318938+886458228
654+886328587+890978062+896957861+901330825+906295486+912894149+916155589
644+911752263+902821512+896949788+896600264+896922438+892827912+885033144
634+877945737+874254471+874765745+881587123+893614251+901528539+896654482
624+883624868+875415454+877759710+884206926+884798743+877533321+868368891
614+863789779+866801456+873864404+873804524+861384257+849855813+854126365
604+874924904+899621820+913156684+913857720
##END=
