##TITLE=<SNM>
##JCAMP-DX=4.24
##DATA TYPE=INFRARED SPECTRUM
##DATE=29/4/2025
##SAMPLING PROCEDURE=Instrument type and / or accessory
##ORIGIN=Admin
##XUNITS=1/CM
##YUNITS=ABSORBANCE
##RESOLUTION=4
##FIRSTX=4497.3318
##LASTX=599.83466
##DELTAX=-1.4281778
##MAXY=2.0911591
##MINY=0.43646652
##XFACTOR=1
##YFACTOR=1.9475437e-09
##NPOINTS=2730
##FIRSTY=0.44837028
##XYDATA=(X++(Y..Y))
4497+230223477+230943644+231458619+231685234+231910044+232124141+232077254
4487+231616557+230789777+229933953+229624307+230082479+230703654+230634456
4477+229731133+228659100+228278925+229035986+230503482+231583656+231666305
4467+231251025+231145010+231649075+232555626+233315014+233402514+232924983
4457+232404208+231852919+230826855+229462008+228737281+229443523+231126953
4447+232372731+232296631+231381173+230588472+230213408+229973541+229684185
4437+229374661+229083699+228984615+229512185+230786104+231928682+231736727
4427+230168740+228408782+227584435+228083833+229591391+231079836+231430065
4417+230699477+230073405+230191647+230380817+229958162+229392749+229465007
4407+229912484+229834808+229164466+228625725+228498301+228566719+228934637
4397+229872116+231065023+231791005+231795260+231380990+230639017+229432214
4387+228321619+228359446+229505727+230286554+229617925+227984856+226361198
4377+225197059+224722987+225021523+225622744+226007067+226288205+226688564
4367+226882983+226537421+225956568+225679777+225890263+226519273+227444983
4357+228330800+228733593+228593039+228336692+228394642+228715444+228787580
4347+228156994+226942433+225751147+225051164+224814144+224809186+224958033
4337+225270006+225680159+226118454+226566496+226957981+227213487+227435174
4327+227904043+228812125+229974704+230806579+230745752+229716504+228037818
4317+226095378+224500136+224111284+225101403+226336331+226523144+225770842
4307+225284329+225825870+227109720+228363670+229034088+229143639+229118069
4297+229133387+228875906+228270692+228022454+228804826+230195366+231104657
4287+231127641+230794597+230586085+230491852+230494760+230622383+230442915
4277+229375671+227696710+226475079+226411375+227284995+228402416+229158697
4267+229263749+228722560+227758960+226838009+226486663+226835805+227564848
4257+228400228+229297628+230095043+230459151+230223217+229518842+228646889
4247+227946064+227680703+227965192+228692521+229528773+230212627+230785951
4237+231196656+230966598+229828748+228410205+227628874+227718990+228293278
4227+228966589+229528513+229709649+229249624+228374764+227870837+228375453
4217+229779229+231446745+232709539+233157658+232834193+232127309+231361464
4207+230727496+230487598+230800412+231426438+231932737+232143407+232271076
4197+232619989+233141544+233386936+233029790+232291031+231660215+231410003
4187+231536693+231852629+232017299+231754968+231183281+230827054+231159333
4177+232030995+232671344+232482496+231744027+231235417+231299779+231620168
4167+231871665+232222491+232977961+233995058+234747559+234879145+234575023
4157+234420116+234830300+235588891+236104954+236012144+235266483+234019465
4147+232819029+232420903+232884646+233374235+233321058+233139984+233373837
4137+233864053+234148052+234086200+233784311+233335932+232894960+232725438
4127+233021205+233740363+234572498+234975383+234504677+233443264+232803588
4117+233252273+234335937+235155662+235362919+235060694+234334697+233437449
4107+232953553+233326613+234415326+235662206+236590732+237066273+237117384
4097+236708776+235912081+235083694+234527111+234214603+234091877+234234909
4087+234489987+234518924+234341063+234243157+234202560+234003459+233825429
4077+234139162+234957739+235646016+235682895+235394565+235637752+236673580
4067+237566834+237091538+235328336+233807235+233799247+235009477+236191459
4057+236594496+236409550+236083744+235724686+235260346+234898870+235008957
4047+235486548+235734694+235504452+235193505+235058170+234798807+234187288
4037+233533228+233301655+233649037+234434362+235391963+236153769+236296312
4027+235679498+234818303+234617993+235456402+236694529+237329905+237014505
4017+236237030+235617308+235354610+235367265+235611019+236075756+236599898
4007+236858572+236616700+236044509+235675320+235871177+236394309+236658109
3997+236385464+235935845+235933627+236516408+237015698+236599669+235325137
3987+234316548+234654826+236121128+237322468+237263247+236428372+235924353
3977+236080561+236446093+236690657+236895619+237158394+237346845+237291970
3967+237060688+236941374+237223109+238028404+239142917+239875877+239483597
3957+238050776+236620465+236228430+237086763+238655440+240044526+240437693
3947+239697924+238551428+237853679+237903290+238514075+239321497+239949971
3937+240230665+240427930+241099910+242499891+244006501+244531209+243880102
3927+243110232+243180899+243803941+244089700+243964970+244111889+244789087
3917+245389558+245094862+243745486+242019974+240876646+240848765+241850192
3907+243660572+246212542+249119225+251451574+252663946+253002897+252391699
3897+250303839+247165354+244538049+243690412+244403831+245376061+246243270
3887+247907449+250311031+251577483+250778752+249451856+248691550+247768135
3878+246540766+246391995+248076802+250857928+253795843+255976054+255985358
3868+253984186+252246555+251965753+251845751+250527210+248652085+247412168
3858+247505314+250085411+256492881+264039104+265483845+260468230+254415901
3848+250493100+249331593+250460873+252955888+255787267+258292243+260191591
3838+261086789+260761794+259832227+259101624+258734669+258400126+257876290
3828+257035998+255809654+255063534+256540227+260451979+263671690+263732441
3818+262396592+261333680+259385394+255879250+252649256+251663927+253509686
3808+257137239+260386729+262503924+264898830+267913548+269255548+267897756
3798+265837364+264350571+263039145+261723741+260982701+261224940+262521277
3788+264908470+268035448+270888235+272934672+275163422+278721778+282893122
3778+285862453+287541384+289751588+294180565+301307499+310206647+318863435
3768+325641747+330229839+333089849+335388747+338741345+343746951+349183599
3758+353569424+357285395+362005090+369140562+378867852+388974003+396580333
3748+402366858+409308601+418072139+424666881+426785025+427921574+431558982
3738+438279665+446046274+451757847+453892854+453720089+453587814+454617031
3728+456355029+457550891+457190639+455602237+453901271+452274521+450026061
3718+447276260+445449690+445981636+448907753+452095818+452621521+450443422
3708+448250479+448052924+450264872+454105284+457654764+459171703+459121296
3698+459216509+460335214+462537798+465850762+470332043+475617962+480207432
3688+481786376+479753559+475901885+472382826+470485528+470610090+473009770
3678+478271969+485439332+490024395+489284396+486809887+486032090+485169824
3668+481194536+475364827+470606418+467713293+465738319+464323999+464526941
3658+466980119+470063760+471782385+473231962+477153447+483901613+489104254
3648+487617615+481066301+474781495+471698834+471645765+472826140+473844400
3638+474633398+475467262+476446930+478542150+483651967+492339911+500609085
3628+502194885+498029662+493578435+491454140+492030157+495172101+499537419
3618+502518411+503245709+503451100+504778532+507311405+510380202+513112803
3608+514283599+513268369+511210976+510333162+512137054+516142488+520530393
3598+523993598+525974784+526005328+524529798+523509120+524955820+528889118
3588+532483863+532513244+529448762+526423699+525560453+527039778+529530661
3578+531024738+530814358+530377686+531065565+532423449+534076427+536843367
3568+540393612+542228629+541173735+538872358+536588978+533960801+530931147
3558+528948431+529491058+532330654+535854335+538790827+541034482+542888841
3548+544506378+545921678+546756705+546266474+544209326+541034053+537348472
3538+534072509+532376807+532427734+532921209+532856571+532824497+533583074
3528+534711604+535565852+536025050+535743238+534470987+532904315+531575873
3518+529860216+527457353+525808048+526726321+530163083+533923340+535623450
3508+535022979+534064981+534526260+536273379+537619694+537124444+535061175
3498+533057952+532296560+532207928+531546186+530552318+530782774+533056116
3488+536245406+537865942+536209537+532224210+528696184+527518808+528307133
3478+529626822+530852737+532258733+533705310+534224433+533213732+531334583
3468+529752609+528988829+528687553+528168002+527126084+525757794+524424272
3458+523530850+523390495+523779362+524128015+524155498+523814987+523193398
3448+522899651+523549886+524470118+524146623+522342211+520508480+519862163
3438+520161541+520550654+520504624+519647744+517612080+514593934+511562169
3428+509599774+509367329+511111601+514339851+517398641+518313242+516439908
3418+512871085+509430742+507594624+507678237+508608201+508959302+508316168
3408+507180323+505948715+504914479+504917081+506560173+508828833+509810673
3398+508847686+507015362+505756026+505905195+507297541+508731907+509143759
3388+508730438+508188392+507632727+507134018+507284931+508385641+509914944
3378+511238092+512092003+512325458+512111009+512307126+513804875+516632597
3368+520062136+523155938+524896936+524630060+522973654+521441383+520804675
3358+520713656+520961190+521901070+523383762+524422986+524310299+523402064
3348+522685967+522827117+523633254+524418457+524798694+525098256+525911187
3338+527337137+528660743+528746499+527087155+524652769+523241142+523579450
3328+524606800+524983671+524640466+524268921+524138666+524122200+524096553
3318+523772017+522817324+521473518+520466612+520348171+521203581+522522108
3308+523370479+523227982+522480424+521767816+521323859+521117704+521141025
3298+521541216+522555283+523975357+524954290+524997137+524690291+524853293
3288+525651534+526859086+528315274+529917386+531377614+532024359+531310099
3278+529901594+529397651+530309008+531320566+531181741+530125194+528923641
3268+527857055+526975630+526512943+526533632+526556708+526237314+526219869
3258+527388982+529375616+530734112+530573313+529241443+527620845+526466301
3248+526013163+525714213+524634590+522572422+520574158+519881627+520529536
3238+521314984+521331817+521164713+521932226+523487207+524475933+524241437
3228+523757572+524135789+525015684+525049043+523629520+521764327+520996691
3218+521444259+521529464+519999090+517472154+515629241+515538100+516794742
3208+517899890+517882507+517338594+517057027+516612153+515448916+514191845
3198+513640342+513481931+512975509+512023631+511013818+510179494+509304037
3188+507997814+506376727+505206023+504979576+505217592+505166604+504727513
3178+504161381+503415781+502409457+501552394+501254852+501176503+500602230
3168+499447777+498374550+497884105+497697261+497241093+496481843+495846207
3158+495517846+495314598+495049466+494579832+493759158+492659580+491513728
3148+490358541+489146153+488109407+487526198+487171424+486501419+485392231
3138+484356250+483954314+484193064+484660556+485103778+485676276+486549683
3128+487320593+487106052+485562762+483567191+482429388+482460207+482660762
3118+481914703+480185733+478501231+477921633+478443357+478965020+478514728
3108+477235591+475881471+474865017+474154582+473555641+472831495+471950132
3098+471224119+470940655+471035194+471264426+471377236+471094935+470389918
3088+469763188+469733440+470123960+470380767+470496852+470902858+471372339
3078+470924343+469199565+467118209+465704164+465086157+465072262+465782054
3068+467074658+468053896+467860993+466612154+465089309+463822597+462785576
3058+461774080+460804971+460155808+460018820+460171937+460193329+459937104
3048+459606631+459411646+459420032+459644000+459903469+459721951+458731113
3038+457145619+455649920+454821656+454645340+454596984+454253014+453660225
3028+453039984+452448909+451898753+451511170+451350004+451234715+450873851
3018+450273350+449916189+450197051+450674337+450380345+449033356+447409330
3008+446359670+446045631+446215887+446549115+446579659+445931383+444831315
2998+443930425+443553555+443452834+443222868+442735941+442232795+442006715
2988+441996432+441905841+441665928+441369304+440860159+439905098+438709237
2978+437814254+437477262+437376908+436939531+435959221+434889269+434399680
2968+434645684+435059892+434920272+434137793+433324128+432997450+432983249
2958+432793038+432263816+431558033+430892864+430463414+430298269+430220257
2948+430140959+430081249+429790195+428895793+427652739+426971287+427439483
2938+428635222+429489164+429183878+427730047+425804991+424168539+423252439
2928+423084999+423346090+423576577+423582086+423565957+423751087+424060473
2918+424254386+424157705+423707995+423016535+422345244+421808218+421256715
2908+420580466+419860666+419236630+418922377+419131012+419632230+419773656
2898+419286179+418529623+417754642+416885275+416120027+415882868+416116079
2888+416361960+416477769+416615216+416631131+416191857+415368490+414529453
2878+413738068+412813092+411924995+411575087+411899470+412500155+413071582
2868+413625900+413926074+413393394+411928453+410232169+409000653+408260348
2858+407718730+407330658+407222408+407336137+407422076+407298401+407010162
2848+406789470+406863381+407199485+407431930+407160892+406352797+405354767
2838+404498683+403817261+403220218+402749819+402526157+402566005+402770447
2828+403009870+403128434+402964819+402487656+401847674+401193522+400500961
2818+399693570+398856522+398208858+397923588+398020974+398335349+398588942
2808+398592951+398295409+397623843+396582078+395523144+394906513+394724628
2798+394515871+393970061+393210290+392461783+391804050+391342067+391261056
2788+391488053+391627949+391530564+391553334+391879645+391955025+391103746
2778+389483944+387978176+387258621+387258866+387474172+387518121+387327666
2768+386998723+386559694+385880048+384863165+383781613+383134164+382988698
2758+382832490+382321539+381770863+381631395+381875134+382139408+382195263
2748+382065436+381819433+381458477+381016540+380591589+380212148+379844796
2738+379523627+379249589+378857661+378253609+377643498+377277003+377117795
2728+376937807+376605467+376188045+375861305+375752627+375814082+375833730
2718+375610528+375162042+374711658+374407964+374139619+373711057+373112239
2708+372539588+372197148+372065026+371872612+371449069+371015641+370844375
2698+370769637+370416302+369781921+369221788+368962930+368935172+368960298
2688+368882072+368638517+368332038+368077129+367772609+367250640+366588928
2678+366008198+365563843+365172956+364790393+364405534+364024287+363672391
2668+363313853+362944236+362796505+363102433+363630217+363861193+363638205
2658+363289644+363141699+363159175+363044131+362597634+361964140+361458208
2648+361216459+361144629+361080879+360865174+360412771+359859768+359487428
2638+359424259+359536763+359607858+359536334+359403815+359359345+359362926
2628+359144314+358587639+357989525+357687147+357596342+357396889+357061305
2618+356901945+357117680+357523441+357748174+357541621+356903077+356083291
2608+355477648+355345373+355593304+355944405+356282591+356672223+357065131
2598+357177115+356752561+355890999+355025274+354565709+354596682+354868883
2588+355035007+354959994+354810641+354760510+354724917+354560109+354319369
2578+354087628+353796146+353388701+352986367+352797044+352921331+353166386
2568+353120478+352652344+352174232+352111859+352361994+352562732+352605365
2558+352594806+352576321+352560131+352616107+352740517+352776263+352640683
2548+352494483+352503726+352570506+352499533+352316576+352233208+352364993
2538+352587706+352667891+352542318+352418613+352508592+352739843+352866671
2528+352807083+352746026+352932992+353435159+354058217+354488187+354542021
2518+354293875+353954925+353683825+353550846+353566302+353637734+353606241
2508+353440515+353287521+353241552+353218445+353139790+353063890+353045220
2498+353025633+352954813+352896205+352918944+353001149+353129752+353359228
2488+353676419+353945529+354065439+354042853+353890654+353642967+353444586
2478+353425304+353543746+353696771+353862497+354020113+354068714+353917372
2468+353577534+353167426+352876985+352864528+353141045+353604711+354127751
2458+354512028+354532289+354194593+353769642+353455971+353237849+353092597
2448+353051433+353065022+353075275+353159806+353381233+353599202+353626532
2438+353487586+353386834+353474242+353706595+353922208+354020664+354044505
2428+354095891+354217302+354359125+354436097+354420733+354422294+354635428
2418+355120364+355665042+355985354+356035945+355983732+355931826+355876186
2408+355909699+356215443+356777290+357276948+357415650+357251209+357107335
2398+357254943+357782390+358622254+359587078+360549851+361729797+363722828
2388+367228145+372805301+380843377+391706053+405925030+424145892+446646806
2378+472839392+501417976+531182782+561672192+592713901+623140204+650355671
2368+672146824+688623780+700717237+707745867+708959479+705697289+698621098
2358+684766504+661729604+631481423+597506099+564406446+538643922+525313838
2348+526275938+540570142+563342982+585771210+601528641+611391053+618242847
2338+622983261+625496608+626186935+625889821+624726952+621999799+617650150
2328+612227488+605223587+595653270+584180238+572723793+562218615+552058722
2318+541520429+530753332+520334827+510367624+500250394+489443603+478253147
2308+467500496+457656356+448688958+440507375+433168103+426736394+421134907
2298+416120425+411434794+407038656+403104440+399731642+396821409+394271887
2288+392090666+390264525+388738283+387558061+386791190+386277576+385709455
2278+385002387+384389032+384105262+384104741+384126716+384007846+383830857
2268+383701153+383546842+383312438+383162045+383220103+383254442+382936578
2258+382375373+382094021+382416751+383102120+383681290+383976108+384142141
2248+384336850+384500189+384459393+384199158+383902962+383643707+383246974
2238+382646840+382119637+381924867+381947545+381870788+381491469+380809160
2228+380006329+379323745+378812090+378302547+377721357+377239297+376982796
2218+376806267+376513193+376156277+375946847+375955538+376058647+376134547
2208+376200134+376370788+376751545+377351740+378064990+378750360+379352300
2198+379919778+380537235+381287027+382216502+383250524+384192149+384895514
2188+385379808+385755975+386176733+386837802+387785119+388699996+389141504
2178+389062941+388871568+388971768+389439413+390067459+390534798+390626766
2168+390450818+390329928+390397657+390455470+390308199+390067949+389992844
2158+390111347+390176658+390026265+389808357+389720857+389714767+389642784
2148+389520456+389470324+389592959+390005821+390830780+392088371+393707653
2138+395618356+397800281+400290796+403120691+406248373+409658967+413467611
2128+417787879+422592288+427767508+433156014+438580084+443996318+449480281
2118+454945790+460167927+465150917+470105566+475048708+479799191+484381285
2108+489171341+494670545+501291761+509314474+518853543+529741223+541391398
2098+552858554+563275896+572408316+580629625+588171869+594584175+599172176
2088+601714108+602371749+601051386+597149489+590036634+579899695+567915681
2078+555315343+542500708+529376595+516205963+503652144+492214430+482067483
2068+473325889+466080484+460155746+455102794+450563669+446526865+443148436
2058+440458100+438372765+436878964+436001762+435610079+435425714+435272475
2048+435225282+435508960+436352068+437897499+440176197+443270367+447553817
2038+453616613+461903202+472548919+485440219+500141808+515839437+531612783
2028+546692863+560462314+572649178+583578849+593816111+603629922+612930486
2018+621206761+627526823+631371489+633335476+634330690+634520197+633437146
2008+630575881+625641125+618781128+610680465+602046233+593120213+583847683
1998+574312011+564911796+556172039+548276245+540842343+533463224+526383178
1988+520260885+515421188+511658972+508613496+506058067+503896617+502087523
1978+500600914+499435841+498676347+498417857+498620921+499204498+500210547
1968+501592548+502951503+503880856+504507310+505336400+506661874+508351272
1958+510118590+511845326+513606861+515489438+517537221+519824457+522345149
1948+524918543+527503567+530385582+533601620+536490185+538456314+539894383
1938+541681656+544160786+546962371+549461334+551322365+552851454+554748721
1928+557368940+560436544+563476053+566198616+568640959+571234858+574299769
1918+577165135+578573089+578485620+578345693+579264763+581005700+582742229
1908+584153366+585461915+586800457+588005316+588993675+590020719+591360852
1898+592913874+594303649+595239918+595799256+596420599+597393533+598346819
1888+598712121+598694309+599021966+599852770+600572907+600634301+600235395
1878+600019874+600222051+600484887+600785918+601954541+604479273+606982030
1868+606972481+603984328+600261654+597795500+596554894+595371153+593649803
1858+591942715+591019912+590838608+590626393+589829070+588639636+587606104
1848+587195384+587566624+588015355+587043645+584295006+581285307+579266477
1838+578178100+577381206+576479704+575732574+575815698+576707345+577080971
1828+575928936+573929570+571921941+569748494+567272118+565062190+563585191
1818+562626947+561741972+560905536+560479820+560583020+560725089+560302188
1808+559393708+558745494+559075110+560581245+562832490+564875621+565765922
1798+565472664+565102160+565955612+568312628+570741321+571195194+569687774
1788+568183720+568143199+569535116+571519057+573580489+575674853+577682972
1778+579593950+582000486+585699900+590537393+594610495+595927858+595137942
1768+594079987+593446647+593529219+594998567+597714580+600141315+601408302
1758+602283973+603299754+604323309+605861212+608724069+612362273+614884679
1748+615517530+615482640+616084151+617663310+620037771+622763088+625038450
1738+626727910+629245786+633773801+638390387+639502146+637621099+635628589
1728+634847487+635441592+637140171+639222722+641312189+644292874+649418851
1718+656166833+661153495+661640543+659126034+656575961+655718591+657008471
1708+660088562+663839209+666877065+669453764+673631780+680062327+685432960
1698+686766299+685731481+684145222+682478839+681925255+683444979+686431174
1688+690090495+695339626+702835106+708576121+707710365+702967258+699382551
1678+699421420+703531615+709907623+715182769+718299279+720938168+723583239
1668+724728785+724546012+725236156+727647955+730231877+731477196+732203698
1658+734081501+738142606+744991584+753275449+757314457+755762598+754317857
1648+754675630+753426516+747940563+741359623+737503144+737053801+739239674
1638+743225980+747496178+748979543+746405782+742609655+740054686+738898856
1628+738341538+738216915+739143023+740841786+741712255+741400573+741688383
1618+743591465+745312815+744527489+742422781+741668061+743066221+745406221
1608+746879609+746959304+746616589+746788895+747472551+748290929+749299610
1598+750817987+752802357+754774668+756435480+758107066+760228301+762687783
1588+765050064+767153487+769113617+770915641+772357567+773462654+774842329
1578+777296669+780231263+781038073+779118403+777415416+777819525+778855689
1568+777905893+775034712+772037438+770201075+770914723+775904201+784275474
1558+788795715+785697812+780535722+777028263+775714205+776146776+777316623
1548+778655777+781034890+785608568+792186631+799576829+805875896+807553603
1538+804169972+800449930+799087761+799038486+798508713+798198133+800194439
1528+804649553+809467459+813168464+817082787+822762715+828922346+833570394
1518+836889387+839083340+839895842+840875448+844235820+850228653+857864916
1508+866489048+873880164+876255911+874908493+873980855+875341187+879170551
1498+884451266+888720179+890573926+892287992+896749043+903668352+909503447
1488+911486347+910946474+910633997+912412884+916771531+922164077+926143772
1478+928073053+929785588+933550191+939639981+945418089+948244465+949019507
1468+949913969+951347938+952463063+952810736+952906775+953881790+956893142
1458+961372495+963417034+960242496+954657321+950034982+947384769+946074261
1448+944769875+943230258+943034141+945214566+948820880+952552062+956308463
1438+959874746+961239485+959404040+957233286+957569207+960482011+964016954
1428+965697109+964483191+961431379+958361449+956348801+955639682+955906803
1418+955596284+953229168+949903870+948423688+950495893+954602600+956905935
1408+955775568+953806807+953721909+954557733+953816417+951421879+948979965
1398+947300973+946546497+947350308+950372310+955028499+959319876+961126859
1388+959704826+956766070+955321328+956743728+960164514+964312965+968768753
1378+973148884+976164582+976835383+975944103+974881374+974256419+974928261
1368+978368940+984180959+988942980+989933849+988746496+988734254+990401861
1358+992025642+993028018+994838122+999232394+1006042443+1012500717+1015867638
1348+1016620584+1017438044+1019793897+1023193872+1026177924+1027146635
1340+1025747311+1023655335+1023399538+1026360820+1031846467+1037771969
1331+1042209944+1044958399+1047070513+1048802024+1050333867+1052607087
1322+1055193335+1056497354+1057285005+1060769083+1067280365+1072514561
1314+1073407616+1072148280+1071357201+1069691797+1065891631+1063140361
1305+1065131402+1070381757+1073741823+1072929933+1070304265+1068385330
1297+1067820850+1068505056+1069288423+1067894302+1062846185+1055280988
1288+1048145485+1043732606+1042068671+1041145256+1039293774+1036668474
1280+1033321997+1028100900+1021235089+1015359289+1012515591+1012120664
1271+1012010669+1010737316+1008539997+1006105305+1003159632+999004998+993968817
1261+989164744+984944126+980847091+977096199+974725472+973732461+972247076
1251+968584449+963142813+957497652+952206287+946279376+938460279+928855072
1241+919177576+910834950+903476275+895977796+888198241+880804798+874159772
1231+868407066+863887804+860814385+858873230+857401739+855710505+853239393
1221+849970837+846763429+844827783+844548298+845113022+845498890+845443923
1211+845344335+845553245+846314453+848298516+852362988+858237685+863954890
1201+867560714+869290878+871053422+874090176+877913847+881401352+884312993
1191+887350481+890941186+894446871+896891111+898225552+899571501+902393713
1181+907333121+913423034+918746535+922221002+924218838+926050488+929774631
1171+937265398+948170523+959315347+967461061+972534702+976848788+981857670
1161+986769288+989733753+989610782+987275190+985684462+987332666+991456817
1151+994361908+993313686+989787312+987461941+988441119+992291416+996187988
1141+996619458+993814262+992403859+995987097+1003368603+1010217459+1013199736
1131+1013040896+1013054913+1015148665+1018942649+1022724146+1024384714
1123+1023039623+1020034024+1018292353+1020138755+1024591298+1027410695
1114+1025936818+1022075992+1019115629+1019924275+1027147492+1040104930
1105+1051549744+1053011441+1045683616+1039289611+1040481616+1046045857
1097+1048407709+1046727859+1044950686+1044092399+1042297352+1038041048
1088+1032513289+1028679947+1028216465+1029850284+1030094512+1027446687
1080+1024148688+1022010069+1020410038+1017606800+1012279871+1005430587
1071+1000541310+1000844116+1005606933+1010228599+1011380573+1010133663
1063+1007778605+1002582666+994119516+986558297+983807517+984706203+985299818
1053+983885865+982170514+982654747+986341430+991905487+995427881+993165068
1043+986067331+978663973+974758648+975121685+977841677+980514231+982199956
1033+983277131+984185366+984576437+983349910+979890378+975203278+971892670
1023+972679831+977878709+984179000+987662894+988541748+989774764+992356544
1013+994648065+994348626+990452910+984028424+976815857+969939946+963954091
1003+958263268+950772624+940673758+931136249+926074421+924548209+922083463
993+916633012+909980947+904475713+900756650+898619011+897432882+895794655
983+892785017+889175949+886366346+884452245+882015350+878009457+873275103
973+869556040+867408852+865848485+863976068+861829309+859349995+855837822
963+851061845+846059758+842567478+842271895+845972840+852099845+857042008
953+858811652+859254079+861123985+864849659+869103024+872682283+875356735
943+877984361+881690875+886510434+891517969+896279562+901207217+907178199
933+915367066+925310336+933436830+936932415+937683952+938902155+940887810
923+942152838+941654772+939163399+936000981+934988444+937003357+939266600
913+939270946+937909817+936648033+935129288+933390555+933077527+934745073
903+936456384+936306664+934885917+934110141+934803222+936500272+939128816
893+943902834+951246574+958536387+961521786+958715304+953574699+951112891
883+952990143+956566953+958653421+959487714+961297390+964472846+967444412
873+968821944+968674550+969123220+972189539+976039407+976065238+972217328
863+970033475+972086706+974778847+974836874+974598951+978027633+985107741
853+991655382+993692637+992226105+990880952+990443545+989114858+986577517
843+985658693+989896205+998676667+1005118905+1002713961+994124413+987078460
833+984524531+984558993+985538660+988098220+993782187+1002060544+1009384696
823+1013287267+1016359400+1022067056+1029127760+1034040236+1035860990
814+1035892452+1035554940+1034290095+1029646087+1022051570+1015969921
805+1014002262+1014901193+1017512476+1022174847+1028075437+1031269011
797+1027753716+1018822555+1010881527+1009422524+1014960260+1023017587
788+1026691538+1022413811+1014228433+1009033595+1008619203+1007779646
780+1000378919+987808390+977669677+974129592+974805841+975468318+974564122
770+973438898+974100028+977317351+981124373+982160782+981147694+983656389
760+992509691+1002074928+1004527738+1001387417+999353528+999045825+996699766
750+991891714+987632595+986549544+989484200+994380822+996676322+993956330
740+989651303+988136538+989150789+990689304+993138625+997531121+1001944795
730+1002308445+997595208+992531972+992043699+996169686+1000978594+1003877381
720+1006090921+1009963131+1015335417+1018509037+1014486800+1002186575+987776133
710+979909782+981680283+988547625+993930193+995911992+997051111+1000082601
700+1005794970+1011339195+1011203125+1003245571+990444280+977539299+969566565
690+970314674+978389323+985522562+984433267+980078599+983539049+995742073
680+1004973898+1002393282+993415539+985355642+978664830+971995993+965717125
670+962350203+966768469+980085761+993629897+998883925+992554926+977812174
660+964382806+958241232+957591426+958711142+960610735+966817376+979008157
650+989805981+991010228+984213033+976534964+974393652+978061911+979087669
640+972183357+958168209+940424633+927158941+923283548+930791575+950542719
630+975989215+989080581+975309049+945094962+920324286+910597271+911668141
620+914704405+913240199+906190268+899493152+901706569+915025942+932003902
610+941895083+944867505+952394140+971075944+992759122+1000423725+985212043
600+956553609
##END=
