##TITLE=<SNM>
##JCAMP-DX=4.24
##DATA TYPE=INFRARED SPECTRUM
##DATE=29/4/2025
##SAMPLING PROCEDURE=Instrument type and / or accessory
##ORIGIN=Admin
##XUNITS=1/CM
##YUNITS=ABSORBANCE
##RESOLUTION=4
##FIRSTX=4497.3318
##LASTX=599.83466
##DELTAX=-1.4281778
##MAXY=2.1438842
##MINY=0.57492286
##XFACTOR=1
##YFACTOR=1.9966477e-09
##NPOINTS=2730
##FIRSTY=0.59354854
##XYDATA=(X++(Y..Y))
4497+297272536+295584952+294099141+293207660+293485525+294731384+295855564
4487+296120533+295828577+295685644+296021155+296441804+296057008+294469907
4477+292556341+291814181+292915405+295105911+296984341+297782743+297865493
4467+298114522+298897877+299562480+299155414+297784713+296579961+296048947
4457+295510291+294591078+294107320+294729384+295795322+296115697+295385538
4447+294274941+293422746+292986692+293120580+294125321+295733796+296990133
4437+297412424+297519982+297719724+297549088+296554945+295220962+294363871
4427+294153293+294349871+294886944+295689137+296421833+296706714+296397892
4417+295822547+295688779+296295498+296995207+296940010+296060500+294906856
4407+294010778+293619891+293540334+293349697+293133805+293418477+294127978
4397+294503939+294260075+294033853+294536657+295754155+297040344+297793877
4387+297863523+297374900+296476642+295258158+293713836+291849258+289926258
4377+288460955+287944062+288486509+289529879+290281024+290770065+291785404
4367+293301127+293980298+293002246+291371859+290517514+290578652+290832875
4357+291095247+291949532+293583590+294975307+294795298+293023172+291039214
4347+290056206+290061131+290350968+290655492+291394457+292774950+294090454
4337+294513999+294211893+293835365+293374146+292449350+291266241+290472377
4327+290468765+291256509+292455500+293271573+293071951+292079300+291059424
4317+290541038+290621251+291054946+291329439+291100710+290624296+290543008
4307+291108800+291788837+292051179+292212860+292784502+293406237+293324950
4297+292545624+291689518+291102949+290785051+290845890+291536554+292833281
4287+294079766+294306226+293234557+291609125+290278606+289544059+289508146
4277+290200124+291119218+291529121+291467984+291582318+291835287+291504165
4267+290716062+290596116+291427175+292033268+291521927+290483841+289836164
4257+289622720+289455427+289372378+289751055+290590026+291421862+291947741
4247+292304626+292731186+293274618+293712941+293608457+292689870+291384815
4237+290604385+290826188+291604618+292064434+291704892+290698300+289636482
4227+289175054+289727472+291076798+292395466+292989648+292823281+292176559
4217+291317856+290744571+291044647+292097152+292962572+292921584+292128407
4207+291090351+290199139+289939782+290681762+291929680+292650167+292564729
4197+292332717+292482964+292855491+293060428+292842117+292065240+290947836
4187+290201766+290497334+291820659+293486063+294734936+295291444+295324460
4177+295039550+294593555+294297838+294581137+295621133+297025985+297976275
4167+297868568+296864096+295652090+294714607+294120007+293890682+294102753
4157+294657380+295234635+295553995+295556234+295279682+294755236+294063497
4147+293304113+292547206+291945800+291690025+291704056+291652501+291333648
4137+290938194+290969539+291862184+293402715+294668186+294988054+294672903
4127+294372648+294239656+294135381+294123291+294229357+293982328+292799996
4117+290920252+289503101+289552268+290929238+292610015+293659833+293965521
4107+294095051+294376678+294482296+294238432+294259537+295058357+296046141
4097+296304782+295868699+295402136+295034325+294366528+293444090+292930301
4087+293223690+293928534+294404172+294498834+294486953+294525970+294481699
4077+294236372+293910802+293684044+293514034+293174225+292592074+292104854
4067+292184440+292775547+293221183+293080459+292647480+292393914+292332209
4057+292187306+291807823+291308721+291046080+291411831+292451081+293704463
4047+294616721+295159049+295819831+296782062+297440157+297128677+296044261
4037+295004204+294509013+294383604+294244731+294059377+294062601+294287181
4027+294540149+294784700+295030654+294911184+294101768+293134103+293008276
4017+293909280+294957038+295280458+294842554+294170518+293718523+293626309
4007+293711687+293699029+293648937+293834231+294157472+294240939+294009882
3997+293674103+293390893+293245662+293204107+293070607+292771158+292430991
3987+292157692+292145453+292668436+293556425+294268732+294760490+295446795
3977+296254750+296645666+296514346+296257197+296076023+295817353+295401300
3967+295023399+294850017+294727951+294396440+293925161+293715717+294052899
3957+294789506+295482887+295727915+295444915+294989457+294760012+294639080
3947+294302166+294132754+295034833+297065181+298888235+299312288+298711808
3937+298088072+297835969+297960842+298480123+298976747+298582905+297198890
3927+295997691+296052261+297025657+297801967+298099745+298537052+299338767
3917+299846973+299351544+297999859+296687310+296117011+296020647+295689137
3907+295441661+296713879+300101136+303886416+305797653+305571880+304177834
3897+302283971+300627911+300239084+301481838+303225007+303721959+303039116
3887+302992606+304406623+305983783+306461570+306409477+306343145+305493159
3878+303640701+301997597+301802900+303399673+306246513+308868983+309558125
3868+308417944+307051392+306064623+304920800+303530008+302447741+301962849
3858+302345735+304647919+309910204+315644543+316139883+311566711+306366221
3848+303024817+302153964+303462363+305792041+307713518+309053113+310775653
3838+312724923+313216412+311851204+310131051+309060456+308300564+307410367
3828+306447748+305536176+305184605+306496527+309498749+311701345+311403807
3818+310265656+309584007+308650165+307275942+306415716+306461361+307309526
3808+308793516+310188846+311211737+312989713+315720249+317111548+316110628
3798+314789900+314348055+313720380+312185491+310671707+310247595+311155256
3788+313201993+315911961+318381437+320151443+322097638+325259689+328970696
3778+331534566+332887654+334727007+338434192+344007628+350180707+355441529
3768+359637935+363630688+367453282+370554435+373232102+376031059+378418800
3758+379678360+380695371+383408263+389468591+399248403+409859334+416554830
3748+419078280+421080328+424948179+429267487+431968170+434203724+438151579
3738+444572045+452158992+458076148+460346151+459816421+458793888+458799978
3728+460457112+463840399+467744342+469947655+469193972+466322653+463317446
3718+461498183+460824893+460977976+462212341+464328844+465590165+464472016
3708+461653624+459181342+458981988+461649535+465357944+467321393+467580960
3698+468650032+471615267+475129726+477778943+479703107+481559446+483092484
3688+483444503+482522513+481214741+480519032+480727401+481267788+481827878
3678+483354140+486508788+489360285+489750426+488270137+485785704+482473436
3668+479523157+478284612+478509192+478802640+478285299+477454836+477523467
3658+479193079+481725276+483492894+484193648+485278363+487719331+489847327
3648+488716042+484382912+479467542+475956248+474238394+473897569+474813917
3638+477258348+480880932+484231859+486163516+487577204+490606024+495282366
3628+498125445+497340687+495372879+494679319+495802783+497890627+499363094
3618+499307778+498479554+497935316+497862058+498329606+499950439+502834864
3608+505761649+507381259+507741816+507919019+508609504+509462386+510213710
3598+511955595+515630958+519543110+520556060+518414273+516410164+517641515
3588+521907954+525796761+526722304+525413875+523575566+522124921+521622207
3578+522494314+524404984+526007817+525970561+524479317+523330419+524025740
3568+525974323+527221375+526962197+525794492+523953438+521439391+519352891
3558+519536124+522651994+527150446+530219149+530123980+528286866+528161128
3548+531056926+533861435+532897383+529561144+528068167+529464959+531410139
3538+531850999+530581557+528168650+525372738+523373287+523126109+524310114
3528+525432025+525396142+524750376+524689477+525168667+524867278+523044612
3518+520800790+519776197+519923250+519797750+519228466+519791243+521790336
3508+523118587+522526375+521537844+521719586+522500762+522795405+522782031
3498+523172201+524226408+525541344+526085851+525041258+522960250+521489364
3488+521491693+521878042+520901929+518447528+516225438+515677408+516416613
3478+516990435+516825112+516745406+517549271+518768143+519203390+518286684
3468+516398582+514465164+513477170+513781246+514998208+516490169+517461326
3458+517040288+515192666+513132137+511753973+510584596+509336051+508824441
3448+509192700+508911132+506768450+503730256+501715341+501529480+502594552
3438+503934625+504874437+505238516+505383837+505724811+506200061+506478165
3428+506250929+505040953+502425588+499111320+496971085+497160677+498734434
3418+499862196+500033041+500022802+499884227+498647384+496552166+495723375
3408+497476843+500508022+502746143+503550186+503256320+502328628+501503867
3398+501202119+501045991+500883833+501065574+501370009+501002825+499899870
3388+499076661+499461219+500937806+502371794+502531265+501418489+500229052
3378+499696396+499347929+498735568+498491883+499467160+501460820+503494243
3368+504995040+506033962+506785286+507568075+508826053+510396586+511430970
3358+511461778+510832908+510066240+509698399+510311507+511817200+513250233
3348+514020005+514768941+516281322+518006907+518463231+517285077+515869717
3338+515469099+515618480+515120005+513959704+513141928+512943052+512733906
3328+512470370+512891168+513907701+514126578+512786864+511036501+510302790
3318+510557729+510958288+511161582+511294067+511339741+511172568+510910942
3308+510879597+511109102+510987304+509970772+508588130+507934781+508358207
3298+509474267+511063667+512922633+514217927+514150819+513105687+512148800
3288+511711343+511710328+512345228+513685778+515017791+515682245+516208004
3278+517628857+519825215+521298130+520995248+519899905+519717149+520542447
3268+521221768+521340879+521194065+520506983+519027679+517693517+517466281
3258+517590527+516675910+514987580+514007467+514217389+514720163+514649950
3248+513859639+512473594+510878284+510105167+511119013+513534905+515670542
3238+516235289+515525699+514623919+514048962+513625775+513059655+511988732
3228+509999251+507297911+504923693+503860292+504311063+505781650+507395588
3218+508245246+507843911+506574290+505738483+506490345+508301547+509251211
3208+508269605+506143222+504060781+502385168+501036916+500165765+500077730
3198+500502619+500285473+498727030+496846839+495976493+495903713+495754571
3188+495500348+495337474+495124209+495180092+495818963+495970254+494246997
3178+491163487+488560153+487414479+487488781+488298765+489402855+490211764
3168+490152776+488930979+486609928+483666157+480958190+479427241+479539934
3158+480804659+481988275+482178494+481469889+480349321+479012652+477723000
3148+477047202+477001528+476744081+475769283+474651371+474139821+474186122
3138+474191824+473764129+472923308+471806024+470562255+469531244+469188688
3128+469756510+470858002+471524307+470826299+468986050+467452744+467168340
3118+467321244+466758169+465955767+466181332+467303273+467912978+467333573
3108+466210139+465213459+464256482+463032654+461732524+461053353+461416328
3098+462146994+461955671+460548580+459054618+458482289+458588981+458573428
3088+458191288+457843180+457969724+458640596+459549839+460201068+460100138
3078+459091098+457654214+456569230+456130640+455971138+455752530+455600671
3068+455704020+455837251+455543444+454735699+453826664+453099073+452343569
3058+451473672+451007408+451352740+451996983+452053076+451427609+450870684
3048+450884446+451103025+450895760+450160347+449312480+448814991+448839141
3038+449148262+449316660+449139605+448649429+447786607+446458565+444927109
3028+443720984+443191553+443320455+443723253+443843379+443468254+442941987
3018+442571758+442182752+441589705+440982985+440526125+440120790+439778353
3008+439687692+439895852+440281455+440555888+440200704+439024283+437718152
2998+437107075+437076446+436925542+436362945+435581858+434858386+434439110
2988+434342597+434220023+433868362+433635395+433898274+434472753+434825757
2978+434593118+433803881+432899982+432467302+432571695+432475362+431474442
2968+429898715+428719159+428312928+428263194+428251343+428375946+428605421
2958+428677067+428598734+428704292+429079895+429294294+428894273+427955894
2948+426901449+425914798+424956179+424260022+424223752+424768289+425315244
2938+425461878+425279779+424939193+424428360+423666767+422639427+421424645
2928+420240283+419406715+419144582+419439553+420072960+420642514+420707472
2918+420209923+419598547+419249871+418998037+418545176+418022939+417734476
2908+417626828+417479179+417373352+417455028+417412250+416789470+415734666
2898+414875277+414516511+414420416+414297395+414160074+414198255+414446149
2888+414603531+414275035+413440065+412524881+411943894+411727644+411666984
2878+411707106+412000853+412459116+412524642+411799290+410713112+410070838
2868+410092003+410279745+410013969+409074934+407900512+407330959+407685366
2858+408283339+408340774+407972247+407748892+407733995+407562613+407122440
2848+406675490+406451269+406360160+406097608+405502830+404778164+404303123
2838+404267032+404455430+404356052+403698315+402927706+402691753+402872270
2828+402775668+402236684+401760091+401593634+401420998+400987392+400429332
2818+400005339+399931246+400365956+401208210+402029090+402414066+402192801
2808+401315679+399939276+398654908+398087534+398190495+398399431+398447016
2798+398473794+398428209+398058995+397462247+396934845+396345947+395371596
2788+394305419+393900114+394359362+395078386+395392135+395137136+394544417
2778+393976536+393668698+393458359+392938092+391999892+390985956+390291262
2768+390075250+390225318+390304875+389798728+388737059+387748767+387304653
2758+387336446+387622700+387951404+387936687+387327192+386436457+385801975
2748+385624503+385766659+385945774+385848574+385420850+384981453+384759232
2738+384528414+383990325+383297959+382861129+382747661+382675746+382613743
2728+382884205+383468983+383757476+383338379+382536067+381805251+381146798
2718+380501390+380189702+380418908+380713133+380452910+379751797+379189707
2708+378956411+378832195+378683292+378493043+378247925+378086842+378208251
2698+378517551+378683143+378526059+378119172+377602786+377084758+376643032
2688+376304775+376029566+375777792+375593841+375514136+375410757+375130055
2678+374799142+374684718+374694688+374408553+373750189+373225266+373252491
2668+373617346+373851538+373832940+373720546+373592420+373422799+373202130
2658+372946056+372742822+372717805+372765360+372555797+372024634+371542249
2648+371380539+371351135+371168259+370844062+370558614+370407352+370394784
2638+370436428+370305765+369833411+369199197+368793981+368763801+368866732
2628+368794399+368507787+368214398+368062091+367921994+367578543+367127533
2618+366951554+367222464+367686847+368057703+368327001+368512533+368379511
2608+367726461+366823726+366239724+366221335+366501081+366730049+366818352
2598+366793426+366655358+366490902+366450332+366520933+366511649+366273278
2588+365811641+365227013+364617816+364033277+363542743+363316671+363495695
2578+363986259+364537572+364994582+365326899+365482101+365429680+365302629
2568+365234237+365083572+364648474+364131700+363985274+364266394+364542050
2558+364477151+364216301+364127192+364337920+364612950+364688894+364582858
2548+364412043+364137282+363740574+363388913+363195769+363107734+363152692
2538+363446528+363861715+364021186+363743201+363279504+363006952+363043701
2528+363236219+363393988+363475545+363606955+363892314+364160268+364056651
2518+363503755+362895245+362713922+363087285+363749530+364312456+364561036
2508+364571335+364589396+364773406+365000284+364965655+364549394+363967064
2498+363475455+363138243+362992116+363160304+363631195+364137581+364373743
2488+364249049+363929838+363670391+363566087+363488262+363294610+363040656
2478+362933784+363102868+363447603+363746067+363906613+364048830+364315232
2468+364678326+364967864+365049988+364948669+364781884+364610890+364412043
2458+364203166+364119102+364268722+364524109+364606890+364461867+364376907
2448+364597844+364958640+365081303+364867710+364588680+364489361+364498675
2438+364408401+364217286+364169732+364454971+364941863+365260955+365161517
2428+364773137+364500794+364655967+365175577+365706531+365973889+366008338
2418+366008309+366133897+366462930+366966778+367492508+367887365+368121856
2408+368227712+368220130+368145857+368104153+368169082+368320075+368458381
2398+368531490+368659019+369069369+369894877+371137780+372926623+375750536
2388+380325470+387239605+396874304+409623948+425847422+445449884+467838406
2378+492430959+518738648+545746973+572022363+596918394+620656333+642920163
2368+662970559+681048431+697121658+708366026+711216329+706020407+695646473
2358+680418725+658865621+631393391+600370879+570053361+546423368+534147600
2348+534910865+547834668+568666420+589605641+604304405+611878904+614231449
2338+613882415+613146136+612729218+612182681+611547005+611491539+611954490
2328+611447955+608261335+602122078+594189291+585674324+577019588+568196604
2318+559209133+550075983+540703596+531131198+521683643+512575450+503544872
2308+494245266+484863804+475920395+467540868+459443326+451636606+444583090
2298+438571840+433368962+428557090+423901615+419393401+415192100+411522618
2288+408477856+405923510+403629027+401462761+399469250+397813340+396645307
2278+395964703+395576652+395205826+394704336+394138365+393664400+393368204
2268+393196404+392960630+392482813+391826061+391245314+390845591+390493661
2258+390125582+389885688+389842521+389777175+389425335+388834915+388346978
2248+388261899+388597230+389093018+389396438+389344405+389100093+388934771
2238+388931875+389006387+389086600+389141349+389136036+389035523+388765419
2228+388222822+387449079+386682500+386111544+385698148+385333054+385003544
2218+384695258+384295774+383758939+383259748+383029168+383086156+383250942
2208+383398591+383595378+383936710+384320462+384525189+384534563+384598776
2198+384911509+385415088+385964222+386498042+387010398+387477289+387850593
2188+388117383+388380293+388790166+389314941+389705559+389812430+389810341
2178+389967424+390306218+390656267+390961866+391341647+391851764+392353344
2168+392654136+392719423+392706885+392767814+392850863+392821578+392765127
2158+392947704+393425461+393910264+394103468+394012657+393890621+393955669
2148+394187950+394408708+394574867+394853837+395321265+395798037+396129070
2138+396418041+396853885+397488546+398262588+399110276+400015041+401032230
2128+402248415+403743213+405590178+407748623+409953160+411917266+413631926
2118+415298822+417085336+419058070+421154183+423136171+424755900+425967368
2108+426867536+427530617+427990164+428252059+428249850+427902488+427277887
2098+426642271+426268429+426205710+426345657+426661913+427172150+427703671
2088+427975537+427941803+427799855+427592889+427015425+425781179+424068609
2078+422364547+420935694+419713090+418620703+417720326+417047424+416538680
2068+416126658+415776340+415460055+415197563+415096572+415249864+415598629
2058+416000293+416411001+416867145+417330514+417715729+418030104+418373316
2048+418855193+419552813+420472803+421545249+422670295+423726710+424597802
2038+425296078+425995997+426880582+428032465+429464781+431148872+433021660
2028+435025380+437137763+439392452+441873511+444611689+447485665+450300832
2018+452930616+455289908+457251387+458749318+459924636+461019919+462145472
2008+463230426+464144446+464806750+465250326+465616824+466001173+466320653
1998+466461198+466548665+466962538+467955577+469244333+470209579+470669843
1988+471113180+472010035+473311687+474695971+475954039+477108728+478345004
1978+479748184+481143155+482437046+483947724+486049868+488688159+491485564
1968+494095049+496316870+498159328+499882466+501816122+504133979+506799436
1958+509587647+512148800+514238823+515956588+517650351+519577500+521741378
1948+524077922+526692033+529765393+533164443+536308374+538733938+540664728
1938+542640178+544860358+547189857+549479951+551668606+553838753+556265989
1928+559208894+562671708+566334354+569550468+571791246+573424707+575372275
1918+577738671+579593339+580424966+580864333+581735126+583290315+585374964
1908+587754078+590083696+591880868+592925880+593626992+594586387+595845261
1898+596957501+597638970+598017558+598556990+599848642+601915142+603704373
1888+604154845+603699596+603531647+603942296+604418441+604767116+605239023
1878+605878997+606476045+606991953+607664706+608773303+610291355+611532915
1868+611467359+609928231+607877314+606284572+605503276+605338610+605157824
1858+604339213+602931077+601446579+600108895+598913726+598094338+597905194
1848+598302051+599066570+599674782+599133379+596992428+594128333+591679783
1838+590131221+589305804+588735803+588317034+588382888+588752460+588341214
1828+586568820+584207498+582060099+580125129+578264013+576681958+575508163
1818+574477838+573298491+572148698+571501976+571470034+571599653+571408300
1808+570914064+570538879+570766116+571869101+573579700+575010106+575384992
1798+574995837+575011837+576422361+579181854+581751724+582171388+580618827
1788+579100536+578876464+579695971+580839316+582144163+583682813+585105577
1778+586052494+586962692+588994444+593001466+598101682+601733759+602543056
1768+601497925+600156778+599775742+600984405+603263453+605359148+606934219
1758+608613832+610389928+611914249+613819008+616958402+620718426+623223337
1748+623525264+622433563+621356729+621416911+622957054+625342198+627565661
1738+629534245+632332188+636613493+640656458+641783325+640611321+639312445
1728+638686262+638792895+639758022+641478831+643726475+646950052+651963338
1718+657977036+661603500+660982332+658605189+657105168+656913336+657621375
1708+659418964+662633944+666544961+670257520+674170567+678524116+681534069
1698+681805726+680275195+677847781+675518819+674896935+676552845+679597069
1688+683288433+688342676+694900284+699413483+698830586+696121424+694613044
1678+694801532+695965655+697391224+698992624+701475087+705193915+708797751
1668+710449183+710935359+712372093+714914559+716704029+716645817+716081368
1658+716944699+720502861+727796986+738110976+745084368+744810264+742527692
1648+741388467+739826412+736310879+733023358+732351083+734100312+736892045
1638+739933821+742797200+743820598+741801743+738921169+737974372+739774171
1628+743315257+747221021+750936087+753980908+755581472+756356559+758402460
1618+762978111+768487184+771379520+771279096+771045531+772355154+774630322
1608+776708285+778368136+779868635+781169840+782343515+783844253+785858750
1598+787789361+788712695+788504146+788229027+788772459+789601459+789792634
1588+789413389+788964111+788628213+788786430+790120233+792819006+796616823
1578+801210982+805216691+806088559+804070778+802011443+800920399+799550892
1568+797227304+795298961+794903178+795931771+798435310+803243390+809827806
1558+813977283+813944625+812870537+811934666+810816337+809929065+809697590
1548+810077312+811587662+814839061+818919103+822218863+824347336+824896321
1538+823355999+821495481+821684864+824303692+826929744+827417651+827156443
1528+828595088+832234508+836582982+840214223+842846962+844781873+846795056
1518+849679809+853261853+856747236+859735636+862415422+865729512+871701357
1508+881740765+891681839+893409156+889075071+886277846+887723536+892630368
1498+898744012+903217089+904557341+903944770+903835093+906225013+911560107
1488+917558282+920801502+920725617+920043849+921479449+925463246+930823177
1478+936174153+940138009+942031902+943448098+946768636+950627590+951715769
1468+950383159+949730288+952113760+957112597+962462260+966619738+968385087
1458+965631446+958440072+951601315+947761227+945343962+943163545+942126415
1448+943287075+945615618+946977125+946820101+946490710+947318815+949086671
1438+950108876+948742354+945856049+944429942+945688577+947904996+948644439
1428+947836037+947779377+949583892+951598031+952094117+951868672+952778035
1418+954604283+955005319+952842576+949517083+947421925+947582769+948880571
1408+949961883+950711117+951524236+952766990+954811040+957158152+958229076
1398+957390105+955533766+953036974+950178492+948547299+948752206+948774774
1388+946611851+943631630+943552820+947812453+954095897+959393139+962993691
1378+965961016+968896936+971501375+973701673+975765068+978012950+980827908
1368+983753619+985386782+985074168+983854341+983490321+984656951+986291666
1358+987229926+987518956+988053373+989502765+991759484+994666507+998503192
1348+1003431040+1009445813+1016831047+1025070418+1030932466+1030298999
1340+1023933282+1018054875+1017301998+1020701585+1025028505+1028839577
1331+1031745525+1032645275+1031911742+1032827852+1037412099+1043023268
1322+1045708786+1045608841+1046174244+1049561771+1054771007+1058990340
1314+1060232675+1058182893+1054281667+1051939809+1054543055+1061572449
1305+1068563394+1071786732+1071637829+1070793604+1071006511+1072335657
1297+1073342398+1072162156+1069071123+1067363687+1069731696+1073741823
1288+1073041367+1065234020+1055141893+1047534079+1042124473+1036745795
1280+1031658833+1029226344+1030720275+1034766225+1038214053+1037924008
1271+1032554762+1023852680+1015738809+1010974492+1009057612+1007836890
1263+1006054704+1003399158+999975749+996584760+993470681+989393326+984077756
1253+979948338+978846727+978609042+974985861+966728878+956995576+949325848
1243+944068132+939148941+932976786+925666361+918000694+910393417+902694613
1233+894537098+886310385+879425774+874936457+872398768+870390838+867777145
1223+864407590+860897908+857737856+854935436+852941358+852838248+854675362
1213+856624005+856949038+856319511+857072626+860353221+864705277+867771712
1203+869007361+869825435+871397818+873594892+876020993+879000856+883025610
1193+887560005+891029028+892489823+892821005+893574538+895438460+898425248
1183+902511857+907130495+911268569+914862972+918878054+924149324+931015367
1173+939154314+947115580+953239015+957611729+961682635+965889967+969551299
1163+972557850+975602611+979138444+982586332+984515391+983895776+981476421
1153+979342574+979033722+980557864+982970890+985480219+987809718+990527477
1143+994463570+998336078+999129434+996315611+993022060+992672250+996876357
1133+1005161999+1014713560+1021916456+1025291683+1025358672+1023108879
1124+1020866131+1020930970+1022054852+1021374696+1019736518+1021407772
1115+1028023532+1035685797+1038320089+1034232226+1028227603+1025615761
1107+1027179785+1030838968+1034978774+1038185872+1038743992+1036390074
1098+1032637632+1029387069+1029144906+1033915910+1041911089+1047995596
1090+1047451925+1040972530+1036154837+1038400332+1044273365+1045560957
1081+1039208614+1031627309+1029886678+1032954426+1033928090+1028843995
1073+1020109433+1012505202+1009445215+1009915092+1009378943+1004948017
1064+998705411+995130532+995320930+996012609+994598145+992428296+991789695
1054+992908203+994759228+996572460+998380797+1000687190+1003397008+1004650449
1044+1002507527+998201086+995405890+996917255+1002501437+1008144011+1009515428
1034+1007289995+1005167611+1003963606+1001610822+997681655+994363625+993450501
1024+994832665+996827400+997134939+995152742+992888560+991795844+990381499
1014+987104009+983988079+983918523+985969559+987132189+986584876+985142768
1004+982630215+977896228+970724139+962270369+953792060+946262519+940717563
994+937646830+935769295+932650798+927476788+921867231+917316716+913471613
984+909261416+904668511+900753852+898113769+896033835+893563254+890640768
974+887185477+882638604+877458742+873322041+871326351+871123952+871517108
964+871250885+869721548+867001342+863305261+859130588+855566515+853574766
954+853392129+854905763+857630925+860417762+862550713+864976934+869318064
944+876127268+884528080+892827632+899668241+904585462+907191393+907597624
934+908348232+913165925+922168143+930945930+936166869+939554634+943995650
924+949177602+953379381+956325450+958200955+958432728+956557821+952907475
914+948331586+943905197+940371156+938224174+937508076+936924761+935145978
904+933371016+934319068+938672497+944132732+947945714+949496246+950087143
894+950167386+948903258+947197734+947529214+950543944+954114883+956381931
884+957744632+958866901+959186799+958680443+959022193+961636364+965674911
874+968779437+969554822+968423656+967045433+967792697+972006954+978170272
864+983636000+987613648+989638056+989033546+987096784+986494722+988931212
854+993081048+996316566+997824050+998222102+997874740+997311963+997827931
844+999929179+1002947670+1005616949+1006179964+1003765625+1000410698+1000243286
834+1004805204+1010528617+1012407644+1009465157+1005065994+1003150428
825+1005845140+1013181178+1022684020+1029602125+1030089913+1025822578
817+1022776324+1024216760+1027676409+1028909670+1027425530+1025503516
808+1023264350+1020675195+1021537690+1028376268+1036666029+1039152611
800+1034175029+1028133509+1027021090+1029893962+1032265314+1030795145
791+1026660354+1024359335+1025437721+1026488166+1024466922+1019770072
783+1013814526+1007532993+1002240050+998613048+994120089+985440695+973794155
773+965104552+963956669+968823200+974264569+976520691+975910270+973993211
763+972118722+972368884+975871402+981381013+986990570+993077585+1000836333
753+1008824883+1013776554+1012919075+1005408221+994351743+986227245+985754443
743+992458925+1001371108+1006996725+1008299601+1008806375+1012167631+1018351726
733+1023851844+1025828309+1024702398+1022283999+1019897959+1019336138
724+1021249196+1022242922+1018210823+1011501804+1008464983+1011333676
716+1017419139+1020852279+1015758392+1005063367+998020180+998526715+1002041233
706+1002678163+1002453315+1007157569+1016534076+1025347925+1029756163
697+1028677896+1023296829+1016251912+1009687736+1004481723+1000669159+997288499
687+992885575+988310880+985326360+984033694+983150601+982686695+985069690
677+990581868+994540291+993351689+988922793+984561364+981338443+976058815
667+969222744+967297864+969944873+970538935+961086484+946204486+940495461
657+948844270+960540066+961439936+952812186+950121294+962797979+982270912
647+990303286+982668366+968824394+955350234+943028613+935132604+935593226
637+942881978+949672494+951160574+948938843+944189571+938859910+936185139
627+938679244+945601468+953241881+958080053+958040170+950007855+936211050
617+927125485+924719146+923308622+922564403+926059756+934632279+944192019
607+951746158+961264881+972877509+976181150+963665131+939340891
##END=
