##TITLE=<SNM>
##JCAMP-DX=4.24
##DATA TYPE=INFRARED SPECTRUM
##DATE=29/4/2025
##SAMPLING PROCEDURE=Instrument type and / or accessory
##ORIGIN=Admin
##XUNITS=1/CM
##YUNITS=ABSORBANCE
##RESOLUTION=4
##FIRSTX=4497.3318
##LASTX=599.83466
##DELTAX=-1.4281778
##MAXY=2.1221292
##MINY=0.38623351
##XFACTOR=1
##YFACTOR=1.9763868e-09
##NPOINTS=2730
##FIRSTY=0.40093863
##XYDATA=(X++(Y..Y))
4497+202864451+203811093+204984827+205461812+204647883+202900445+201225312
4487+200392654+200465547+201185111+202327783+203362502+203375545+202004711
4477+200133654+199110259+199506510+200873123+202280509+202801586+201982258
4467+200326592+199016814+198915527+199842776+200847141+201247298+201352958
4457+201889913+202708276+202693438+201339839+199640353+198817316+198983926
4447+199573552+200233132+200692504+200511056+199525917+198221235+197414408
4437+197655705+198782935+199904797+200228638+199909909+199677101+199891226
4427+200319626+200517374+200213921+199578559+199116472+199100654+199240921
4417+199100232+198770962+198868766+199669456+200566231+200845694+200736023
4407+200885880+200974998+199916680+197638379+195689604+195615038+197238328
4397+198851530+199001418+197840516+196651627+196486856+197430663+198716315
4387+199405796+199190707+198478531+197747809+197181495+196886319+196912316
4377+197035799+197015337+196932582+196950210+197112914+197559862+198413646
4367+199419262+200182481+200673278+201025965+201000512+200148326+198523422
4357+196834462+195757883+195424045+195754852+196899755+198839542+200774052
4347+201565861+200886498+199502846+198404870+198021556+198307684+199057603
4337+199734161+199484434+198088584+196618407+196372843+197445456+198891023
4327+199872980+200174911+200022400+199800932+199753508+199891754+200191799
4317+200603914+200946166+201143251+201377778+201741805+202038036+202023771
4307+201626751+201034606+200660461+200862281+201677326+202766949+203491052
4297+203295686+202385777+201669108+201685861+202001785+201946927+201584107
4287+201587545+202286315+203088784+203062893+202018373+200690845+199911975
4277+199899414+200280103+200623245+200938702+201560448+202568311+203646202
4267+204489657+204967546+204985913+204561599+203895385+203231765+202779751
4257+202711940+203090172+203788956+204482856+204824173+204827234+204860590
4247+205050633+205060223+204677121+204160116+203868801+203982709+204527716
4237+205244250+205546572+205064702+204202579+203742482+203888509+204097778
4227+203937728+203727056+204088942+205157574+206463614+207427506+207823606
4217+207767708+207358504+206570450+205573504+204856925+204814342+205352202
4207+206058375+206649902+207188651+207881676+208688820+209311651+209628646
4197+209746882+209466877+208342557+206617964+205412895+205505331+206492852
4187+207480162+208043401+208264929+208392273+208754113+209491772+210215785
4177+210461711+210466024+210805607+211429901+211824328+211900236+211956316
4167+212019015+211923549+211747891+211525760+210872122+209562479+208264823
4157+208040762+209089776+210451744+211143246+211182437+211191575+211408444
4147+211492962+211179059+210813946+210959777+211518416+211804468+211618421
4137+211508283+211732661+211796250+211353631+210886221+211059933+211828082
4127+212579871+212989015+213247487+213471504+213473826+213263848+213182330
4117+213346256+213494997+213573560+213926669+214659111+215256126+215225470
4107+214818724+214640262+214819101+215057187+215178906+215182811+215090768
4097+215065993+215300188+215642305+215762772+215658711+215539299+215348758
4087+214934698+214577563+214829159+215864828+217315944+218605185+219197783
4077+218848096+218013975+217556744+217684012+217819755+217687767+217688551
4067+218054161+218493765+218790554+219084704+219515245+220008893+220436478
4057+220702339+220617836+219986304+219055857+218539470+218790509+219359311
4047+219746334+220015633+220298458+220415774+220334814+220315181+220332115
4037+219948892+219020451+218138122+218110633+219093977+220368094+221072745
4027+221096721+220996354+221144250+221406794+221656581+222062000+222688571
4017+223225948+223328879+223030537+222712547+222737443+223093010+223408120
4007+223415072+223333026+223611584+224333937+225054708+225307299+225161212
3997+225079302+225312140+225693779+225981309+226100812+226066009+225943038
3987+225846788+225748441+225508320+225276402+225408179+225850256+226166482
3977+226278867+226606644+227301900+227847903+227696191+226965830+226148688
3967+225428084+224837296+224786178+225592432+226630469+226839602+226094283
3957+225246003+224943514+225198066+225984808+227557161+229824604+231749207
3947+232143995+231213187+230308360+230103961+230066067+229818165+229801669
3937+230336422+231236484+232405619+233873654+235156532+235487520+234985775
3927+234664030+234956506+234986228+233920671+232565474+232524489+234141898
3917+235870034+235747290+233550055+230915840+229436737+229358054+230214130
3907+232202111+236038182+241361379+246116061+248360885+247889012+245360804
3897+241616987+238195759+236966066+238541163+240889808+241025792+239565251
3887+239992958+243317302+246392342+246888161+246555740+246364264+244620566
3878+241656540+240546485+242675531+246557776+250613235+253943505+254779646
3868+252852133+251105872+251415357+251831151+249795007+246203716+243828622
3858+244642416+250066508+260516707+270260068+269250366+259589910+250073580
3848+244701693+243690889+245948501+250046875+254668573+259113286+262881426
3838+264623375+263238864+259794534+256288712+253738187+252148221+251332422
3828+251058599+251116035+252457360+257013478+264075548+268116983+266140463
3818+262530775+260406689+257640200+252830932+248569235+247807630+251408180
3808+257347844+261612422+263107343+264755318+267520149+268235415+265632203
3798+262307271+259279911+255623508+251805154+249592675+249554871+250677939
3788+251908160+252909841+253573612+254246265+256145459+259806175+263277979
3778+264032602+262593353+261700363+263378527+267899813+273696557+278248483
3768+280519591+281350515+281492561+281809465+284055602+288987192+294505001
3758+297786837+299434179+302872507+310672824+321963069+331225887+333890652
3748+333376904+335474239+341413602+346219613+345986097+344383058+346781494
3738+355582315+368426472+378736510+381843487+379550153+376346759+375035623
3728+376519205+380479695+385458966+389677642+392227775+393395568+394348000
3718+396491236+401199745+410040346+423637618+438479375+447514588+449079929
3708+448014916+447555181+448294755+450538479+453869835+456517139+457444992
3698+457503107+457982987+460141091+465524937+475043166+486634483+493887395
3688+491819223+484341752+478237935+476198353+477504724+480302910+483828577
3678+489165375+496246686+501256567+502614871+504254703+507753348+508673842
3668+503925132+497446899+493642780+493674748+496767581+501735030+507597731
3658+512916766+515471181+515360199+516914502+524227429+536185954+545076708
3648+544397481+537460206+530577821+526896567+526874189+528965372+530995876
3638+532487028+534671943+538255724+543005430+549534721+558845219+567909685
3628+569374418+562868348+555850732+553863174+558693161+568608998+577631122
3618+579836182+576465922+572533027+570354626+569745728+570512053+572451056
3608+574135101+574230100+573409429+573166112+573826279+574560394+575364236
3598+577992540+583552963+590034604+593899582+595078172+597779037+605092085
3588+614053590+617501840+613096785+605434503+599377070+596430655+595136740
3578+593414394+591154867+590152101+591803092+595982381+602023469+609199899
3568+615103464+615968949+611542783+605896168+602295256+601108161+602036376
3558+605288295+609629897+611984664+610791960+608632438+609364262+613484200
3548+618385601+621570327+622385448+621357530+619561598+618717223+619949314
3538+622295335+623385621+621893143+618893107+616668262+616976179+620303132
3528+625148560+628189611+627139979+623343520+619903232+618151874+617504373
3518+616850358+615394734+613824869+614188519+617369626+621674314+624918391
3508+626675660+627454290+627352656+626139685+623787934+621107215+619678250
3498+620626129+623756569+627817758+631068954+632283975+631875630+631114734
3488+630305826+629218917+629038811+631630804+636244978+639397796+639430669
3478+638330973+638244901+639511373+641461595+642528177+641145897+638328681
3468+636804536+637011906+636663516+634480531+631899455+630786068+631460229
3458+632814099+633548576+633493990+632899869+631812298+631131080+632393148
3448+635698266+638858202+639412151+636974509+633273351+630447389+629623884
3438+630444494+631540450+632274807+633560579+635629385+636152874+633108927
3428+628562429+626444828+627663890+629476651+629073494+626468351+623904044
3418+623476941+625664872+629202692+631886849+632051273+629462054+625288374
3408+621824804+621155951+623105932+625397487+626483913+627140160+628548496
3398+630433154+631641842+631590935+630663866+629571409+628948698+629508981
3388+631520364+633846240+634593685+633221659+631210577+630398472+631085179
3378+631720556+630739443+628748869+628209033+630149424+632473611+632987691
3368+632704926+634039434+637109438+639908378+641411231+642844840+645550228
3358+648658593+649588799+646676704+640963258+635408927+632923514+634788448
3348+639671091+644212824+645909053+645261673+643840429+641696891+638397804
3338+635012766+633465882+634493077+636565019+636973243+634852143+632633872
3328+633190958+636321761+639389834+640898960+641993227+644048160+646070340
3318+646065997+644041344+641939485+641190531+641790020+643228515+644868528
3308+645831908+645630208+644620385+643454100+643123021+645197254+649980013
3298+654955424+657237147+656885078+655734777+654211778+651590532+648225097
3288+645223553+643020120+641590251+641464792+643466103+647174258+650902920
3278+653644800+655394892+655511364+653293757+650077063+648155008+648263579
3268+649588195+651293652+653440809+656282031+658509469+657972952+655260204
3258+653588585+654067500+654409074+652971906+651056547+650482211+651629014
3248+654297307+658238406+662357439+664718539+664429139+662806859+661556492
3238+661167690+661746309+662982984+663167372+661184036+658867992+658861780
3228+661105564+662816630+661623383+658276405+655785564+655513173+655306829
3218+653076074+650372675+649787603+651110591+652306250+652528759+652450528
3208+652643663+652995370+653228434+652858330+651055642+647515711+643443303
3198+640964947+641334749+643843203+646394000+647199470+645829555+642821196
3188+639252553+636794946+636622199+637911410+638525073+636965220+633343318
3178+629350830+627180994+627558457+629188699+630704037+632130469+633505390
3168+633476136+630674060+625927491+621897667+620411944+620911306+621771122
3158+622169575+622013414+621310302+620517558+620588672+621933374+623609939
3148+624007367+622453305+619869937+617866817+617254240+617408047+617101879
3138+615919188+614608203+614037606+614277908+614616346+614139119+612368822
3128+609697693+607212883+606047623+606779386+608742637+609996201+609012314
3118+606409946+604148851+603215690+602946315+602362268+601068352+599089419
3108+596923444+595520113+595523793+596637180+598086773+599539382+601034997
3098+602251587+602704566+602450813+601815436+600887221+599823836+598804000
3088+597625290+596332580+595687191+595974238+596348685+596147770+595526929
3078+594582610+593320300+592429240+592519052+592751814+591714909+589520283
3068+587687437+586959292+586639372+586075531+585435691+585009432+584824682
3058+584933795+585209382+585049181+583774868+581238427+578301723+576773417
3048+577962019+580937868+583036591+582663411+580787318+578988189+577441546
3038+575585116+573610827+572355937+572171669+572819411+574091371+575468524
3028+575656290+573668007+570266141+567518893+566810532+567594530+568147755
3018+567490966+566198981+565212801+564709397+564406185+564092296+563549084
3008+562616224+561556700+560883987+560731144+560675411+560314174+559747498
2998+559130578+558243861+557043255+556051949+555581840+555074274+553887723
2988+552404171+551649669+551834298+551997515+551444290+550738161+550623801
2978+550786174+550496050+549758617+548970458+548092547+546964261+545918851
2968+545464002+545714316+546435343+547233395+547479608+546573227+544651475
2958+542699985+541554449+540965697+540181096+539162829+538570096+538732830
2948+539201069+539246789+538415926+536659562+534321201+532108057+530850332
2938+530888935+531516169+531523889+530717394+530164228+530545672+531240099
2928+531450604+531271705+531153303+531123205+530857268+530037262+528621808
2918+526874008+524993392+523117359+521891300+522115919+523497777+524669852
2908+524728963+524030374+523140882+521963077+520385190+518894340+517945557
2898+517259514+516311575+515135157+514066102+513160506+512439359+512093261
2888+511998262+511713446+511246172+511013470+511037778+511099542+511230791
2878+511233686+510469533+508884408+507524506+507324797+507976942+508453384
2868+508109458+506969290+505407628+503900071+502882135+502543938+502667739
2858+502857224+503069328+503582955+504269240+504344183+503125603+500934928
2848+498976442+498166026+498233098+498156888+497320566+495878995+494256745
2838+492841321+491968085+491692950+491649552+491426289+490953195+490349001
2828+489580988+488579307+487599642+487057937+486904793+486554201+485703282
2818+484828659+484450473+484265451+483563303+482327262+481261344+480734507
2808+480339281+479579501+478582434+477869912+477565403+477252811+476693795
2798+476207551+475998282+475530465+474149000+472045663+470101292+469055640
2788+469114720+469904719+470592904+470549174+469984790+469492032+469153564
2778+468683093+468149742+467839925+467522870+466550564+464782226+462874799
2768+461544633+460968155+460939052+461201551+461516133+461629951+461305477
2758+460420509+459140557+457898393+457020030+456463215+456034243+455671135
2748+455368828+455007591+454448635+453775711+453255841+452935347+452468495
2738+451567664+450430090+449463845+448795053+448298495+447897298+447533829
2728+446991973+446076183+444912914+443832369+443026477+442498403+442210541
2718+442066957+441889988+441590213+441180301+440604939+439850617+439164996
2708+438787715+438516953+437954227+437135065+436461327+436014952+435433710
2698+434545455+433712088+433342919+433359114+433321024+432872026+431972311
2688+430910826+430162747+430048477+430413876+430667026+430246165+429160825
2678+428027412+427474006+427544154+427710418+427414835+426629571+425920728
2668+425754495+425767192+425198103+424038664+423055983+422655298+422420184
2658+421824073+420862050+419934982+419454347+419543315+419933594+420208790
2648+420190755+419975394+419657705+419194412+418513225+417659501+416834970
2638+416279513+416067922+416057216+416020302+415816099+415481281+415081924
2628+414510513+413690023+412924030+412683186+413006815+413397758+413362202
2618+412868871+412245316+411735790+411259951+410672043+410108654+409806980
2608+409672835+409384702+408917126+408615422+408700830+408943666+408923671
2598+408513095+407969942+407553334+407251087+406978455+406840691+407012503
2588+407449348+407876511+408041417+407913727+407655541+407450343+407363517
2578+407337943+407336887+407419762+407567870+407560602+407221833+406655820
2568+406071562+405536100+405011766+404492891+404044978+403785918+403776327
2558+403869788+403812005+403592482+403550592+403943013+404472051+404503567
2548+403846988+403035155+402666318+402767891+402950018+402902880+402631123
2538+402357888+402221692+402105130+401891579+401723114+401759666+401917907
2528+402092132+402325106+402585734+402733661+402797295+402957497+403224851
2518+403389546+403297171+403030963+402840151+402926524+403234984+403453663
2508+403333783+403004061+402802875+402812495+402791897+402605579+402436269
2498+402481266+402708057+402996612+403263544+403375884+403201810+402823684
2488+402510911+402452585+402641256+403003820+403504630+404044797+404343908
2478+404129120+403521790+403030148+403045017+403504540+404070583+404400003
2468+404275479+403794814+403433909+403610034+404141606+404392795+404033850
2458+403440664+403200513+403426882+403771442+403959509+404034151+404094468
2448+404049472+403764113+403377694+403283268+403673397+404262360+404634364
2438+404687201+404522989+404143325+403535995+402902699+402564985+402660437
2428+403003398+403262458+403265082+403090435+402938708+403003217+403318885
2418+403667848+403848707+403985204+404269688+404570790+404649533+404560687
2408+404539666+404700169+405020994+405430847+405801885+406003705+406054492
2398+406180283+406638660+407428297+408214436+408610747+408523891+408189555
2388+407925609+407876632+407928715+407772435+407028578+405470595+403247741
2378+400767606+398296246+395826334+393362123+391087758+389172429+387643489
2368+386451448+385458423+384497757+383697806+383610045+384762458+387129982
2358+390067288+392766283+395057507+397726192+401395051+405193802+407391775
2348+406980294+404288568+400758257+398022227+396630086+396090401+395988496
2338+396299580+396954922+397750410+398539564+399173795+399512896+399682658
2328+399981286+400479503+400985018+401343269+401661862+402279747+403414276
2318+404834857+406081393+406858334+407075565+406882853+406775670+407208171
2308+408090636+409041831+409936088+410832637+411646129+412244864+412697179
2298+413172747+413683509+414083862+414295544+414401611+414502460+414644989
2288+414915087+415356606+415784885+415934381+415775506+415478295+415143447
2278+414763149+414374890+414097041+414001077+413987204+413838403+413438080
2268+412894716+412438058+412251890+412391825+412791303+413370857+414144872
2258+415103547+416006369+416503620+416519484+416351773+416373909+416748537
2248+417340727+417787885+417776365+417332524+416727124+416110234+415426936
2238+414686879+414113628+413912803+413949114+413820187+413337321+412768534
2228+412475997+412500788+412632912+412693258+412627181+412514419+412585080
2218+413024428+413692677+414248949+414599721+414993228+415637682+416470265
2208+417284270+417862557+418099391+418195958+418539251+419230391+419981486
2198+420574581+421141830+421888521+422731177+423333199+423513817+423539241
2188+423833828+424470080+425210559+425973294+426890471+427917364+428743493
2178+429171863+429355407+429551256+429773010+429794785+429470703+429000805
2168+428824951+429195055+429925401+430672665+431321282+431923515+432483556
2158+433019712+433628368+434331300+435057786+435823145+436713813+437681113
2148+438527388+439147776+439695633+440437711+441473078+442660233+443785563
2138+444771019+445813383+447274618+449253762+451389157+453311664+455107204
2128+457091807+459356249+461728931+464002391+466048034+467742333+468894413
2118+469490011+469987806+470917438+472159089+473109259+473558016+473930864
2108+474716581+476078142+477932370+480034500+481975886+483362810+484121626
2098+484531086+484877576+485145443+485093359+484537480+483463027+481907638
2088+479871826+477393168+474605568+471646577+468598137+465582932+462797684
2078+460407782+458487899+457007574+455817977+454791536+454004854+453614122
2068+453543793+453450061+453030407+452329978+451721713+451520406+451639351
2058+451757873+451750183+451747137+451890962+452245384+452825872+453553956
2048+454291178+454988953+455717791+456590936+457725193+459205096+461059022
2038+463319725+466041219+469176816+472583207+476251733+480325921+484685135
2028+488724490+491874473+494170461+495991244+497530709+498869651+500173218
2018+501397769+502155498+502197599+501708189+500959206+500043989+499036759
2008+498084960+497218811+496239960+494950478+493505318+492357399+491720062
1998+491337141+490999126+490920925+491298448+491886838+492360415+492731997
1988+493127645+493553572+494095427+494993303+496387556+498185870+500141883
1978+501956061+503460633+504764531+506076541+507517328+509281775+511645228
1968+514443082+516875839+518358546+519295869+520527718+522364847+524540413
1958+526767791+528987267+531252705+533610367+536024546+538422380+540839273
1948+543431749+546407537+549905790+553550793+556267883+557444181+558024006
1938+559366899+561668406+564248698+566603043+568568465+570160466+571718810
1928+573780257+576650552+580071116+583192087+585463135+587628929+590485773
1918+592853026+592903873+591410912+590886035+592235081+594284102+595703356
1908+596306403+596674396+597195050+597620344+597533487+597118146+597118568
1898+598035444+599556452+600859113+601688650+602744797+604272681+605070793
1888+604243066+602925627+602535799+602768320+602561675+601803614+601098149
1878+600681601+600291412+599733844+599448726+600471096+603285235+606401079
1868+606937959+603905111+599338950+595459857+592946396+591516527+590565211
1858+589361408+587581400+585633952+584033748+582926392+582420998+582745442
1848+584044544+586235672+588404422+588482532+585470071+581151812+577667673
1838+575471720+573813552+572234217+571551069+572895892+575515149+576572803
1828+574714021+571616031+568514481+564875570+560800870+557721879+556462646
1818+556454805+556860556+557651972+559264843+561417971+562747293+562167890
1808+560346986+558979907+559210256+561214462+564373252+567331127+568672511
1798+568360312+568131591+570071258+574564194+578819060+579043921+575877471
1788+573415883+573900830+576542946+579707346+582779340+585563442+587536886
1778+588904750+591213194+596084256+603298445+609461734+610678082+607657116
1768+603737551+600913579+600340389+602774654+606965765+609926233+610841601
1758+611621316+613111743+614861111+617629712+622761101+629299862+633921998
1748+635083397+634644894+634822829+636471226+639390799+642431127+644058534
1738+644812614+647718737+654396528+661001397+661633517+657604416+653416743
1728+650790490+649954017+650778306+652704944+655841236+661963088+672829698
1718+686258566+694370871+692641227+686355857+681522854+680092502+682037175
1708+686892917+693199218+698420841+702170736+707528796+716314357+724333714
1698+726591854+724510261+720511681+715974412+713425485+714448337+718233456
1688+723885741+732897671+745995520+756307518+755706582+748785051+743443276
1678+743040601+747762561+754863293+760596162+765107073+770581002+775013199
1668+774071232+769740065+767860775+770091290+772889265+772663801+770943023
1658+771828353+778223681+791499102+808592154+817322405+814462786+811462268
1648+812207602+811835146+806169229+798938996+794929981+794839627+797896240
1638+803793351+810590690+812331312+806390712+798982666+795461432+796060499
1628+798447173+800844705+802884136+803151098+799590900+793924139+790293310
1618+789932736+790007468+787281874+782531324+778271874+775569803+773996560
1608+772473682+770485943+768466235+766906262+765826894+765191698+765283439
1598+766323964+767675060+767949200+766602929+764765680+763584557+762817750
1588+761976089+761615093+762295949+763264999+763578646+764110097+766982081
1578+772706686+777751883+777067167+772467409+770003951+771171383+772338090
1568+770061855+765831116+762463328+761302411+764369942+774856195+791676615
1558+801285922+795731893+785664298+777691506+772407032+769615330+768894062
1548+769991767+773644190+780605289+790387524+801496428+810002300+808706997
1538+799243536+792204266+791589095+793811829+793741499+792113368+794029210
1528+801474774+811194220+818385729+822573403+826652928+831612717+836304518
1518+840647145+844663338+847049469+847668018+848664210+852363800+859971133
1508+870628022+878470350+877018706+871282520+868706089+870689304+875605966
1498+881195824+885397792+887647488+889917389+894652497+901781036+907760057
1488+909058497+906908445+904878423+904579674+905848558+908670600+913638531
1478+920919188+930017552+940503745+950862549+956270069+953634949+948203966
1468+946502249+949339430+952601180+952497918+951001278+952974963+960945826
1458+972942290+980599204+977518343+969258322+962798094+959862838+959544064
1448+960824468+962899064+964393834+964287737+964004731+966993910+975556721
1438+987531351+995565184+994657960+989814583+987462590+988463788+990450864
1428+991660095+992422982+993732097+996125467+999852742+1003897043+1005075210
1418+1001969922+999162356+1000812443+1004679170+1005886652+1003761692
1410+1002131390+1003423496+1006363215+1008256378+1007904490+1006582527
1401+1006104396+1007245046+1009997301+1013126837+1013206214+1007523288
1392+998818189+992425032+990410754+991055661+991595435+991463643+992493190
1382+995549080+998745145+999922529+1000072537+1002157024+1006830308+1011608664
1372+1014822221+1017027041+1018252316+1017761578+1016698314+1018129511
1364+1023233637+1029192814+1032722432+1034399118+1036258925+1038169037
1355+1039346179+1040651193+1042626326+1043973683+1044643923+1047017509
1347+1051451878+1054487018+1054313668+1053978306+1057056995+1063196037
1338+1068318018+1069073787+1066604900+1064345916+1063945895+1064117678
1330+1062922320+1060576238+1058916562+1058941412+1060420380+1062617720
1321+1064520594+1065338248+1064659322+1062091034+1058168875+1055284888
1312+1055392855+1058032559+1061790898+1066344332+1071139033+1073741823
1304+1072106876+1067502414+1062947653+1059827345+1058219179+1058028457
1295+1058407971+1057480178+1053365729+1045694400+1036216824+1027899985
1287+1022919507+1020805646+1018432542+1012743102+1004244467+996618798+992308561
1277+989974905+986891873+982455272+977939113+974171245+970951173+967446708
1267+962349518+954919576+946257906+938357493+931813786+925495181+918684452
1257+912263791+906953200+901825188+895821316+889453794+883606987+877960311
1247+871831161+865403323+859104562+852572556+845005937+836359526+827935202
1237+821515386+817734248+815460426+812922778+809362761+805444945+802536470
1227+801564405+801970397+802051342+800742890+798681444+797292348+797358697
1217+798617086+800415249+802616993+805650746+809692332+814314769+818982081
1207+823206307+826339703+828062591+828885373+829855870+831985595+835733680
1197+840594247+845440037+849511721+852800614+855762228+859015293+862828037
1187+866824265+870475783+873534929+876161665+879449593+884859103+892201103
1177+899606737+906313299+913552037+921971716+930140297+935689079+937578743
1167+937668133+939068447+943264143+949125184+954122369+956221996+955514239
1157+954529206+955866670+959712468+963944897+965969610+965045135+963123141
1147+962709850+964633835+967633449+969552608+969774694+969813599+970458325
1137+970368694+969608220+971646264+978169463+984600318+985148416+980277655
1127+973955311+968102412+963809666+963343116+967316906+972478937+975365698
1117+976057471+976781815+979393833+984186484+989452441+992323580+991507855
1107+988887996+987111727+987398775+990064777+994596678+998486085+998355861
1097+994752054+991752018+990504968+988798486+986503975+986023311+987654035
1087+989495386+990587060+990221238+987043449+982264128+979567847+979660916
1077+978932953+974760721+968688630+962983568+958076315+954089376+951383203
1067+949409638+946944793+943660002+940812627+939764503+940419241+940982962
1057+939079726+934630640+931184441+932050952+935977936+938506174+937451113
1047+934442029+931554726+930157668+931699787+936120766+940667445+942912797
1037+943557222+944486342+945550209+944412152+940716603+937868626+939068025
1027+943191883+945862167+945341995+943671341+942385448+941848568+942470313
1017+944076248+946115317+948551331+950153646+948021508+941694097+934545714
1007+929043255+923981471+917159523+908471554+899742570+892497560+886581630
997+880921262+875090559+869676405+865487947+862643227+860123373+856275765
987+850529265+844318506+839547268+836859613+835717635+835355554+834921514
977+833403461+830346969+826332103+822397459+819035643+815811168+812079007
967+807972158+804165204+800887771+798007765+795841730+795016475+795788590
957+798142694+802105989+807333765+812740320+817110994+819977610+821703333
947+823161431+825649800+830339671+837228571+845056241+852389012+858681440
937+864319370+869732499+874966608+880268393+886460031+893943715+901517271
927+907463058+911310967+912437925+909752079+904432260+899754754+898152379
917+898974979+899351536+897717555+895036052+892539601+889753086+886059950
907+883228439+883594682+886509250+888774265+888612978+887747553+888749294
897+891761574+895186482+898610243+902768723+906907118+909154883+909836644
887+911411877+914969240+919496135+923728684+926811173+928028365+927327122
877+925897132+925105414+924999317+924636934+924226780+925125198+927350706
867+929488514+930418659+930328666+930526445+931731152+933073200+933938807
857+935009912+936595097+937984313+938706727+939090885+939470458+939385774
847+938433251+937796668+939406885+942897899+945936598+948960580+955072962
837+964248953+972535876+976593748+975823020+971391305+965506076+960515586
827+957576289+956787527+959209728+966271556+976666490+985758279+989506183
817+989379276+989366972+989677181+987749276+983371725+979502102+978568579
807+980741431+985690242+992179362+996585081+996265643+993034594+989942273
797+986617612+981124563+974725677+970564904+967974600+962006677+950876965
787+939794963+933872880+932465328+931798466+930380358+929464206+928590880
777+924064347+914342488+904116562+899265706+900530368+903777280+905800546
767+907804993+911546926+915837560+919045689+921586413+924008312+925697423
757+927556266+931302481+935698669+938649366+940622268+942552947+944283617
747+945649008+947727283+951285068+955253369+958934804+963932713+972427969
737+982804446+987643420+980881004+967005189+955729027+950966535+950482795
727+952127512+955790309+960503342+964331648+966834251+968981106+971316271
717+973696612+977332568+984097517+992338116+995219087+986790299+970335761
707+954862517+945595688+943871050+947544764+950562895+950663262+950583524
697+950869847+948854664+944631645+942173555+942161431+939561838+932452058
687+927239241+931211161+942395521+949693670+945242774+931220450+915149104
677+904385635+903227915+910505496+918207587+916088659+901840207+886707873
667+885479582+896567314+910570216+926019636+942971063+954073995+952658481
657+943631231+934956954+927842831+921460471+918537942+921208588+925550914
647+924457431+917134672+909754010+907977680+911114997+912646863+907395201
637+898373801+893259904+896009746+904481720+913432971+917953050+915265697
627+905250819+890271991+875270364+865895327+866565929+876292009+889935665
617+902716248+909360744+905924980+896020241+888852737+888511767+892522169
607+894760283+887731871+873406213+861110758+854481763+850900877
##END=
