##TITLE=<SNM>
##JCAMP-DX=4.24
##DATA TYPE=INFRARED SPECTRUM
##DATE=29/4/2025
##SAMPLING PROCEDURE=Instrument type and / or accessory
##ORIGIN=Admin
##XUNITS=1/CM
##YUNITS=ABSORBANCE
##RESOLUTION=4
##FIRSTX=4497.3318
##LASTX=599.83466
##DELTAX=-1.4281778
##MAXY=2.1138859
##MINY=0.38541561
##XFACTOR=1
##YFACTOR=1.9687096e-09
##NPOINTS=2730
##FIRSTY=0.3952103
##XYDATA=(X++(Y..Y))
4497+200745853+200520115+200991073+201095752+200377651+199162797+198175633
4487+197907463+198119804+198361845+198735436+199413739+199939664+199891767
4477+199627730+199674143+200085927+200807661+201811447+202610718+202468345
4467+201325835+200015142+199504764+200174681+201505735+202308896+201709265
4457+200128798+198943220+198972012+199661836+199983776+199720556+199428499
4447+199485387+199757130+199964157+199892796+199494924+199073059+199076979
4437+199512848+199760687+199157256+197740930+196415432+196205816+197169455
4427+198304805+198589203+197907917+197016637+196791127+197370443+197952862
4417+197793958+197187954+196869617+197002392+197449690+198271047+199281827
4407+199887846+199912037+199793279+199722827+199534374+199393258+199574702
4397+199745383+199473307+199195449+199660579+200616408+201009602+200372398
4387+199152442+197850938+196669614+195898136+195879547+196420654+196809322
4377+196696620+196451460+196459302+196649420+196896532+197268897+197723128
4367+198058192+198185094+198103409+197733452+197045082+196253531+195770674
4357+195956417+196782558+197766574+198465525+198876068+199164734+199363981
4347+199526896+199755555+199858070+199433964+198499419+197581542+197114520
4337+197098504+197307696+197573413+197940979+198579424+199336460+199632181
4327+199180190+198385536+197696485+197211812+197080913+197426650+197793973
4317+197521535+196787872+196515282+197074752+197783892+197885725+197462315
4307+197091389+197098095+197494256+198167594+198856222+199395468+200011524
4297+200890981+201697185+202046298+202200690+202720514+203489085+203603937
4287+202494367+200840359+199840767+199749879+199811551+199601935+199675945
4277+200663820+202303810+203652787+204082268+203848355+203511293+203014282
4267+201942466+200673100+200261482+200862748+201394425+201354870+201728112
4257+203156412+204485604+204347092+203207140+202519950+202746309+203262727
4247+203493066+203409308+203318071+203543385+204107669+204614292+204603272
4237+204002732+203194015+202787288+203163315+203990153+204458417+204225322
4227+203783958+203732368+204158366+204818958+205436271+205843392+206141838
4217+206459236+206493357+205844845+204800823+204121399+204056079+204119462
4207+203931917+203898447+204670954+206133618+207480869+208235907+208553215
4197+208612223+208396733+207983511+207522680+207081862+206775015+206746298
4187+206867038+206809514+206508268+206188992+206028272+206156885+206796722
4177+207895408+208797860+208908806+208579116+208674409+209382353+210074493
4167+210264444+210151227+210100818+209971781+209354454+208402592+207864784
4157+208076761+208437999+208274675+207837626+207941518+208806640+209743092
4147+210061958+209911638+209879424+210077884+210117908+209873248+209804083
4137+210414462+211606458+212705234+213156241+213098595+213105407+213471686
4127+213962491+214233082+214278693+214371489+214632044+214824781+214678261
4117+214295693+214068880+214204562+214494213+214554931+214224650+213735996
4107+213492759+213659322+214059116+214521734+215077889+215677323+216062661
4097+216131145+216157061+216398300+216722087+216853016+216762263+216595533
4087+216399421+216141560+215898398+215836696+216042709+216411652+216686558
4077+216737649+216821862+217279286+217944798+218302131+218254204+218131238
4067+218004275+217719333+217459625+217603769+218200570+219016614+219752941
4057+220012846+219625237+219082585+219055155+219505768+219824801+219777525
4047+219795827+220227124+220651987+220302663+219149934+218093408+217904425
4037+218406023+218881129+218945117+218801624+218841074+219143607+219434650
4027+219588755+219933810+220754093+221762268+222444326+222645510+222580341
4017+222544464+222692952+222844968+222624302+222068480+221757258+221968720
4007+222144351+221741771+221251073+221631748+222968525+224288846+224673593
3997+224174190+223543163+223361749+223662980+224262112+225048697+225801949
3987+226084712+225651962+224770083+223925518+223444266+223502305+224155268
3977+225120451+225807368+225842322+225410919+224916664+224522168+224193431
3967+223988265+224108522+224725774+225776502+226872523+227540321+227649996
3957+227443862+227161810+226977672+227307832+228670690+230889391+232774677
3947+233297635+232934958+232903593+233337069+233233510+232111028+230597546
3937+229440518+229168367+230362225+232980630+235428323+235686562+233827283
3927+231958209+231617453+232255353+232432574+232084627+232468829+233939894
3917+234961679+233931614+231406323+229423957+229143571+229966261+230974815
3907+232789649+237026623+243692610+250011377+253061441+252416275+248984521
3897+244038771+239787521+238460434+240410420+243231219+243899501+242916636
3887+243138741+245037682+246271065+246105834+246366995+246869258+245325924
3878+242500296+241783890+244334931+248477459+252778376+256502051+257830138
3868+256275496+254356845+253648008+252640227+249715686+245990513+243591064
3858+243951379+248648412+258984804+269970479+270049651+259613303+248075197
3848+240967271+239633038+242830259+248036731+253389118+258687554+263766867
3838+266602668+265300740+261237792+257099790+253928410+251502137+249932084
3828+249558721+250142018+251926364+256331385+262895221+266761950+265147543
3818+261865989+259612940+256652674+252001433+248041469+247378879+250785807
3808+256347310+260236232+261627928+263722422+267578675+269656971+268049437
3798+265200344+262284009+258306228+253748964+250683413+249974713+250938201
3788+252918387+255486836+257640671+258876839+260398693+263100704+265386057
3778+265207913+263271249+261938076+263007091+267137796+273110160+277882868
3768+279745993+280031041+280503649+282080030+285771703+291854181+297929816
3758+300911124+301818859+304913065+313176081+325664717+336532558+340810738
3748+341872548+345206268+350628517+352033505+347675245+343615930+344987524
3738+353086534+365212495+375653929+380416434+380337777+378630513+377847485
3728+378921738+381319355+384149403+387439950+391502928+395587402+398562261
3718+400559720+403267998+409077175+419434774+432139975+441071908+443062404
3708+441684422+441677519+445312031+452063609+458620148+461481684+461103506
3698+460591146+461951931+465507301+470782924+477177002+483901876+488828447
3688+488842041+483792005+477237796+473010359+473273548+478118343+486276483
3678+495848784+502711111+501949670+496448309+494126352+497083106+499441031
3668+496133530+490639738+488191682+489596367+492503892+495561132+500023359
3658+506904155+514281931+519911328+525643422+534961223+546780911+552902838
3648+547408775+536402724+527730770+523449441+522248151+522396018+523394884
3638+525962470+530446224+535921759+541551217+548290412+557346870+565740648
3628+567041426+561489777+555589591+554258355+559301125+568444173+575057843
3618+574776822+571531053+570935888+573689550+577201081+579629398+580572071
3608+579455613+576256349+573235713+573256119+576567404+580299224+581959741
3598+582226291+582242095+581024576+578103185+576399191+579885654+589470731
3588+601387969+609948930+612555572+609959042+604135757+597961997+594082795
3578+593229738+594444290+596115707+596936731+597484666+600282955+606579515
3568+613032964+614533503+611111892+606502553+602689049+599890821+598620379
3558+599750522+603404713+608447544+612954489+615866131+618136589+620888132
3548+623051836+622400721+618804901+614878528+613284194+614920733+618829485
3538+622664970+624164237+623040997+620676382+618271256+616242704+614520363
3528+613212016+613006140+614374433+616233016+616498294+614212154+610884519
3518+609960920+614138099+622087485+628220433+627887337+622721888+618035830
3508+616487455+617413114+620204258+624945055+630267575+633532841+634292163
3498+635053544+637377529+639614804+639452646+637082944+634993597+635454277
3488+638064128+639995676+639168052+635936997+631715736+628120825+627322750
3478+630408419+635166655+637830095+637069198+634361798+631449550+629367591
3468+628910181+630554167+633784737+637148703+639610384+641442324+643105081
3458+644040549+643955292+643933372+644161411+642865901+639427093+635575078
3448+632676212+630552048+629175399+629341493+631585005+635745471+640301645
3438+641252372+635202441+624995313+617455984+615614053+616935964+618340165
3428+620064564+623456990+627411701+629057141+627924273+626939880+628105505
3418+630069388+630891381+630459767+629229835+627041062+624287884+622831851
3408+624263542+627748915+630805095+632123796+632254165+631879045+631230957
3398+630725348+630845120+632153224+635252457+638960419+639732578+635546740
3388+629388057+626261213+628090791+632791079+636831229+638209150+636957177
3378+633813318+630000904+627376520+627432833+629896209+632506969+633054601
3368+632355226+633317215+636442243+638909010+638837801+638210725+639734394
3358+642596808+643879602+643334392+643838608+646738625+649441363+649069695
3348+646548128+644863269+645026214+645768582+645726922+644628812+643244835
3338+642478974+642393353+642392082+641865340+640580790+639044889+638321232
3328+638718695+639037501+638338308+637620827+638529349+641136233+644059926
3318+646174583+646851554+645765070+644112485+644162501+646284545+648398658
3308+648833482+647937615+646880619+646285151+645652685+643979573+641673572
3298+640744523+642747643+647063426+651351354+653592020+653470069+652118245
3288+650853617+650219880+650346979+651261132+652344225+652560638+651889117
3278+651525441+652527092+654935003+657525962+658623346+657934567+656860798
3268+656397152+656137626+656140109+657441068+659857819+661445916+660682719
3258+657995482+654883170+652776809+652473625+653474489+654489885+655049204
3248+655612519+656060241+655444730+653677217+652545197+654157334+658530944
3238+662797013+663416944+660300454+657045664+656196422+656543203+655740708
3228+653535768+650743594+647078745+642970232+641159062+643455496+647962744
3218+651526652+653270610+653665349+652468296+649993718+648244795+648579224
3208+649969679+651024192+651622203+651751906+651099882+649990751+648970692
3198+647755293+645750537+643578537+642578158+642936868+643746811+644205311
3188+643895890+642857000+641809450+641229060+640226258+637549497+633587580
3178+630390980+629478582+630167846+630768461+630848935+631190690+632186891
3168+633431780+634505064+635517977+636675247+637319339+635940933+631880014
3158+626733942+623140908+622452250+623888665+625364741+625208335+623652996
3148+622194904+621559290+621083533+620082306+618784798+617453078+615866071
3138+614039338+612436769+611482833+611467090+612572466+614370618+615617808
3128+615125762+612838653+609961283+608010722+607519221+607728428+607691189
3118+607116126+606120712+604829320+603450490+602368305+601986586+602656412
3108+604204726+605395784+604873644+602885298+600865102+599352877+597771985
3098+596038261+595003124+595266162+596360882+597035128+596124366+593479152
3088+590332689+588592485+589348113+591917092+594504418+595941862+596428397
3078+596389886+595603558+593978887+592120486+590662394+589865409+589807037
3068+590183670+590098110+588861396+586952616+585533459+585365548+586651249
3058+589049592+591219291+591265553+588642198+585034874+582576039+581820048
3048+581786199+581472237+580948402+580964448+581573783+581633184+580314543
3038+578224773+576196221+574125464+571927971+570503607+570700098+572119740
3028+573561422+574210660+574170636+573911836+573366868+572004025+569811498
3018+567486120+565681307+564658765+564377744+564325548+563640765+562026510
3008+560157936+558955434+558750768+559260010+560152789+561197190+561826688
2998+561285172+559489079+557373150+556011457+555689804+556026958+556378281
2988+556015756+554723758+553320768+552926030+553651140+554437589+554245216
2978+553055066+551590495+550392111+549340625+547925828+545970968+544173663
2968+543533750+544046686+544474183+543798968+542452897+541571381+541496175
2958+541684674+541792093+541958490+541969389+541186512+539786672+538916600
2948+538949843+538852778+537911195+536777177+536213801+536094029+536053641
2938+536010407+535759116+534967217+533763383+532622039+531612819+530352974
2928+528823733+527756686+527874884+528930487+529853844+529769737+528583766
2918+526878864+525503910+524901842+524694512+524216938+523246047+521866431
2908+520092197+518220293+517052002+517039226+517584618+517636511+516804466
2898+515702783+515258816+515748439+516450418+516278027+514962353+513472774
2888+512965288+513403079+513587641+512698072+511246883+510089916+509228019
2878+508234482+507208580+506563065+506343352+506318223+506354706+506344261
2868+506131269+505684728+504986503+503938409+502759341+502052336+502067383
2858+502290517+502051034+501150141+499789477+498354123+497291314+496836993
2848+496863333+497106964+497347567+497253742+496393994+494765509+493071961
2838+491971852+491322553+490785063+490676675+491256491+491743147+491188915
2828+489757829+488225985+486956815+486004968+485523156+485511409+485534933
2818+485053333+484024827+483057812+482761773+482985361+482939705+482046745
2808+480447446+478750143+477452786+476616472+476008409+475419057+474868215
2798+474637210+474976513+475611249+475792148+475119476+474082251+473433981
2788+473191319+472638661+471423049+470204531+469765590+469898835+469750936
2778+468894822+467555049+466163715+465076565+464403983+463961379+463542601
2768+463142534+462831388+462592571+462348879+462088566+461922714+461851990
2758+461482955+460337584+458524718+456753118+455626155+455219912+455288638
2748+455532905+455615770+455239258+454379329+453292754+452225979+451266987
2738+450498461+450047954+449883767+449712254+449187813+448211563+446962921
2728+445676645+444513744+443622601+443116325+442906634+442691765+442208106
2718+441499224+440862913+440476440+440202594+439906252+439707127+439624686
2708+439341030+438692367+437998713+437548176+437166184+436601355+435937705
2698+435343690+434749705+434014362+433098271+431943332+430600077+429572873
2688+429490916+430242003+430881614+430678916+429902125+429267298+428954335
2678+428560172+427906180+427424761+427494880+427733062+427353280+426117413
2668+424594531+423515858+423111431+423098170+423142797+423113641+422885966
2658+422275844+421331111+420348988+419506347+418807274+418378051+418408751
2648+418779632+419061260+418943092+418494342+417981436+417558208+417176215
2638+416714658+416122429+415463533+414874876+414436056+414075681+413700228
2628+413370765+413180874+413015173+412694702+412349919+412320551+412666182
2618+413111421+413422900+413433679+412870757+411701286+410476804+409805343
2608+409656112+409578273+409390410+409319595+409607186+410156605+410543048
2598+410396270+409777035+409044961+408403897+407764680+407076688+406622881
2588+406783374+407488866+408118939+408104256+407497827+406803205+406397689
2578+406303379+406375981+406470926+406452155+406227840+405806641+405274146
2568+404749524+404363838+404201892+404221904+404247185+404086389+403756986
2558+403533610+403603941+403784386+403779541+403561191+403275113+403009108
2548+402845497+402867205+402996090+403078410+403126337+403238570+403368091
2538+403373601+403210353+402937021+402616247+402314335+402136372+402159685
2528+402337284+402523027+402603894+402585093+402553757+402556482+402507072
2518+402278639+401913692+401644357+401622770+401734277+401749990+401607027
2508+401480231+401544840+401790681+402154205+402608890+402977591+402956731
2498+402539921+402139551+402141762+402554514+403118465+403569638+403789442
2488+403830647+403762890+403519895+403051071+402516699+402153418+402078666
2478+402307795+402737169+403079651+403098332+402922186+402883554+403079167
2468+403299576+403342114+403224461+403103176+403100663+403248107+403517018
2458+403834190+404111911+404282971+404237254+403835098+403198242+402820701
2448+403067329+403682810+404054599+403836854+403179350+402548792+402405829
2438+402836565+403453832+403814298+403900312+404042882+404409191+404709469
2428+404483156+403676300+402805290+402440586+402636713+402960273+403026033
2418+402946467+403199847+404007671+404913529+405214533+404836083+404431081
2408+404529387+404962939+405253801+405244930+405153890+405240722+405622562
2398+406274284+407030215+407633101+407903950+407858384+407647451+407448659
2388+407361373+407295402+407040175+406479282+405536669+403938339+401409385
2378+398168582+394888723+392123586+389959458+388138084+386383075+384678143
2368+383194892+381957300+380871906+380075647+379865077+380341379+381450086
2358+383236915+385807165+389232228+393596755+398649577+403270057+405893866
2348+405567733+402611948+398639616+395519463+393965366+393683466+394277814
2338+395278920+395973905+395805601+394987816+394484781+395014883+396214630
2328+397202717+397660188+397849957+398086837+398605949+399481924+400464259
2318+401208534+401683413+402164075+402915283+403956626+405088797+406177461
2308+407323317+408571505+409634344+410236503+410577865+411082475+411833380
2298+412565272+413067309+413373611+413667742+414101688+414636604+415097466
2288+415440402+415819821+416297757+416653349+416632277+416289613+415902383
2278+415575463+415184630+414716412+414335389+414061724+413731382+413352509
2268+413147873+413179269+413234584+413135551+412953501+412889649+413061344
2258+413446606+413987881+414681776+415514578+416327216+416853322+417006216
2248+417054960+417325264+417773561+418064665+417993667+417589907+416912057
2238+416000992+414988260+414114434+413615092+413526656+413593415+413523084
2228+413330861+413243636+413346605+413532136+413689935+413750577+413653361
2218+413463773+413424747+413695142+414125243+414486193+414821621+415350028
2208+416124700+416997103+417796268+418390132+418729192+418985085+419486335
2198+420368123+421426178+422409815+423282823+424087014+424737797+425125753
2188+425292665+425395422+425607202+426052804+426683272+427266842+427655434
2178+427961222+428364165+428887909+429408656+429749776+429792617+429605602
2168+429441930+429574841+430127742+430980768+431820351+432389782+432733354
2158+433134208+433824441+434799388+435877335+436875383+437730044+438524335
2148+439417689+440464693+441509487+442366692+443062404+443775222+444646414
2138+445771015+447183148+448724499+450141295+451409011+452782936+454504520
2128+456624597+459067173+461637757+463994047+465888991+467462828+469040540
2118+470701905+472316100+473801320+475030313+475792118+476201298+476776269
2108+477821578+479091172+480254587+481392904+482874824+484891992+487196904
2098+489279620+490729658+491349801+491122519+490261985+489042559+487417434
2088+485092026+482045170+478666369+475344941+472162964+468990131+465761529
2078+462679311+460134251+458359290+457193331+456238941+455232052+454248052
2068+453541653+453190148+452970496+452637975+452219681+451894336+451680496
2058+451470441+451335501+451533960+452152772+452933468+453542409+453911171
2048+454272031+454930564+456015565+457420068+458984550+460689785+462656423
2038+465063183+468076946+471700922+475671952+479670382+483622610+487596335
2028+491473479+494984102+497978882+500449948+502405021+503922393+505186234
2018+506264756+506950810+506982872+506372115+505410579+504397484+503422809
2008+502379952+501082232+499359104+497241480+495197729+493912392+493520681
1998+493360339+492911982+492599443+493077804+494163622+495107961+495573727
1988+495722442+495761347+495961714+496692849+498010369+499509273+500833091
1978+502105379+503679761+505606889+507533532+509163895+510675514+512468035
1968+514566828+516547302+518089319+519364120+520776616+522574284+524796057
1958+527330037+529870132+532040740+533721602+535146754+536725163+538869491
1948+541832844+545578651+549776600+553747236+556614736+558132956+559086105
1938+560291271+561811914+563458685+565336282+567603833+570179230+572770068
1928+575073526+577180130+579583075+582417817+585238086+587929017+590746380
1918+593004303+593335644+592002834+591080990+591937922+593901926+595430500
1908+595965780+596135628+596529943+597081390+597518878+597916099+598657740
1898+599975472+601558665+602778182+603527997+604496768+606092858+607461636
1888+607336717+605687887+603584916+601916345+600968404+600718627+601036283
1878+601676257+602190282+602138268+601870265+602773095+605787071+609332814
1868+609764973+605711865+600049346+596059272+594389490+593644459+592434206
1858+590523064+588378131+586317607+584372496+582668986+581516016+581220219
1848+582180574+584606953+587158674+586798632+582588937+577529999+574427981
1838+573422213+573150940+572723625+572655140+573835965+575640656+575997610
1828+574344117+572334639+570589894+567939533+564181131+560832606+558936057
1818+558075977+557447205+557033635+557511632+559130490+560938693+561624808
1808+561175088+560853194+561763048+564085520+567087990+569391388+569981952
1798+569440859+569565717+571758426+575714772+578853242+578421446+575447859
1788+573439349+574182928+576874464+579944268+582752427+585122371+586647979
1778+587624440+589595710+594197783+601466141+608492655+611268055+609491097
1768+605932093+602953238+602170966+604252381+607622159+609398513+609270385
1758+609411773+610661809+612557147+615912696+622260846+630783114+637539627
1748+639636603+638395893+636884394+637183399+639625885+642823212+644826393
1738+645844332+648747255+655401677+662526164+664046685+660324493+655724661
1728+652583466+651670706+652914565+655422083+658861194+664737280+674894150
1718+687836775+696590898+695872448+689257325+682836089+680032592+681926961
1708+687993605+695905510+702144060+705872004+710409044+718201237+726002574
1698+729120336+727875326+723680890+718256945+715129374+716255157+720519955
1688+726388048+734646674+745674282+753869509+753417367+748465849+745007362
1678+745454599+750207204+757454793+763706967+767918601+771460710+773607218
1668+772459818+770198323+770917014+775333253+779898449+780876727+779292081
1658+779126653+783694453+794648732+808718290+814340482+810214106+808126273
1648+811816554+815480676+811814011+803434160+797464521+796913195+801827231
1638+810703730+818969742+819129539+810516018+801221590+796229926+795338662
1628+796074974+796597053+797317622+798233410+797268151+794385150+793071171
1618+795138719+796901206+793268631+786056163+780196001+777380515+776409928
1608+775547788+774370597+773399222+772552947+771153954+769238271+767737369
1598+767313747+767680086+767968677+767442601+765979181+764153841+762742859
1588+761978874+761542597+761235235+761078163+761015674+761481682+763869428
1578+769089010+774819772+776191153+773576155+772358394+774347345+775799503
1568+773041117+768411131+765916631+767066816+773033912+785879411+802827127
1558+808855622+798481371+784858262+775097221+769864257+768139434+768347733
1548+770009643+774315555+782111503+792529776+803884909+812739911+812427524
1538+803815698+796860152+796210853+799301608+801003482+800421154+801279660
1528+805692750+812349169+819295694+826406072+833712396+839363653+842154495
1518+843185211+842937916+841300590+839964692+841788821+848920816+862556459
1508+881261574+894465178+890090297+877764273+870801702+872006202+879113008
1498+887024671+889549810+886058079+883315861+887154070+897132917+906558985
1488+908930867+906098064+903683008+903950527+906389621+910312422+915748719
1478+922977234+931721244+940501707+946517426+947242234+943773634+940620571
1468+941502147+947083830+954057542+957144482+956156213+956655525+962755775
1458+972609885+977701581+973118824+964928078+958528701+954736875+952742655
1448+951906009+952605929+955315388+958898129+961376340+962345535+963114424
1438+964989659+968030035+970804648+972070609+972240699+972669771+974424991
1428+978085662+983865592+990632822+996080382+999822374+1004047571+1008985707
1418+1011277357+1009752053+1007115982+1004592781+1001395454+997838388+996026188
1408+997442136+999983442+998966411+993362627+988351828+988705270+993601081
1398+998948548+1002591416+1004827723+1005223369+1003018126+999446830+996916423
1388+995984528+994505425+990954777+987047296+985914369+989098798+995751221
1378+1003968793+1012328298+1019933870+1025291874+1027279311+1027340953
1370+1027578680+1027780803+1026999440+1026671490+1029040768+1033506599
1361+1037537182+1040455303+1042925703+1044250581+1043468976+1041741912
1352+1041621898+1044509865+1048806997+1050464305+1047367434+1042750829
1344+1041529253+1044905027+1050522193+1056153892+1061393576+1065964767
1335+1068428991+1067659618+1064867202+1062787968+1062746792+1063479835
1327+1063457794+1063480319+1065670848+1070178459+1073741823+1072691851
1318+1067761466+1063363817+1061774933+1061426153+1060972861+1061370203
1310+1063227817+1064801806+1064046359+1061479197+1059371988+1058924508
1301+1059430844+1060014323+1060770981+1061604782+1061040195+1057592970
1293+1051696417+1045115869+1039546055+1035888109+1033454888+1030059011
1284+1024169240+1016287308+1007923928+1000756812+996250291+994945456+996061550
1274+997385277+995857732+990054914+981877186+973812326+965836055+957062313
1264+948480219+941450375+935437320+929247332+923028279+917750992+913637755
1254+909810809+904940491+898280378+890344918+882381483+874930743+867150417
1244+858203315+848716453+840017675+832673082+826420907+820905166+816030791
1234+812020130+809165103+807265345+805751364+804463302+803452144+802103046
1224+799722989+797078926+796080303+797754565+801182898+804469902+806540054
1214+807728023+808960256+811066436+814458982+818598377+822098585+824089232
1204+825181711+826899934+830663725+836961071+844617205+851087790+854590239
1194+856033253+857840064+860908112+863713183+864853377+865381815+867454630
1184+871628964+876540881+880719150+884026378+887470636+892266838+899015661
1174+907416523+916747827+926505417+936076023+943575387+946797479+946523118
1164+946221509+947857260+950411283+952191087+952938783+953762896+956344167
1154+961593540+967791400+971510019+971553737+970005725+968462982+966472335
1144+964084891+962677845+962758621+963466110+965083272+969944144+978855581
1134+987614487+990208110+986512864+982393270+981584598+982575592+983111356
1124+983670614+985070940+986303597+986822588+987911918+990526250+993910804
1114+996479783+997399931+997381523+997480404+997904753+998167791+997615314
1104+995758548+993146032+992164303+994396007+998094765+1000008995+999456761
1094+998721539+1000254473+1004575402+1009448929+1010270257+1003904123+992547718
1084+981208692+973341898+968923661+965384337+960971853+956083914+951560075
1074+948244248+947293763+948650007+949726803+948218937+945660313+945368816
1064+947771640+949796438+948300925+943984294+941041891+942646882+947984359
1054+953151563+954417584+951246900+946537530+943392459+941712384+939540929
1044+937412768+938222651+942521358+947171569+949568823+950875111+952694698
1034+954239743+954845687+955015717+954196993+951152015+946778224+943998766
1024+943770061+943673299+942107485+941369962+944463563+950813287+956895190
1014+960043954+959708435+955907708+949068239+940562743+931826665+923447420
1004+915064360+906388774+898179316+891558380+886772774+883087399+879617769
994+875559212+870337571+864117550+857719081+852081933+847696637+844579783
984+842370907+840197212+837294713+833946067+831014321+828798421+826853430
974+824926424+823453375+822323899+820146449+815639625+809262168+803170093
964+799314808+797892381+797828681+798093656+798346037+798999393+801130157
954+805736226+812300425+818462862+821960950+823076924+824535258+828558029
944+834628609+840220464+843545798+845456031+848501191+854804593+864394514
934+874859897+883649927+890687885+897398075+904014470+909334265+912619331
924+914009000+913093756+909136320+903081848+897640283+894803785+894102048
914+893737949+892590489+890856825+889378387+888524544+887722775+886390207
904+885244805+885933887+889125038+893496770+897382513+900628039+903585398
894+905490061+905736750+905609591+906634070+908565860+910763231+913763825
884+917720897+921442181+924079583+925702013+926538054+926964825+926999582
874+926503237+925996356+926277681+927606373+929689665+932234301+934712816
864+935958370+935025869+932424919+930280349+931383122+936464827+942196739
854+944057199+941474899+937851528+936318109+937748953+940385568+941098931
844+939015337+936688385+937018938+940468827+945462066+949857837+951862169
834+951647936+952243646+956655828+963966028+970330950+973866763+975720804
824+976824485+977051313+976414245+975395579+975766581+980021146+987286598
814+993259083+996544331+998832167+999958797+998435673+994692712+992025033
804+992061546+992521862+990956472+987436403+984132263+982841537+983410180
794+982890523+977367818+967520308+959088504+956231540+957116810+956712565
784+951747544+942227318+930929527+921365279+915431305+913606511+915122309
774+916930391+915726981+912120323+910021772+911667273+916111123+921644364
764+927376336+932993018+938250081+942661415+945053461+944552756+942912463
754+943410504+946507920+949280716+950246157+951702796+955343727+958497214
744+957821212+955243332+955271791+959490024+965879349+971709235+976273765
734+980203468+982840628+981901285+976049904+965903267+953762169+943566728
724+939598029+942611157+948401501+951514237+950529965+948319211+947133664
714+946949101+948339799+952675927+959141972+964966891+967659215+967031957
704+965860457+966205846+967522549+968293921+967600661+965560059+961692361
694+953494045+940321747+925603979+915188492+913590888+920567083+930073382
684+934310932+931554363+926634514+923958963+924955044+928977936+932694315
674+932100724+927381665+920161930+909477834+897183297+891757172+894846353
664+899975470+905251789+912397045+919807035+922443165+918772564+913308292
654+909631393+905049424+897180390+890288847+888959428+893411574+901551881
644+909999913+914262349+913177318+911134718+910680336+908983124+904104692
634+895796293+884653334+874834707+869231831+865733258+862505050+860863849
624+860779560+860135711+857907640+852550484+844192069+838225700+839112907
614+844067877+848983730+855842999+865639524+872183801+872031695+867971926
604+860534264+851252673+844910397+842882027
##END=
