##TITLE=<SNM>
##JCAMP-DX=4.24
##DATA TYPE=INFRARED SPECTRUM
##DATE=29/4/2025
##SAMPLING PROCEDURE=Instrument type and / or accessory
##ORIGIN=Admin
##XUNITS=1/CM
##YUNITS=ABSORBANCE
##RESOLUTION=4
##FIRSTX=4497.3318
##LASTX=599.83466
##DELTAX=-1.4281778
##MAXY=2.1326966
##MINY=0.53123719
##XFACTOR=1
##YFACTOR=1.9862285e-09
##NPOINTS=2730
##FIRSTY=0.54474962
##XYDATA=(X++(Y..Y))
4497+274263315+275512588+276407425+276199223+274918561+273139090+271584115
4487+270904023+271237812+272057087+272766228+273207150+273426335+273333488
4477+272873960+272529068+273166638+274952171+276833522+277610544+277091449
4467+275719230+273892434+272221056+271502881+271983985+273275060+274955922
4457+276669793+277876994+278114064+277385837+276081108+274777218+274209179
4447+274915680+276606985+278239622+279042091+279011242+278191848+276512276
4437+274754202+274315501+275477928+277026420+277811844+277704772+277006044
4427+275912007+274575528+273212461+272256526+272235730+273131287+274286782
4417+275125442+275444348+275194103+274613880+274329035+274687552+275203346
4407+275204486+274820581+274700306+274990732+275324252+275523061+275513098
4397+274947729+273870498+273204299+273624604+274610549+275295953+275550069
4387+275851629+276621119+277655287+278064129+277235642+275722080+274465696
4377+273612091+272782763+272027198+271654547+271401661+270715596+269869014
4367+269863852+271025079+272528257+273436118+273391795+272464578+271284806
4357+270884457+271579284+272640791+273437619+274032246+274523643+274684641
4347+274337887+273617312+272877562+272321075+271648545+270528220+269376627
4337+269025432+269553379+269992050+269465843+268257113+267460255+267793474
4327+268999654+270193530+270469793+269666423+268783830+268926882+269837054
4317+270317978+269953819+269463803+269591251+270464211+271846484+273439869
4307+274854792+275475917+274792193+273183143+271884265+271744213+272378423
4297+272804370+272607841+272158877+271920156+271911423+271831629+271518126
4287+271098060+270671333+270141945+269499513+269052800+269288160+270497101
4277+272386975+274040769+274517881+273562186+271752256+270167453+269775926
4267+270800942+272677102+274566676+275715479+275716019+274934315+274231296
4257+273931206+273671629+273305039+273205049+273593605+274177550+274574898
4247+274769566+274913969+274788412+274040108+273128887+273153014+274348811
4237+275573446+275706986+274990492+274531505+274912829+275698854+276197452
4227+276226591+275773516+274467196+272237260+270149867+269657781+271048996
4217+273167208+274726503+275442517+275693992+275628423+275106867+274271658
4207+273639249+273582082+273865486+273839739+273214292+272423916+272020836
4197+272076562+272406571+272964708+273714721+274411349+274715910+274438477
4187+273747521+273164627+273144881+273591205+273947861+273858344+273525035
4177+273303269+273304529+273548952+274112010+274945779+275839626+276543096
4167+276703073+276045847+274915080+274057034+273697616+273541420+273590034
4157+274031496+274422903+274006018+272894667+272127608+272470700+273742630
4147+275245058+276317398+276566262+276083418+275340997+274662554+274198526
4137+274325704+275246048+276263472+276411356+275771205+275312278+275536925
4127+275916058+275537976+274096495+272337100+271436681+271940022+273487734
4117+275412388+277174334+278261228+278245113+277239003+275976376+275212648
4107+275224982+275856791+276786588+277687487+278280434+278400050+277976893
4097+276946116+275345798+273578391+272311142+271783225+271507773+271097910
4087+271044554+272013364+273633637+274817971+275148609+275127723+275202445
4077+275324672+275295863+275006757+274508428+274059914+273907379+274022733
4067+274231896+274446310+274646469+274873817+275226032+275597813+275589651
4057+274997424+274172058+273643840+273629316+273960285+274199966+273959775
4047+273423695+273284243+273870408+274629634+274764795+274137458+273370729
4037+273242560+273977450+274994123+275562553+275776457+276307405+277158849
4027+277538283+277145195+276640895+276539374+276552338+276365232+276271394
4017+276633573+277158579+277124759+276242826+275036946+274310369+274340918
4007+274690583+274795194+274665495+274865775+275721660+276715557+276991819
3997+276454359+275929082+276093261+276597502+276565842+275751969+274860373
3987+274817971+275926351+277527989+278386396+277759929+276217018+275100805
3977+275201515+276140435+276925590+276933092+276358630+275804575+275678477
3967+276037265+276610856+276880186+276590480+276181037+276170444+276346267
3957+276230792+275987750+276149828+276865872+278006482+279407871+280476429
3947+280323804+278979373+277701411+277509414+278112444+278662538+278867559
3937+278833499+278577883+278284785+278483024+279385844+280360145+280654293
3927+280376920+280197466+280363656+280512290+280407859+280304658+280417762
3917+280439518+279869858+278791246+277936681+277838462+278203671+278529058
3907+279259386+281587991+285729827+289871213+291772761+290977854+288472226
3897+285406901+282777486+281357222+281425493+282383799+282994571+282968763
3887+283357559+284799130+286377211+287121583+287497925+287592453+286399387
3878+284251556+283115507+284047585+286501448+289786168+293082292+294464804
3868+293116172+291031990+290105103+289837933+288777477+286802798+284952355
3858+284465790+286750672+292719573+299494605+300664895+295757230+289641555
3848+285863157+285499299+287655712+290453687+292808280+295098263+297490067
3838+298639710+297513084+295124971+292862086+291101310+289842315+289386599
3828+289804413+290574263+291512223+293364316+296183267+297910733+297390317
3818+296336823+295714257+294247569+291360858+288558772+287496154+288839776
3808+291773601+294107038+295002475+296183627+298435799+299646991+298675571
3798+297332940+296655698+295781957+294424412+293746990+294524792+296155749
3788+297654216+298685564+299551262+301065064+304299850+309305554+314150500
3778+316952856+318625945+321458281+326370537+332694564+339123473+344534418
3768+348848415+352535586+355282516+356885084+358669897+361972022+365884230
3758+368455817+369966168+372724711+378610128+387675563+397317921+404073898
3748+408326497+412929691+418497012+422700067+424656351+426940092+432024510
3738+440441392+450435154+458242945+460911971+459373742+457281878+457440985
3728+459925007+462345499+462127244+459444803+456456361+454312732+452669351
3718+451047127+449782940+449805717+451582577+454103389+455501146+455202347
3708+453818064+452233051+452025869+454695616+459512864+463377867+464288849
3698+463281899+462454612+463158412+465987596+471165942+477992049+483854028
3688+485738111+483589529+480029537+477568052+477170074+478346995+480517753
3678+483856789+487413091+488164455+485853045+483980996+483948887+482994872
3668+478607953+472292178+466792196+463478367+462154312+462012820+462843258
3658+464877925+467649342+470156050+472540472+475984630+480268618+482480398
3648+480491105+476258852+472411733+469911027+469061203+469966454+471972432
3638+473759376+474736347+475931154+478996989+484735121+492384464+498696758
3628+499299848+494712169+489604915+487062286+487677169+490369303+492937379
3618+493857034+494194425+495537835+497284147+498147834+499067969+501691352
3608+504680064+505097969+502932462+500764615+500352682+501574707+503754828
3598+506591214+509678596+512150193+513467047+514257002+515761231+518287805
3588+520082881+518965287+515781637+513697395+514319421+516337163+517889827
3578+519006040+520482780+521713088+521514368+520421682+520370367+522054409
3568+523677594+523386567+522115928+521989410+523573223+525792445+527376438
3558+527638236+526534086+524858386+523857888+523943833+524465689+525085074
3548+526148711+527535605+528398363+528436654+527996543+526845879+524725627
3538+522932712+523100102+524460888+524563938+522719468+520722912+520081501
3528+520454032+521074737+521734754+521991331+521210258+519733397+518633689
3518+518437970+519037609+520048551+520613019+520033726+518941460+518516053
3508+518780072+518926096+518652774+518325857+518473801+519218803+519959544
3498+520082581+519822943+519857754+520410399+521161283+521610997+521467674
3488+520950320+520419041+519843590+519164967+518625586+518102650+517003002
3478+515431613+514375418+514315820+514606307+514495694+513930865+512933067
3468+511310183+509698522+509458330+510874273+512756254+513939508+514190142
3458+513734126+512827256+511759597+510614575+509127451+507320492+506051353
3448+506149663+506982951+506709990+504623947+502378737+501719380+502158231
3438+502377597+502557891+503511155+504756827+505143582+504563209+503781656
3428+503069153+501889831+499803519+497112555+494758773+493873539+495013189
3418+497511705+499915572+501245989+501407527+500733766+499959835+499839169
3408+499966947+499077662+497091879+495362253+494525843+493920833+493200288
3398+492953554+493729166+495412188+497428730+498914803+498993577+497560949
3388+495664893+494657313+494804026+495199845+495285280+495661682+497241234
3378+500117532+503083918+504366110+503325100+501379469+500369668+500293775
3368+500175240+500381581+502083899+505096648+507893423+509553038+510665710
3358+512126666+513808368+514721061+514328424+513163596+511916484+510911184
3348+510453907+510434822+510068232+509094802+508272076+508182169+508881498
3338+510523948+512756314+514080129+513459784+511665969+509921368+508724191
3328+508432744+509242746+510274334+510207834+508885159+507158684+505705110
3318+504886826+505004161+505961807+507145660+507975768+508243928+508096644
3308+508091782+508604815+509279237+509806194+510397430+510854527+510277395
3298+508461132+506731416+506528616+507651251+508518390+508076478+506954383
3288+506591274+507825903+510390528+512970458+513952651+513048121+511853405
3278+512108181+513819412+515670484+516701292+516921317+516739223+516556228
3268+516742404+517431590+518148024+517984715+516466502+514119441+512299758
3258+512400708+514586561+517203882+518042092+516474244+513916101+512238120
3248+512168319+513073389+514030675+514787981+515366553+515426151+514748189
3238+513764015+513007489+512537729+512320344+512571339+513246781+513736767
3228+513543089+512777801+511718365+510453907+509064853+507678139+506335538
3218+505205761+504701310+504880584+505130919+504930579+504496349+504335321
3208+504575993+504881364+504677603+503497351+501577198+499988014+499654944
3198+500375789+501135076+501246109+500827364+500288223+499847002+499355425
3188+498580924+497647825+496837913+496120309+495225112+494237187+493588784
3178+493360626+493046642+492197869+491161539+490767132+491182966+491623407
3168+491347985+490323929+488694803+486457215+483976795+482016970+481040779
3158+480910840+481203517+481557653+481781100+481790583+481561134+481116401
3148+480441020+479398989+477856048+475903215+473930427+472448374+471704272
3138+471572833+472000101+473022266+473985643+473691975+472014475+470356030
3128+469962102+470627311+471238653+471021658+470128742+469174937+468365746
3118+467451613+466479563+465954646+466186916+466873550+467250973+466610852
3108+464949886+462997774+461440039+460388165+459643973+459090908+458770562
3098+458774763+459055977+459384695+459593138+459694568+459676683+459404381
3088+458824128+458138483+457667853+457532213+457587489+457687839+457742245
3078+457548507+457034184+456501105+456146879+455683961+454889384+454164607
3068+454067048+454437269+454415482+453471581+452032021+450801444+449977038
3058+449461034+449234406+449183001+449052912+448757474+448422724+448203868
3048+448224215+448520043+448983231+449427574+449603696+449288302+448618892
3038+447989664+447386244+446356217+444834733+443525472+443174067+443651780
3028+444019600+443550260+442421143+441246802+440376362+439878964+439685376
3018+439520177+439178675+438894010+438995080+439271493+439121088+438404534
3008+437745477+437714028+437982188+437697643+436608138+435334347+434564258
2998+434402959+434462647+434327877+433983494+433788376+433907902+433985205
2988+433596529+432830850+432146316+431794881+431642646+431491671+431309006
2978+431033704+430410658+429307769+428058736+427205041+427022617+427421736
2968+427989955+428082053+427390106+426447585+426030791+426155838+426187348
2958+425800412+425298182+425038965+424981258+424853569+424514558+423970526
2948+423198185+422226135+421310412+420698619+420320567+420034431+420008803
2938+420489097+421267769+421662837+421075292+419594770+418077457+417467045
2928+417909167+418584368+418539235+417684520+416755983+416287843+416033997
2918+415588904+415131898+415158156+415746211+416462135+416826744+416613380
2908+415888754+414978822+414255186+413853847+413662269+413516786+413340813
2898+413175644+413102932+413069142+412861000+412344846+411610707+410856072
2888+410269067+409960184+409897346+409993134+410204997+410357863+410077459
2878+409250563+408351014+407992377+408330128+409037139+409612531+409609440
2868+408846222+407607602+406518877+406074745+406276585+406716126+406956318
2858+406837242+406503873+406136563+405665573+404954420+404288462+404184601
2848+404497954+404416210+403707308+403105359+403033667+402931247+402315043
2838+401587416+401294138+401365319+401413454+401167590+400542084+399793030
2828+399455549+399696671+399996581+399767913+399011657+398185870+397667466
2818+397461994+397346610+397214811+397121423+396989473+396633207+396152854
2808+395882203+395844121+395669889+395180683+394679354+394462989+394338452
2798+393920127+393207895+392523180+392033644+391664924+391326993+390989453
2788+390670757+390440799+390312991+390210540+390130836+390105629+389957204
2778+389431988+388604491+387873202+387546405+387591118+387750406+387816756
2768+387752897+387513695+386977855+386293651+385957971+386178537+386442255
2758+386072065+385026373+383842399+382988044+382573951+382530678+382717484
2748+382859186+382716133+382400529+382187135+382020796+381650755+381138442
2738+380712885+380319198+379799653+379247758+378814729+378475178+378186191
2728+377996535+377933486+377934356+377846490+377509789+376949402+376373200
2718+375919645+375563259+375217915+374797490+374319987+373988148+373941905
2708+373993970+373841555+373443516+373070234+373082508+373586869+374190079
2698+374290759+373726320+372933754+372451990+372433324+372592912+372510327
2688+372004706+371256643+370607549+370326726+370494806+370948421+371299976
2678+371109359+370185834+368812444+367586278+366924640+366794702+366936644
2668+367166272+367400792+367569053+367606114+367481456+367200963+366776126
2658+366202085+365538196+364987622+364766036+364886882+365175988+365448410
2648+365584860+365525893+365302956+365028914+364794905+364641169+364597476
2638+364627665+364603688+364483532+364409110+364471078+364515851+364354583
2628+364025625+363693366+363393036+363018374+362551555+362181095+362074983
2618+362129359+362141993+362113754+362112464+362003652+361656628+361266151
2608+361146326+361305433+361435942+361250817+360748617+360203834+359896423
2598+359832654+359803815+359690651+359560262+359496613+359500545+359517860
2588+359478728+359381049+359335105+359400015+359442747+359318930+359103226
2578+358992433+359073997+359265995+359397164+359345308+359176178+359084440
2568+359126453+359097554+358778589+358273718+357960545+358018642+358172828
2558+358084902+357808700+357618803+357609560+357708530+357871388+358074489
2548+358272068+358426194+358470187+358320652+358029415+357789974+357724765
2538+357793875+357944910+358194585+358479010+358579660+358340158+357888013
2528+357538649+357518723+357829916+358303967+358710499+358845569+358643489
2518+358278460+358062575+358145490+358403567+358678479+358946849+359195443
2508+359325532+359242377+358949550+358571557+358273928+358092704+357941009
2498+357833907+357905358+358172708+358488973+358694144+358679950+358447830
2488+358192214+358144920+358311500+358495935+358541578+358452392+358329685
2478+358261955+358276479+358365906+358493054+358566006+358508749+358351111
2468+358154313+357960215+357928345+358280830+358920591+359346539+359193223
2458+358688412+358364826+358451822+358702726+358741768+358485252+358191374
2448+358115601+358240679+358421753+358634516+358922452+359243038+359522331
2438+359733324+359818459+359683479+359362563+359065535+358984781+359132275
2428+359394763+359663493+359884659+360067534+360280087+360580627+360932332
2418+361219368+361351887+361365091+361415686+361607623+361828099+361888087
2408+361790048+361676194+361577584+361445005+361381836+361619057+362212214
2398+362918655+363503589+364066677+364888293+366083669+367707964+370171099
2388+374270023+380818637+390395215+403287483+419483947+438809805+461170949
2378+486552614+514649339+544453154+574312126+602697358+628965938+653043624
2368+674420024+691707643+703157681+708089713+707923943+704409894+697282047
2358+684734042+665220298+638514788+606430652+574031902+548183568+533770506
2348+532591994+544114593+564665627+586900823+603954553+613483357+616481312
2338+615719924+614411234+614482355+616404429+619787158+623092525+623629385
2328+619704033+612659371+605011648+597424904+588966760+579353331+569195059
2318+558729795+548006635+537559077+527778678+518222326+508228743+497774523
2308+487274989+477060481+467411641+458601702+450631443+443268415+436433065
2298+430226703+424627152+419515306+414911332+410902736+407447685+404416240
2288+401716844+399299413+397130515+395234760+393715736+392661642+391991362
2278+391451380+390831305+390133717+389492876+388996468+388605211+388173502
2268+387558318+386791470+386126351+385805135+385767144+385716369+385477918
2258+385086331+384542478+383799787+382986694+382312903+381806802+381449335
2248+381430550+381929359+382726156+383322734+383446911+383267368+383080772
2238+382930127+382651614+382201180+381743813+381437362+381282455+381179705
2228+381035602+380822628+380574274+380301733+379952999+379515798+379097263
2218+378804766+378596444+378365795+378134216+378024653+378061864+378127644
2208+378115790+378031435+377937177+377897415+378024563+378483970+379292982
2198+380140735+380635432+380755648+380840634+381159809+381714584+382382434
2188+383025826+383518963+383841019+384116981+384487232+384952881+385379998
2178+385649749+385785359+385914068+386120319+386378426+386630352+386886358
2168+387205113+387590218+387986636+388366970+388691997+388816204+388634230
2158+388304431+388126208+388214764+388452645+388702110+388938220+389224506
2148+389632418+390155264+390685012+391121432+391514699+392040966+392811956
2138+393742684+394636711+395418144+396296326+397663684+399750777+402381002
2128+405134804+407752516+410324493+413135972+416364126+419849036+423204337
2118+426288688+429406918+432795050+436140808+438967772+441279752+443455131
2108+445684436+447774320+449352791+450158652+450295463+450207566+450263173
2098+450443557+450556150+450620880+450904074+451582847+452427689+452936071
2088+452838362+452234611+451157470+449399215+446871621+443732654+440122757
2078+436121212+431926230+427850564+424195803+421161838+418781347+417010639
2068+415875520+415313602+414969970+414491717+413954497+413717216+413973732
2058+414588076+415213402+415530567+415511721+415432918+415575250+415990004
2048+416548981+417136946+417804346+418709986+419826799+420847344+421610712
2038+422468007+423925783+426055998+428518893+431069445+433823667+437069585
2028+440952024+445328170+449864084+454260306+458443825+462594783+466867009
2018+470971363+474258575+476412918+477759149+478738792+479482174+479916703
2008+479892546+479253475+478069322+476651129+475246950+473954404+472860397
1998+471978944+471190369+470498512+470141766+470254690+470625270+470938504
1988+471109795+471315836+471809244+472698199+473867228+475128774+476371625
1978+477557699+478786566+480359455+482455491+484739173+486687324+488321312
1968+490185528+492569770+495161793+497530460+499570529+501406777+503221899
1958+505233609+507526414+509862311+511935329+513820732+515887749+518341701
1948+521160983+524320086+527691892+530827048+533246490+535023560+536726448
1938+538768018+541116098+543527078+545808659+547896982+549884415+552015051
1928+554560291+557709011+561403773+565049682+567819088+569722136+571671938
1918+574019359+575954216+576959096+577746171+579167935+581243835+583445352
1908+585286641+586562262+587397411+588048366+588598250+589103240+589886114
1898+591182141+592585360+593405024+593664902+594193240+595529538+597245511
1888+598631264+599603914+600428381+601065051+601263950+600951557+600308345
1878+599681638+599374646+599406696+599709006+600503343+602056546+603959654
1868+605008828+604371857+602643882+601150216+600558019+600273534+599230903
1858+597287523+595318936+593952868+592928422+591796664+590623734+589857846
1848+589969119+591115821+592486270+592270446+589745792+586528952+584365607
1838+583415223+582790256+581916155+581184537+581284227+582088347+582451995
1828+581556288+579809947+577745811+575308843+572654851+570489105+569180234
1818+568305053+567368474+566514419+566162294+566285150+566337546+565807528
1808+564768978+563846262+563739190+564822694+566835575+568709514+569327758
1798+568928879+568944424+570329337+572627483+574239504+573881317+572296424
1788+571371308+572042008+573826941+575827638+577712561+579469705+580979696
1778+582374512+584250132+587259670+591421012+595343123+597075660+596565448
1768+595218105+594044755+593816747+595246674+597976529+600455749+601936511
1758+603122705+604377739+605545268+607336682+610885962+615696217+619255460
1748+620106814+619603083+619454599+620099551+621477083+623518832+625611236
1738+627210234+629176661+632768433+637015540+639002013+638363062+637016680
1728+636128295+635937258+636360385+637236526+638801133+641982142+647578513
1718+654389525+658414747+657414728+654251784+652257989+652296881+653791567
1708+656069187+658516837+660518915+662505268+666136952+672091149+677865172
1698+680672510+681079071+679905421+677521869+675717671+676172187+678826299
1688+682768995+687998116+694501177+699194638+698693668+695119061+692269951
1678+692177764+695128424+699240251+701943698+703628281+706543531+710498411
1668+712861377+713397817+714532575+717158659+719715962+720849581+721241078
1658+722089071+724253857+728821580+735829992+741041347+741526352+741097284
1648+742286779+743093960+740262675+735060502+731389566+731352175+734961052
1638+740689342+745344571+745239600+741143918+737600880+736742204+738092607
1628+740630825+743666411+746689993+748967493+750238432+751754484+755139735
1618+760363454+764908490+766207098+765675339+766222102+768266853+769788067
1608+769010174+766886801+765902507+767220620+769985406+772637357+774251779
1598+774924100+775355448+776052076+777002760+778129536+779386611+780394792
1588+780816778+780967843+781500202+782696899+784382863+786383019+788833911
1578+791860674+794647126+795512344+794734512+794811095+796617754+797767997
1568+795715325+791825444+788851076+787913596+789651955+795181345+803361127
1558+807250768+803840910+799039417+796533729+796565238+798302877+800669563
1548+803124656+806086060+809953974+814188478+817858634+819773025+818021462
1538+813486869+810003249+809304400+810788763+813307715+816419344+820028641
1528+823392765+825850799+828460798+833225860+840358929+847213995+851229433
1518+852951407+853741723+853965410+854059098+854917294+857381329+862613871
1508+871543996+880821985+883578248+881313472+880486125+883025543+887067689
1498+890420290+892419006+893130039+893422146+895490423+900660006+906561087
1488+909206737+909194733+910330872+914043280+918748084+922235665+923908064
1478+925080754+927405308+931650615+937485917+943064342+945965668+946670158
1468+948027043+950895299+952393226+949968382+946381532+945802299+948701584
1458+951956296+951969259+949502463+947356223+945788795+944222567+943287968
1448+943362571+942859921+940451222+937092259+934359224+933346902+935232244
1438+940670827+947553562+951147374+949967602+947259774+945896527+946011461
1428+946635948+947842548+949861370+951698279+952316583+951854085+950406933
1418+947948719+945903129+945833868+947633866+950101262+951923526+952158736
1408+950731030+948489661+946554263+945879302+946790194+948527652+949811135
1398+950257909+950497260+950831980+951193708+952040621+953790443+955282128
1388+954442298+951197609+948303966+948392312+951583404+955988899+959360886
1378+960824602+961617319+963571802+966656003+968912556+969376855+969579835
1368+971859556+977137051+983867760+989087458+991175961+991660666+992905977
1358+995099092+996529799+996215305+995511295+996070542+997588515+999001336
1348+1000560122+1003548413+1008276685+1013397413+1017324745+1019341107
1340+1020163352+1021266241+1022434670+1021568492+1018137268+1015199751
1331+1016318725+1021549886+1027326370+1030353193+1031102937+1032027453
1322+1034039854+1036583893+1039224801+1041697419+1044113140+1047650596
1314+1052680697+1056709340+1057447800+1056851822+1058368115+1061467920
1305+1062488824+1061040592+1061515454+1066641464+1072700152+1073741823
1297+1069962975+1066561160+1066119548+1066170083+1062854934+1055499619
1288+1046533663+1038603256+1033204164+1030870068+1030913161+1031217211
1280+1029705360+1025887261+1020721399+1016041322+1013534254+1013029743
1271+1012663154+1011414421+1010011202+1008715656+1005981180+1000280618
1263+992567476+985981170+982817806+982204183+981402824+978642540+974028963
1253+969165352+966011710+965121165+964777802+962443165+956996420+948851689
1243+938808892+927969116+917938443+909670375+902290633+894299128+885988447
1233+879377354+875556614+873109563+869707148+864638995+859096761+854495488
1223+851318740+849378541+848233819+847266811+846111286+845224161+845403855
1213+846588548+847853186+848868569+850401966+852935082+855865877+858620939
1203+861678972+865654919+870230984+874657245+878426850+881046392+882199456
1193+882382151+882636207+883852770+886436841+890150269+894174110+897888019
1183+901710499+906500289+912273112+917874764+921839127+923466213+923520169
1173+923967842+926983742+933703048+942998322+952182923+959185573+963884376
1163+968095893+973702886+980333125+985025865+985392035+982293670+979334547
1153+979970617+984543861+990884694+996747424+1000269035+999867995+996175033
1143+993191122+994201224+997972749+1000966383+1001576525+1000783628+999560883
1133+997984273+997130938+998544600+1001616737+1004232798+1005776338+1007645656
1123+1010939319+1015441143+1020661141+1026329112+1031758093+1035472601
1114+1036608500+1036253915+1035290027+1032797963+1028543053+1024777889
1105+1023780272+1025719210+1029999568+1035822626+1040605693+1041898239
1097+1041476193+1042679672+1044596765+1043587503+1038845008+1032467144
1088+1025803836+1019911277+1016737170+1016425917+1016679312+1016525907
1080+1017444301+1019388761+1019907796+1018001747+1015042864+1011530376
1071+1007133944+1003485515+1003553095+1008051738+1013636884+1015203712
1063+1010415843+1001924989+994570994+991457805+992217152+993629253+992928964
1053+990172641+987386250+985872358+985128556+984240891+983399020+983231390
1043+984032209+987052610+993277788+1000127092+1002586746+999628404+996022407
1033+995342464+995683546+993600564+988319948+981665282+976586687+975331532
1023+977570800+981086650+984416804+987009577+988054609+986844708+983999679
1013+981645837+980928923+980597684+979108219+976781745+974154041+969289649
1003+959820923+947797354+938785065+935952519+937051807+936518728+930748786
993+921364025+912815674+908070898+905872622+902598645+897160902+892022888
983+889509458+889058543+888067768+885013396+881265878+879262600+879745984
973+881351523+881802738+879044975+872720947+865279386+860243944+858982487
963+859758459+859573904+856850951+852750227+849768897+849040520+849527265
953+849862645+850310919+852430572+856879159+862147892+866130861+868607680
943+871164563+875318943+881600718+889674147+898189789+905166211+909892141
933+913743911+918148025+923055210+928167296+933724054+939076151+942193722
923+941625652+938195929+934677859+933654793+934867815+935541877+934175749
913+933194876+936049988+942006466+946067458+945257936+942094092+939937048
903+938896158+938161598+938715624+941221012+943683426+944288227+944241773
893+945178593+946330457+946160426+945403180+946456014+950219377+954893272
883+957820046+958243172+958047634+959444010+962180767+964110283+964298199
873+963817876+963848485+964319745+965125126+967605426+972927334+978701778
863+980252641+976246445+969908614+965144032+963997089+967420811+974894061
853+982594600+985365687+981890890+975520889+969812825+966131206+965168039
843+967914458+973939176+980039517+982695850+981646917+979824173+980767895
833+986113750+994034674+999208098+998126755+994483668+994179917+997547703
823+1000656270+1001781786+1002585846+1003673791+1002513405+998102028+993888470
813+994521119+1001886998+1014132272+1026177267+1032330304+1031360294+1026226122
803+1020084849+1015602711+1014182807+1014454809+1013496442+1009632849
794+1002981664+994861061+988918747+989424938+995877764+1002504282+1004946711
784+1003538931+998775909+990671090+981780937+976017297+974755480+975514527
774+975465372+974236025+972177531+969708214+967634175+966167637+965591645
764+967089752+971831287+979014171+985892884+990578302+992986881+992668126
754+988855068+982850936+976363960+970346144+966470307+966680430+971485644
744+978520524+983920936+985792234+984014263+978976240+973588672+973832405
734+982510995+993810447+999323633+999758342+1000985409+1004261846+1006614669
724+1006459042+1004932787+1003577462+1003064489+1002960718+1003461868
716+1006543427+1013320830+1020133103+1020511816+1013643846+1005991743
707+1001919107+998246431+989799870+977911522+969247216+967800664+971827866
697+977150135+981181358+983566590+985517532+987953299+989955917+989084877
687+984276062+978471189+975549757+975911425+977290817+978871388+981483488
677+985071299+987639105+987722350+986676898+985223624+980261583+968972934
667+957728038+955404025+961324492+967359533+963757018+950756898+941758472
657+946291325+958536840+967429093+971194257+972801417+975849547+978590265
647+971896407+952707840+929721159+914891693+914413051+928048640+950927709
637+972806338+979256403+961305526+932931938+914182822+908338698+908508128
627+909161123+910130713+914955132+926929546+948200495+976146275+995599101
617+987211358+958436910+933976970+921621382+915420571+911609134+911175504
607+910918568+905491868+897827341+895449071+899896398+904237074
##END=
