##TITLE=<SNM>
##JCAMP-DX=4.24
##DATA TYPE=INFRARED SPECTRUM
##DATE=29/4/2025
##SAMPLING PROCEDURE=Instrument type and / or accessory
##ORIGIN=Admin
##XUNITS=1/CM
##YUNITS=ABSORBANCE
##RESOLUTION=4
##FIRSTX=4497.3318
##LASTX=599.83466
##DELTAX=-1.4281778
##MAXY=2.1065311
##MINY=0.38373563
##XFACTOR=1
##YFACTOR=1.96186e-09
##NPOINTS=2730
##FIRSTY=0.39264253
##XYDATA=(X++(Y..Y))
4497+200137893+200525123+201290468+201785386+201410187+200288312+199285260
4487+199210385+200115501+201273621+201722678+201115135+200087991+199495942
4477+199482666+199693834+200137498+201177676+202628341+203487657+202908810
4467+201237209+199858275+199961496+201479746+203177825+203713059+202714489
4457+201015650+199869516+199792954+200235387+200483925+200477849+200485824
4447+200586661+200774617+200990692+200885237+200142009+199149257+198837662
4437+199687347+201085726+201835151+201341692+200098882+198978740+198473674
4427+198643629+199244503+199810758+199993412+199782974+199248058+198401639
4417+197433238+196672343+196292997+196264697+196481257+196751685+196790224
4407+196423350+195871557+195674410+196099511+196767499+197144247+197242516
4397+197469027+197915988+198232990+198213637+198119986+198296518+198745317
4387+199217950+199465789+199376573+199083040+198834578+198638616+198275494
4377+197856667+197909471+198518350+198888536+198321082+197194999+196433573
4367+196369331+196589158+196623125+196374390+195991595+195670491+195597864
4357+195848452+196269679+196663411+197109308+197800492+198570607+199004761
4347+198992502+198783795+198497645+198019164+197452408+197209962+197444327
4337+197748144+197721226+197576214+197775867+198289515+198698954+198782641
4327+198627846+198474449+198652106+199294056+200050576+200448713+200432793
4317+200254163+200038985+199724063+199278926+198829565+198543537+198369738
4307+198058934+197518504+197026746+197105525+198125348+199731872+200795626
4297+200549291+199676835+199500864+200231104+200843599+200621402+199976186
4287+199653836+199903817+200545402+201151791+201109621+200256670+199446906
4277+199621404+200416295+200667825+200228172+200145123+201006946+202155921
4267+202703885+202638626+202649366+203141534+203661137+203427380+202410535
4257+201503520+201457583+202098910+202722327+202799087+202258095+201482420
4247+201068256+201338669+202133773+203112428+204080146+205013396+205905388
4237+206593396+206776066+206309297+205445819+204634551+204121830+203877667
4227+203830333+204012866+204427758+204761972+204524585+203788330+203371326
4217+203852526+204911025+205960865+206858462+207668787+208317892+208706322
4207+208752882+208348319+207592514+206983497+206981097+207425582+207760130
4197+207792243+207765219+207669197+207094224+205945871+204855168+204592716
4187+205250358+206214552+206909093+207289988+207506275+207513977+207306364
4177+207125897+207252254+207852779+208914407+210124115+211078298+211608139
4167+211656902+211202695+210523862+210004745+209600425+209025710+208395882
4157+208213091+208784449+209810029+210481571+210257247+209628437+209586283
4147+210321611+211015635+210891769+210022533+209103806+208772494+209124830
4137+209791405+210458769+211147781+211908067+212451626+212376599+211767112
4127+211225786+211190452+211542819+211979996+212457931+213047138+213563308
4117+213657431+213300658+212969240+213180909+213909994+214659677+215093072
4107+215387714+215919120+216775368+217684586+218220215+217974564+216879790
4097+215530447+214776617+214922844+215641811+216524294+217424215+218365227
4087+219270663+219870656+220041978+220119922+220478867+220918308+220926678
4077+220465377+220023476+219894445+219821696+219503280+219048238+218641761
4067+218208944+217789220+217704729+218005979+218341043+218584340+218972390
4057+219523605+219853308+219679448+219236514+219031984+219220214+219479552
4047+219673570+220120378+220817744+221098213+220630396+220076628+220178817
4037+220773129+221235797+221489514+221991754+222884201+223631257+223574109
4027+222658678+221581009+221160344+221488223+221940956+222084570+222064351
4017+222045712+221890765+221493479+220973770+220583350+220630320+221258006
4007+222194628+222978491+223433351+223722068+224023044+224247368+224033222
3997+223172828+222083006+221515156+221744386+222414865+223152958+223916754
3987+224740903+225475730+225858600+225737757+225210285+224557337+224117410
3977+224247489+225126067+226377991+227233828+227307747+226867972+226308189
3967+225847800+225734278+226218654+227194681+228106907+228393680+228037287
3957+227494047+227077134+226793066+226858371+227749147+229381389+230766688
3947+231069518+230731992+230859732+231639919+232032952+231342756+230318558
3937+230114667+231097165+232983170+235222879+236836891+236904141+235795452
3927+234868036+234686976+234453842+233574094+232955432+233791050+235788343
3917+237270028+236832957+234698703+232352309+231051699+230939590+231880436
3907+234760849+240651709+248277349+253804980+254931701+252888744+249112390
3897+244024837+239100647+236717613+237715363+239910790+240210081+239102743
3887+239775015+243091937+246182485+247020595+247140967+247207974+245378312
3878+241909253+240092488+241832676+246084701+251013206+254864071+255437982
3868+252938950+250631779+250261304+250047053+247929645+244831654+243013810
3858+244038828+249275084+259520462+269690372+269212498+259185443+248603572
3848+242369262+241395575+244379832+249198522+254456577+259844696+264613225
3838+266730435+265139618+261369067+257283518+253677544+251002223+249734121
3828+249784433+250496687+252193596+256662850+263739144+268305392+266769445
3818+262753622+259812187+257000026+253119919+249875669+249465835+252536423
3808+257389945+260724580+261934987+263995261+267823720+269852944+267952721
3798+264456091+261059234+257573177+254429537+252753257+252665499+253354997
3788+254383433+255823434+257389489+258794461+260685388+263536376+265917633
3778+265917511+264068208+262685901+263705602+267830161+273693556+278176103
3768+279792075+279996210+280311055+281400209+284162908+288859858+293642728
3758+296353596+297743194+300709542+307830223+319515147+331319835+337145344
3748+338212775+339898868+343984539+346643970+345285665+343506908+345653010
3738+353300510+364409853+373981820+377809185+375961796+372147495+370467721
3728+372889902+378569427+384859928+389666799+392583412+394050240+395002312
3718+396901867+401276224+409516835+422113119+436035625+444730047+445759957
3708+443463890+442620372+445505601+451917355+459032021+463386022+464601959
3698+464816575+465712562+468250679+473289424+480777298+488304273+491511791
3688+488657643+482969976+478056161+475574067+476107144+479411002+484945364
3678+492460004+499899723+502698789+501113958+500868778+503636338+504422100
3668+499774247+493382848+489937776+490777161+494438248+498850612+503420415
3658+508634736+513739560+517143891+519910144+525290561+534013634+540217942
3648+536927786+527530787+519982210+517484530+518804554+521740217+525709768
3638+531058710+536762023+540912772+543725388+548139849+556224116+564270345
3628+564530473+557656613+551252515+549522763+552615621+558217095+562426601
3618+563561115+564977327+569934527+576542183+580634902+581611612+581296676
3608+579788528+577289876+576041371+577266300+579122440+578871305+576290501
3598+573833836+573953844+577491064+583495278+589908308+595285019+599712058
3588+603263861+604220216+601432270+596899381+593890863+593759310+594868850
3578+595053145+594697193+595576865+597761613+599930685+602123028+605619719
3568+609563568+610836986+609499462+609496242+612762275+616731522+617584337
3558+614976250+611818801+610223154+610115968+610705859+611714592+613559369
3548+616922806+621589799+625854722+627867206+627184104+624917082+622913652
3538+622458898+623196384+623750242+623748055+624183242+626731599+632367100
3528+638613760+640120267+634372961+625343216+618547740+615372549+614340786
3518+614645575+616394164+619094915+621540824+622843895+623392650+624618734
3508+627576574+631724770+634871099+634717733+631344574+627372470+625156854
3498+624910762+625467841+626054451+626977143+629233410+633564625+638813733
3488+641434033+638648152+632328394+627572686+628177160+633823842+640402392
3478+643463591+641630360+637197852+632969873+629607591+627458025+627785540
3468+630966443+635345965+638417312+638763117+636817837+634065863+631566968
3458+629763389+628972796+628686661+627800427+626540923+626494500+627881060
3448+628714430+628058550+627537807+627874376+627431471+625691329+624624385
3438+625628561+628393113+632687506+638128990+642278158+642603911+639936458
3428+636871127+634340453+632108248+630999438+632039464+634541336+636785086
3418+637975319+638546009+638778429+638075944+635771188+632410364+629612331
3408+628498902+628768874+629409563+629899559+630025157+629535587+628945756
3398+629632322+632336111+635935067+638170066+637994824+636328570+634109248
3388+631504078+629185893+628808249+631363775+635806248+640135641+643028647
3378+644198464+644575379+645416892+646371059+645890117+643637982+641116301
3368+639755991+639727736+640946346+643708164+647412787+649917637+649496425
3358+647042191+645033900+644604303+644865525+644718416+644049776+643323471
3348+643290355+644855438+648009666+650589498+649732369+646087537+643858979
3338+645606899+649516538+652394232+653202203+652489934+650817239+649308362
3328+649406921+650926066+652044052+651383250+649427641+647754460+647049179
3318+646789962+646885847+647833695+649018946+649219283+648659713+648247251
3308+648038468+648300237+650043660+652833612+654572600+654541124+654256326
3298+655300910+657813780+660657447+662417702+662177018+659713001+656112466
3288+654060425+655690768+659992391+663446548+663835737+662407311+661989259
3278+663984304+666922093+667997301+666438295+664214962+663174814+663172262
3268+662526408+659722359+655191414+651134363+649514836+650630209+653108931
3258+654849073+655062049+655488000+657716498+659920326+658916818+655070191
3248+652165883+652833733+656357403+660720033+664761650+667699804+668528799
3238+667101527+665075615+664046465+663232053+661319525+659406997+659228413
3228+659861568+658943554+656310980+654156127+654171804+656248333+659157138
3218+661358110+661761336+660187442+657110140+653221525+649182886+645560840
3208+642992553+642434988+644768728+649536407+654256812+655942085+653748891
3198+649376843+645002242+641904159+640699707+641054687+641345075+640315014
3188+638743733+638289709+639148478+640297150+641243418+641849776+641171414
3178+638607866+635770519+635041055+636884312+639612042+640937717+639548788
3168+635963808+631997537+628969150+626910729+625779679+626010094+627120727
3158+627326411+625700018+623452015+622063754+621559661+621247701+620929909
3148+620629495+619823772+617924673+615289668+613224927+613140831+615448017
3138+618658330+620217883+619067571+616696523+615153861+614842753+614537964
3128+613167688+611283536+610366920+610952072+611904903+611515653+609252337
3118+606483167+605131910+605418349+605669727+604927259+604436352+605505666
3108+607148769+607036235+604286084+600254918+596950544+595601292+596301104
3098+598034076+599118946+598509550+596659851+594755344+593702679+593911280
3088+595069795+595969215+595556874+594388090+594134342+595486206+597072192
3078+596870275+594686621+592337751+591143871+590531680+589469293+588052412
3068+587112280+587154936+588026101+588996432+589147186+588240778+587283633
3058+587552633+588742319+588841910+586657284+583756378+582577507+583323743
3048+583910900+582771221+580658113+579127118+578339260+577500907+576694152
3038+576773205+577710541+578330936+577865731+576922197+576567642+576925174
3028+577047673+576198201+574796450+573625296+572773089+572103538+571905996
3018+572225550+572292086+571379299+569806863+568470008+567480050+566006963
3008+563721895+561604837+560709063+560659115+560107019+558577908+557108406
2998+556775787+557268153+557385062+556637854+555735517+555575102+556351962
2988+557434705+557831612+556985299+555128066+553004142+551482140+551132994
2978+551725984+552185112+551508329+549744367+547706120+546053841+545081749
2968+545040673+545837524+546546086+546197304+545086063+544368325+544356841
2958+544118649+542835569+540856869+539131128+538137646+537690792+537372939
2948+536867934+536140353+535605514+535808950+536587389+536990129+536478866
2938+535618882+535065631+534643568+533812933+532388274+530781325+529786142
2928+529722097+529935741+529684120+529079646+528576099+528091511+527135338
2918+525327870+522831527+520680381+520095898+521146923+522641277+523408354
2908+523228859+522602389+522061594+521769565+521654601+521724904+521894920
2898+521652657+520502405+518640372+516658026+514822668+513053724+511351194
2888+510001153+509414239+509665070+510147289+510122983+509610900+509163620
2878+508903644+508416838+507534462+506618363+506065477+505911107+505855934
2868+505576969+505106235+504716377+504329254+503465806+502050201+500784833
2858+500271990+500203358+499836377+498951146+497978172+497349301+496992528
2848+496469052+495506590+494280263+493176344+492384961+491739532+491013774
2838+490408723+490421118+491045371+491591695+491556665+491069980+490220478
2828+488781053+486966263+485635909+485307392+485511375+485447391+484936006
2818+484400650+484087172+483702144+482903987+481856000+481034996+480630645
2808+480402418+480040997+479429201+478635145+477828085+477137054+476526047
2798+475880953+475243514+474817107+474726235+474882458+474917822+474307029
2788+472940186+471398983+470256905+469366721+468238618+466887908+465888654
2778+465635696+465801671+465605041+464584033+463048512+461788765+461336685
2768+461382379+461030377+459928828+458813303+458447780+458563018+458468349
2758+458114493+457824075+457466725+456654106+455530712+454676075+454286915
2748+454008953+453563132+453032637+452365820+451203082+449473968+447692385
2738+446460194+445985602+446142857+446676876+447199472+447217944+446485077
2728+445297547+444174457+443348531+442820801+442618003+442622408+442379962
2718+441468572+439966531+438337677+436938235+435769481+434662250+433632007
2708+432967620+432871006+433074806+433048283+432673890+432449490+432808936
2698+433508475+433919448+433647107+432640014+431028599+429152954+427588205
2688+426902703+427233955+428033935+428415590+427917877+426789865+425533218
2678+424463144+423707976+423335101+423326169+423453833+423381282+423125225
2668+423145398+423575147+423745011+423003850+421606686+420296324+419501812
2658+419274466+419429898+419491452+418985110+417992024+417102113+416781556
2648+416980161+417263136+417184356+416639309+415897600+415252749+414776789
2638+414449578+414262153+414085028+413694684+413042510+412277347+411517318
2628+410857337+410476441+410408508+410322436+409863582+409133935+408551730
2618+408350178+408435824+408584451+408603835+408433576+408191677+408013427
2608+407825000+407423992+406837655+406410944+406381261+406481369+406216501
2598+405520153+404810983+404399888+404229356+404224282+404469128+404903982
2588+405188142+405066341+404688454+404390865+404277086+404175945+403984176
2578+403856664+403905700+403887744+403491232+402862179+402516739+402745666
2568+403338959+403831872+403838951+403288283+402507503+401925815+401605744
2558+401279141+400858537+400587684+400611776+400725009+400692014+400567328
2548+400507203+400469499+400328072+400137305+400083530+400283198+400714649
2538+401201303+401442473+401247726+400747309+400214596+399764978+399382685
2528+399142882+399253836+399830359+400643556+401209719+401226185+400846718
2518+400461569+400321874+400425931+400631008+400812387+400972498+401196685
2508+401480146+401648491+401510437+401104841+400726163+400627879+400764049
2498+400927594+401032350+401084607+401011174+400742965+400402841+400217635
2488+400262235+400423744+400587349+400731328+400875246+401043348+401266563
2478+401557468+401871766+402105219+402155136+402030389+401894431+401921987
2468+402092489+402205357+402134051+401954617+401737692+401394834+400903076
2458+400466126+400248199+400193724+400279097+400636720+401261671+401877630
2448+402234493+402343412+402337001+402258373+402092793+401934110+401923081
2438+401981505+401843937+401440012+401040614+400956123+401240100+401711503
2428+402145688+402389531+402367353+402150670+402007208+402103244+402197853
2418+402015320+401772995+401885863+402382786+402986684+403457965+403635151
2408+403494848+403256078+403164781+403271664+403545221+403955860+404393721
2398+404737034+404970669+405125586+405261513+405549410+406133863+406864239
2388+407368576+407424417+407080466+406417537+405368822+403755067+401396384
2378+398346729+395129155+392412272+390288864+388269605+386050981+383782471
2368+381698195+380086112+379294243+379281057+379660403+380428605+382027593
2358+384691856+388222362+392239309+396438303+400470988+403577547+404820280
2348+403785479+400998262+397839811+395640844+394620657+394293142+394447451
2338+395073800+395855916+396312006+396348221+396331633+396514257+396659816
2328+396500069+396255678+396333000+396820900+397624009+398726774+400010036
2318+401124346+401787427+402066452+402327492+402985833+404212859+405825459
2308+407494204+408964374+410035147+410545529+410552882+410417501+410536415
2298+410985882+411521602+411936252+412285884+412747808+413423740+414272422
2288+415070306+415530073+415593084+415447495+415220969+414915967+414642228
2278+414571439+414597355+414341298+413663968+412951821+412648551+412674557
2268+412600669+412255867+411849755+411627847+411683689+411989663+412457845
2258+413040870+413736155+414444383+414985298+415311932+415568809+415895261
2248+416249754+416440126+416327441+415999440+415693192+415528523+415363216
2238+414948445+414236268+413491552+413026195+412876535+412866114+412900081
2228+412985119+413016595+412819903+412475253+412373475+412759596+413375008
2218+413756754+413764835+413621251+413582272+413773707+414223538+414867964
2208+415559543+416171886+416720428+417326512+418008126+418613481+419088104
2198+419637010+420413749+421225670+421780713+422086900+422379020+422736430
2188+423013390+423171344+423445569+424036038+424796188+425403548+425741879
2178+425952485+426176641+426406236+426586612+426745235+426950767+427208859
2168+427473423+427705175+427877865+428021692+428272492+428753222+429440456
2158+430254291+431154349+432023508+432656299+433035523+433438840+434124190
2148+435067421+436122061+437278206+438624176+440138066+441646609+443017309
2138+444329890+445783320+447477677+449376868+451399226+453423467+455326577
2128+457160994+459137111+461339967+463707704+466290057+469132356+471877343
2118+473953689+475300206+476494541+478002719+479673561+481182954+482671719
2108+484658591+487539353+491466006+496543578+502748858+509619741+516295877
2098+521985336+526254694+528860472+529676585+528911756+526954689+523829992
2088+519225098+513159087+506163761+498782163+491345998+484215109+477847074
2078+472617502+468708441+466042112+464217509+462674270+461067443+459453020
2068+458108295+457199214+456587205+455967145+455204534+454455078+453971249
2058+453908967+454238487+454683548+454886924+454838738+454991953+455730836
2048+456874738+457962949+458938111+460244494+462281435+465112067+468760788
2038+473435378+479290873+486205323+493895509+502124514+510736937+519494097
2028+527860671+535109684+540780125+544875639+547621355+549263607+549979218
2018+549718178+548265082+545647638+542316406+538789334+535263780+531644104
2008+527853258+523972056+520069041+516106842+512110068+508254904+504756937
1998+501860011+499914002+499188487+499468394+499956628+499835861+499022239
1988+498146395+497835074+498279133+499352245+500794555+502277000+503567129
1978+504718413+505973633+507472787+509165443+511028966+513179747+515548304
1968+517622888+518930699+519709686+520633107+522021369+523800461+525997058
1958+528718772+531685667+534268415+536106690+537468216+538964515+541070635
1948+543936419+547505844+551533364+555257188+557516918+558042461+558165567
1938+559333683+561621425+564220154+566698451+569197285+571787568+574240100
1928+576458147+578829742+581666056+584370271+586170083+587666807+589985903
1918+592475987+593258012+592223576+591218489+591481290+592681975+593916566
1908+594694216+595097320+595535911+596429497+597896083+599593326+600961110
1898+601839081+602545212+603148289+603424459+603671766+604390415+605160044
1888+605166728+604589779+604047527+603467297+602622625+601832336+601425525
1878+601303816+601313720+601527121+602284051+604161215+607245687+609967219
1868+609667048+605714753+600493475+596464740+594222449+592984577+591689830
1858+589688466+587030675+584334421+582232250+581042199+580868051+581709259
1848+583628167+586617484+589397592+589094200+584854494+579807972+576822727
1838+575695688+574540271+572609271+571373891+572527180+575336758+576782198
1828+575393390+572735112+569834936+566028716+561614741+558329932+556985481
1818+556680085+556372561+556287188+557304003+559415167+561330794+561798004
1808+560988635+560115100+560272903+561899357+564538737+566905471+567894882
1798+567789518+568035488+570023910+573903714+577546784+577933543+575331350
1788+572961699+572904764+574906675+577899333+581285374+584471503+586669680
1778+588140701+590481611+595162520+602009461+608316520+610711874+609192121
1768+606186459+603508251+602445621+603882432+606983432+609460877+610543499
1758+611336887+612205317+613131898+615530473+620928815+628185181+633492742
1748+634693488+633475668+632416136+632990047+635684843+639702823+642900862
1738+644659658+647813340+654784603+662247504+663695435+659756508+655030999
1728+651546096+649958531+650557111+652779168+656335224+662636025+673169057
1718+685592013+692632668+690647832+684489218+679254147+677004078+678733708
1708+684584738+692298470+697987504+701283372+706341560+715553292+724738106
1698+728743326+728457373+725389125+720502411+716915729+716914818+720002935
1688+725271912+734014611+746848267+756932136+756163905+749406164+744919880
1678+745843119+751615278+759173394+765462407+771060843+777504862+782069348
1668+780650158+776116783+774589130+777345845+780485307+780518241+779245612
1658+780659637+787312440+800183526+815831257+822917728+820081535+818453927
1648+820733527+821140338+815231948+807365396+802752117+802330905+805680791
1638+812370417+819494136+820168488+812518132+803925154+799638175+799322509
1628+800287918+800791586+800967678+800346494+797504954+793623631+792176490
1618+794286438+795993282+792145926+784583009+778618838+776138901+775528472
1608+774681734+773470051+772690031+771930610+770148237+767614889+765771206
1598+765323137+765623794+765964009+766431036+766922369+766516287+764798323
1588+762818166+761892800+762184100+762838947+763162330+763890883+767223452
1578+774541127+782517418+783603685+777470106+771769891+770638962+772116607
1568+772086590+769738145+767055441+766126915+769770350+781440447+799123873
1558+806362131+795804855+782352141+774337145+771520093+771075061+770361821
1548+769325865+770476116+775776508+784909491+796636037+808240510+812045393
1538+805146134+797011737+794419449+796116693+797225625+796651471+798302352
1528+804546703+813419618+821722451+829166029+836404104+841688758+844139589
1518+845777285+847114323+846951659+846151405+847647400+854056298+866734339
1508+883370387+892685842+885390648+872534935+865441355+865847497+872349789
1498+881787986+888538314+889228100+887516334+888941115+895146030+902797115
1488+906814305+906530783+905291209+905568898+907455723+909952309+913088126
1478+918547657+927523809+938202430+945856796+946448449+941350582+935741513
1468+932708203+932392112+933936171+936725758+940778859+946506600+954049404
1458+961506775+963829456+959449752+953984023+951702418+952687210+954889762
1448+956155707+955606041+953703114+951747261+951619780+954972340+961527374
1438+968792732+973690080+975387445+976176154+978340486+982083390+985496106
1428+986213053+984173712+981569757+981182755+985039894+992948312+1001867954
1418+1007670920+1009104754+1007620486+1003994612+999050841+995648333+996275412
1408+1000040555+1003707566+1004365998+1001130894+995727204+991165513+989494884
1398+991220930+995601971+1000076345+1001247863+999204390+997765330+998555376
1388+998592746+995175898+991064525+990639606+994009180+998242627+1001341682
1378+1003148482+1003933423+1004310156+1005845465+1009438588+1013342576
1370+1015485397+1017485485+1022996604+1031994206+1039653797+1041517532
1361+1038561636+1035140292+1034131012+1036308164+1040860801+1045414897
1352+1047908262+1049057298+1051079869+1054092518+1055736412+1054681316
1344+1052997076+1054309201+1059663429+1065550309+1067608487+1065799196
1335+1062973454+1060265837+1057434384+1055422508+1055164871+1055631655
1327+1055799970+1056736334+1059351956+1061947404+1062792258+1063174460
1318+1065132135+1068624572+1072023677+1073741823+1072808619+1068659329
1310+1062151447+1056318525+1053950332+1055137163+1058080664+1061029390
1301+1062778890+1062671582+1060919530+1058172052+1054641212+1050551470
1293+1046900076+1044413638+1042219228+1038299502+1031665111+1023994339
1284+1017825396+1013386933+1008967064+1003862026+999048896+995079041+990935889
1274+985535541+979602299+975152595+972774376+970290490+965265356+957954547
1264+950253271+942957227+935601757+928146999+921607945+916699538+912715464
1254+908548128+904220011+900076433+895222774+888597558+880738177+872775072
1244+864679321+855821293+846364928+837297630+829683976+824197831+820861859
1234+819046006+817779392+816180586+813833296+810893927+807843604+805149780
1224+803098711+801824685+801510417+802346946+804152653+806293773+808184304
1214+809783962+811643626+814537240+818539664+822421534+824989274+826866438
1204+829661433+833757919+837950594+840918096+842556824+844025293+846517687
1194+849776671+852476085+854422884+857191811+861904925+867540001+872450839
1184+876562516+880744982+884937353+888496448+891956741+896860773+903671622
1174+911276222+918853358+926573773+934339944+941501944+947568744+951958839
1164+953686829+952558088+950392663+949808362+952406240+958195230+965096981
1154+969490114+969696770+967840509+966129108+964073725+961379172+959598500
1144+959163009+958837378+959075024+962033533+967547630+972422252+974615385
1134+975789517+978508922+982762299+986394250+987956659+988223957+989097370
1124+991180947+993038120+993583836+994080395+996392138+1001517592+1008719210
1114+1014420336+1013920314+1006078493+996569081+993324559+998418172+1005175549
1104+1005946090+1000871556+995504446+993622664+994659713+995554515+993436363
1094+988462514+984513744+984751146+987497288+988633685+986962387+985047429
1084+985714793+988805524+991146616+989964099+985050467+977718694+970038078
1074+963844404+959762987+956689878+954222762+954036219+956774643+960223695
1064+961234312+958213156+952299783+946861337+944845268+946059078+947314753
1054+945926735+943304126+943545235+947887388+952290364+951791801+946345455
1044+940046539+936180103+935548103+937773501+941479644+943845710+943107009
1034+941208882+941134265+942270054+941095680+936728128+932951561+933414578
1024+937828735+943326547+947175423+948163740+947196204+946577693+947704429
1014+949738545+950624354+948758492+943998469+937829829+931985544+926318810
1004+919047497+909864871+900821697+893345124+886940601+881418848+877580546
994+874842243+870716286+863801594+855760712+849456934+846255128+845553797
984+845897414+846075572+845409970+843437408+839971524+835656654+831818716
974+829273519+827454567+825098405+821416933+816354369+810611134+805717796
964+802797325+801144317+799344384+797737799+798253134+801580477+805914427
954+809235693+811981166+816125473+822297091+829227217+835384191+839768209
944+842072115+843844340+848196762+856333589+865418508+871849888+876262162
934+882416583+890751985+897117863+899262082+900360806+903777836+908155232
924+909969080+908254701+904344698+899727834+896140606+895280743+896960182
914+899014714+899640638+898832667+897627182+896765922+896479969+896800800
904+897536827+898332463+898876478+899147847+899456221+900137501+901203048
894+902525320+904475035+907422182+910641245+913031373+914988684+918121706
884+922918551+928122876+932353163+934797857+934691399+932244883+929897349
874+930066393+932222522+934184754+934996979+934624499+932919417+931087644
864+931071602+931943739+930137000+925476083+922818291+925720169+932654428
854+940044473+945636225+947728856+945078539+939665492+936248340+937925957
844+943660199+949836313+953563297+954334081+953839892+955237086+960652381
834+968065759+972607337+971937664+967826594+962985513+959243642+958429534
824+962164235+969418717+976426439+980800857+983202105+983485080+980577430
814+976488903+975490622+980110341+988838518+996913610+999827458+998416653
804+998557685+1003175096+1007674687+1005231998+994949615+981544905+970304161
794+965025827+967135654+974809403+983115031+985559300+978077502+963189861
784+948194850+938247942+932741380+928015264+922376906+917099422+913175990
774+910208731+908327071+908564169+910855983+913361987+915222441+918086949
764+923243878+929550633+934806242+938115417+940779589+944676406+949738788
754+953721646+954022243+949762668+943544263+940804502+945156923+954492856
744+963084801+967690241+969409238+969158710+966600146+963169079+961436411
734+962075946+962699986+960027915+954633462+951923779+956177460+965244818
724+972460472+973468659+969737725+964037692+958437069+954700909+952368081
714+950143107+949703909+953000932+958621303+963783944+966409956+965465815
704+962191579+958931561+955825397+952125574+949878422+951636246+955209074
694+956070152+954230601+954141461+959065727+966431102+968407249+959680774
684+944624757+932848688+928813695+929162234+929305453+929120185+930023737
674+931299404+929839320+922857362+912486994+905574853+906506052+909796816
664+909559109+907064832+904083962+898520100+889411119+881798316+881656433
654+889965829+902846819+914453358+920575271+920125500+915221772+909559838
644+905130186+901200496+896906042+893194796+891394315+891883643+893951725
634+895756824+894053504+887077562+879490096+878974215+886868050+893874799
624+887698321+871121821+859381117+860011416+866670598+868582883+864335947
614+860679570+859026562+854766987+848165590+845522382+851243500+864676951
604+881978844+897418278+904651553+901526795
##END=
