##TITLE=<SNM>
##JCAMP-DX=4.24
##DATA TYPE=INFRARED SPECTRUM
##DATE=29/4/2025
##SAMPLING PROCEDURE=Instrument type and / or accessory
##ORIGIN=Admin
##XUNITS=1/CM
##YUNITS=ABSORBANCE
##RESOLUTION=4
##FIRSTX=4497.3318
##LASTX=599.83466
##DELTAX=-1.4281778
##MAXY=2.0998936
##MINY=0.38146374
##XFACTOR=1
##YFACTOR=1.9556783e-09
##NPOINTS=2730
##FIRSTY=0.39235562
##XYDATA=(X++(Y..Y))
4497+200623806+199861070+200008765+200553996+200560930+199602192+198414368
4487+198166615+199117398+200459256+201384941+201754255+201746285+201338539
4477+200473017+199598047+199556186+200727476+202545930+203992723+204353900
4467+203522254+201977871+200682993+200579232+201633487+202587898+202309834
4457+201152442+200255315+200021307+200067099+200069340+199939382+199735669
4447+199817624+200417090+201014637+200877259+200007698+198957634+198128152
4437+197736071+197973355+198778059+199794628+200800927+201808612+202506095
4427+202166299+200607180+198736792+197608963+197304399+197163684+196802416
4417+196412697+196211818+196145590+196169134+196350903+196594710+196654264
4407+196534181+196597651+197162175+198066068+198683319+198409202+197233722
4397+195838039+195054442+195229475+196063011+197004316+197764613+198363455
4387+198744107+198615186+197786420+196563882+195724510+195921655+196968626
4377+197940287+198144122+197629475+196733308+195798860+195298065+195509687
4367+196118389+196601933+196798637+196777516+196487261+195875512+195247655
4357+195242184+196182316+197503952+198233879+198080439+197545204+197035311
4347+196521228+195965223+195482029+195162836+195129950+195530245+196210355
4337+196657128+196525129+196067278+195901281+196447625+197515290+198356765
4327+198398367+197975291+197927319+198497222+199115249+199182453+198653573
4317+197943533+197616903+198031629+198990473+199874693+200278843+200343837
4307+200431857+200759782+201361275+202060374+202463731+202306542+201780299
4297+201219889+200698598+200274089+200277213+200943685+201993841+202867897
4287+203246247+203214916+203003812+202630155+201872311+200725906+199766772
4277+199739052+200721776+201860059+202102022+201272494+200253608+199997839
4267+200576718+201381223+202007343+202466398+202578831+201926577+200703459
4257+199960244+200548267+202154641+203621443+204113263+203975031+204221382
4247+205048365+205425588+204662639+203560137+203263696+203875673+204774919
4237+205452195+205609628+205096825+204057458+202927069+202288423+202508031
4227+203247451+203716869+203705364+203769017+204228819+204774843+205098349
4217+205226980+205272727+205330025+205535460+205907624+206185855+206005869
4207+205336502+204671020+204539829+204922416+205488296+206217842+207247364
4197+208279584+208759334+208581725+208127592+207619223+206974512+206391595
4187+206458159+207358669+208427005+208927648+208939900+208953569+209005259
4177+208828808+208607433+208928851+209940773+211061622+211732300+212038068
4167+212264731+212305723+211967573+211537182+211621102+212407062+213191467
4157+212885136+211272574+209422606+208477430+208519718+208942490+209338122
4147+209675617+210075881+210665229+211302869+211514354+211133154+210714435
4137+210774172+210976361+210694015+210088438+209953787+210644778+211719987
4127+212575177+212967776+212916086+212542657+212171134+212208256+212696250
4117+213263593+213723014+214315502+215091358+215559877+215392173+214976609
4107+214812746+214827009+214727743+214650650+214972739+215638738+215991533
4097+215456085+214433283+214114836+215087000+216490804+216968573+216216032
4087+215208819+215130674+216344740+218088218+219071445+218703930+217659945
4077+216953426+216838738+217026344+217480508+218328292+219254495+219704681
4067+219621995+219415981+219312189+219174155+218849324+218395434+218056308
4057+218089742+218447917+218707358+218589821+218404745+218666152+219443838
4047+220376776+221163971+221681787+221731268+221163330+220272923+219598390
4037+219277932+219042766+218871908+219143952+220009504+221047683+221747208
4027+222049867+222242806+222564666+223117746+223852533+224381368+224145668
4017+223024331+221465776+220011592+219068184+218873066+219291617+220004994
4007+221029762+222475915+223898021+224649861+224651843+224122170+223055632
3997+221672507+220792340+221028710+221948239+222533747+222327123+221778036
3987+221532340+221758149+222230889+222686592+222929165+222934803+223009931
3977+223486039+224179697+224547548+224421050+224175491+224121957+224136601
3967+224064750+224173068+224837620+225885170+226649186+226811739+226803479
3957+227075920+227377451+227215675+226824859+227028938+228056053+229115109
3947+229529926+229704655+230321707+231157650+231348609+230570969+229374078
3937+228554943+228736469+230149599+232242490+233655834+233336077+231841342
3927+230787224+231042627+231924394+232302440+232256312+232759514+234029552
3917+235047798+234717953+233070860+231017712+229357711+228349112+228206065
3907+229759530+233885987+239873002+245084284+247475460+247159543+244729965
3897+240760362+237005154+235731048+237621186+240567803+241520309+240744498
3887+241111770+243290654+244836865+244638943+244645252+245316570+244503744
3878+242118343+240813241+241855229+244133820+246589549+248650270+248841686
3868+247104531+246153214+247497450+248978561+247878924+244718033+241778379
3858+240975245+244373040+253579968+264158850+265579235+257623662+248106944
3848+241666419+239662538+241682618+246060592+250910895+255432191+259387835
3838+261499455+260431606+257201667+254000088+251741383+250020427+248554037
3828+247523844+246992495+247632969+251268826+258178083+264116060+265250654
3818+263607082+261339934+257327723+251524321+246796721+245693717+248702250
3808+253771185+257384229+259006986+261426217+265088909+266480736+264273538
3798+261226191+258589044+255482434+252138096+250002278+249502199+249926373
3788+250921562+252649650+254707126+256421346+258126027+260521546+262869398
3778+263466518+262132172+260671192+261277699+265031672+270828659+275915698
3768+278732785+279830563+279935040+279949578+281729539+286510520+292866957
3758+297783168+300604126+303810140+310287725+320548268+330354358+334662446
3748+335558004+338335074+344145228+348422870+348059514+346501827+347856258
3738+353693445+362939384+371985450+376979532+377271905+375839025+376255899
3728+379876045+385187857+389365135+391308334+392445824+394279822+396765160
3718+399333762+402770919+409297787+420083492+432196410+439919499+441899363
3708+441794824+442485267+445129515+449884926+455160957+458649500+460258846
3698+461668075+463960062+467305237+471738072+477346371+483187459+486435959
3688+485190761+481392229+477820696+475693899+475600454+477876927+482352095
3678+488684271+495348289+498719096+498381525+498685814+501372122+502535549
3668+498727234+492401488+487381866+485208286+485778433+488657969+493548548
3658+499686612+505255260+508830359+511945488+517840614+527665782+537548493
3648+541121641+537195743+530295767+525151186+523564881+524645804+526623748
3638+528501786+530479426+533288132+537321251+542686978+549507956+555939124
3628+557342928+552873124+547557442+546406968+551284686+560237947+568207936
3618+571618882+572228985+572745522+572540163+570253053+567519017+567206133
3608+569308426+570897474+570108162+568200987+567650742+569747793+574061368
3598+579508166+585270957+590244923+592788961+592897035+593220038+596121945
3588+600323057+602426325+601755145+599627616+596204661+591690604+587749589
3578+585901907+586384979+588839473+592689664+597265774+602404564+608012406
3568+612559806+613776295+611822550+609298201+608210024+608507609+608542658
3558+606845414+603825924+601222516+600532866+601816832+604067795+606750202
3548+609777372+612637220+614757556+616040851+616634619+616924279+617430209
3538+617929069+617542855+616449009+615925889+616493568+617728952+619285938
3528+620933686+622512555+624130496+625173383+624294039+622151515+621615961
3518+623795363+626269423+626072964+623160816+619924203+618415920+618493029
3508+618378128+617697194+618338934+621393961+625057446+626687517+625659929
3498+623295711+621455160+621716111+624802835+629958448+634851161+636835749
3488+635439930+633213775+632930027+634273669+634651288+632677367+629259777
3478+626699342+627297437+631232235+635322773+635773905+633037370+630927701
3468+630893566+630558128+628373423+626161471+625636096+626123557+626929998
3458+628956889+632692911+636757178+639388381+640207989+640108265+640081079
3448+640343919+640187630+638685687+636265876+635131068+636672023+638982052
3438+638457408+633935732+627815742+623138384+621253519+622104945+624877139
3428+627467625+627054895+623424509+619910549+618827492+619151287+620076043
3418+622974292+627821776+631491905+632017768+631162197+630931846+630688756
3408+628732573+625237874+622866279+624438808+629836050+635395798+637275360
3398+635230182+632268173+630990302+631123002+630732278+628777192+625709730
3388+622781064+621640891+623076698+625443294+626486181+627236299+630797805
3378+636974667+641717917+642827672+642333689+642156613+641358523+638528300
3368+634582713+632018195+632584044+636004682+640373848+643664469+645074734
3358+645145686+644995858+645009512+644426961+642927395+641825503+642742456
3348+645589808+648525850+649467125+647845587+645382133+644332541+645055899
3338+646025030+646317738+646740099+647812610+648670193+648689394+648186145
3328+647140881+645221271+643034311+642084564+643314218+646381132+650225472
3318+653056670+652814921+649070426+643882933+640249438+639657744+641254106
3308+643281302+645155074+647242433+648691100+647679423+644211300+640664118
3298+639135050+639703887+641378760+643676660+646667074+649762210+651839572
3288+652780847+653116955+652643453+651430622+650708483+650679895+649835783
3278+648042595+647266510+648287270+649387943+648588390+646006500+643700615
3268+643029861+643122635+642774397+642833341+645024446+649351370+654029154
3258+656952700+656908264+654798717+653359314+654039455+655037296+654021778
3248+651821164+651098720+652231943+653258616+653494087+654068104+655054973
3238+655072529+653772653+652511180+652330813+652811020+652782066+651742227
3228+650445216+649565507+648569250+647030369+645660334+645195731+645643022
3218+646734308+648129457+649407571+650426381+651464513+652861369+654645597
3208+656049645+655633563+653028753+650078691+648903835+649191789+648557059
3198+645283507+640394390+636762481+636330245+638626743+641452395+642846934
3188+642547521+641431426+640080531+638790774+638134162+638025173+637240981
3178+635236643+633298503+632693276+632999212+633097899+632473959+631205049
3168+629502806+627476707+624981068+621530318+617075510+613247994+612300380
3158+613993418+615246602+613894609+611189101+609796939+611066032+614138614
3148+616371291+615410877+611907034+609068704+609028351+610779541+611804568
3138+610999103+609430048+608459942+608104876+607535430+606250793+604292050
3128+602224624+601183504+601976413+603957222+605626792+606305531+606494006
3118+606656757+606298278+604514964+601342659+597994253+595586939+594387579
3108+594227815+594704425+595057358+594715946+593844161+592983409+592496374
3098+592447793+592418351+591614775+589866634+588036324+587109861+587485896
3088+588829903+590020729+590063154+589384841+588992227+588546094+586902613
3078+584231117+581963269+580950494+580676194+579972464+578287837+576485201
3068+576045590+577257812+578850944+579697371+579983862+580253102+580214335
3058+579147553+577063729+575039154+574447399+575683454+577432571+577699434
3048+575873208+573208418+571281615+570755265+571281128+571721592+571044925
3038+569602048+568621153+568262125+567447760+565911560+564902443+565183325
3028+565723879+565228981+564028585+563337716+563334546+563077436+561935008
3018+560283298+558940205+558440614+558696749+559059922+558795497+557670564
3008+556107483+554646258+553394050+552248087+551354053+551040559+551510099
2998+552685503+553989402+554322828+552994548+550563156+548097141+546036968
2988+544365508+543368765+543509450+544577268+545339516+544513082+542304848
2978+540349762+539907469+540753287+541850608+542402620+542179767+541566860
2968+541279211+541396246+541270494+540766698+540375424+539968486+538840870
2958+537029457+535401702+534535342+534273050+534174973+533934077+533511656
2948+533147081+533041506+532851325+531796308+529608982+527189720+525812919
2938+525784026+526351948+526806859+527025384+526969305+526365602+525114186
2928+523677405+522637992+521991133+521439668+521027792+520735877+520010933
2918+518583234+517192657+516646374+516630830+516224806+515251652+514433264
2908+514320801+514633868+514755474+514342440+513214581+511410665+509671849
2898+508998169+509397611+509717444+508892899+507060273+505353337+504623243
2888+504501911+504078453+503277346+502757945+502754897+502978268+503276157
2878+503585964+503673861+503484778+503269391+503030598+502321747+500861894
2868+499051578+497630828+496952180+496811464+496877936+496968882+496865166
2858+496230315+495003342+493599720+492483991+491809367+491565850+491674198
2848+491784192+491432418+490603668+489736241+489052351+488293669+487339258
2838+486577041+486180129+485574658+484265061+482697652+481669485+481391193
2828+481614290+482043752+482275535+481971824+481304606+480780450+480625318
2818+480585240+480266809+479562072+478754229+478088900+477331650+476176453
2808+474970692+474379333+474357450+474137949+473308071+472299563+471679707
2798+471434117+471123640+470498359+469699294+468849148+467835337+466748287
2788+466037607+465812438+465551274+464919958+464225919+463733064+463265566
2778+462717271+462175591+461479357+460364329+458998866+457833184+456988250
2768+456188301+455281893+454524612+454226754+454277682+454202341+453664196
2758+452789972+451985573+451457425+450972341+450188789+449145567+448258543
2748+447888726+447931730+447788332+446932548+445596983+444542057+444083580
2738+443841679+443491550+443138618+442805100+442226938+441448536+440982684
2728+441001520+440902863+440083987+438721145+437417399+436471065+435796288
2718+435243757+434764007+434363774+434000022+433593418+433156368+432793164
2708+432576894+432500487+432467236+432308843+431912236+431267297+430397035
2698+429461125+428802806+428555327+428386023+427927699+427210283+426438435
2688+425651164+424790290+423916341+423261984+423045196+423161530+423148333
2678+422642433+421827184+421191205+420880728+420582351+420062493+419467811
2668+418984617+418590113+418309992+418367809+418825371+419223319+418858835
2658+417545763+415870006+414494850+413520447+412759448+412273237+412256809
2648+412579325+412779167+412566158+412178268+412024112+412022466+411661092
2638+410730576+409597657+408783567+408621120+409122631+409841571+410090086
2628+409555293+408527310+407489756+406761034+406475305+406587676+406866334
2618+407062580+407102720+407038259+406871973+406547903+406100215+405682853
2608+405384842+405104234+404710583+404262256+403937576+403779610+403634628
2598+403348990+402923734+402471536+402115160+401928697+401898799+401922419
2588+401889991+401785513+401666772+401565951+401495152+401496066+401532091
2578+401400305+400948076+400304661+399726071+399301456+398922953+398485323
2568+398088442+397999874+398313825+398721891+398841790+398669561+398464354
2558+398384899+398479014+398741580+398936637+398702477+398059945+397460082
2548+397197943+397169630+397283769+397656511+398228121+398580078+398369812
2538+397755716+397250548+397187916+397396993+397508207+397475382+397511376
2528+397614086+397555142+397308669+397133148+397174445+397230219+397061647
2518+396829468+396924497+397335581+397599823+397499703+397321744+397298185
2508+397315618+397264842+397213700+397199650+397176700+397146863+397139152
2498+397115623+397025135+396911117+396895117+397056313+397361609+397707775
2488+397980581+398091611+398035319+397895304+397750200+397639322+397629417
2478+397769370+397980368+398157962+398345674+398632439+398936241+399061200
2468+398937399+398658040+398368380+398208981+398244914+398411963+398615615
2458+398829508+399014630+399057116+398892841+398601534+398325132+398189293
2448+398317269+398756636+399298347+399535068+399301913+398936241+398827100
2438+398864862+398707262+398418577+398369081+398629970+398943921+399175674
2428+399365825+399485663+399490204+399455917+399443573+399383075+399213009
2418+398992259+398840358+398897504+399273203+399875351+400388566+400580271
2408+400542479+400513007+400559851+400590603+400619770+400854022+401416062
2398+402053808+402315521+402102969+401882066+402181815+402972865+403699119
2388+403917522+403728408+403449719+403039337+402108333+400433277+398173810
2378+395606061+392881290+390022936+387032186+384066306+381455706+379369596
2368+377679484+376365375+375650764+375543238+375694591+375919455+376627575
2358+378551909+381918205+386076069+390334296+394579936+398425983+400708826
2348+400409687+397634324+393800743+390680645+388924854+388120912+388001774
2338+388725621+390182334+391598940+392136018+391775771+391333905+391548895
2328+392393067+393361985+394119265+394685725+395281503+396168131+397472243
2318+398969675+400145994+400672801+400804557+401132863+401915165+402853544
2308+403585376+404109958+404645787+405340619+406217250+407230421+408325822
2298+409463982+410531130+411305081+411648139+411656124+411559296+411611291
2288+412014877+412692793+413192384+413135086+412719980+412468965+412531109
2278+412580239+412369851+411987447+411531317+410973301+410397485+409977501
2268+409688725+409384984+409170756+409378401+410106575+411036176+411796199
2258+412298503+412621079+412843171+413138469+413706087+414444745+414986792
2248+415124520+414939307+414567784+414128721+413775423+413561622+413339561
2238+412929453+412295638+411528513+410799608+410338114+410285936+410543290
2228+410866598+411080552+411098777+410878576+410501109+410156436+409964487
2218+409974058+410309343+411045624+411961846+412659390+412955542+413066115
2208+413375556+414031680+414842845+415630024+416479286+417463687+418350680
2198+418861243+419072301+419296922+419664880+420096658+420620906+421357766
2188+422165913+422703846+422922432+423100056+423359422+423553077+423648899
2178+423882420+424451012+425225848+425843784+426058652+425941678+425747992
2168+425720623+425993978+426503840+427033848+427445632+427745320+427972501
2158+428241254+428751969+429540581+430410446+431243250+432127013+433121928
2148+434138756+435084968+436008200+437081473+438445992+440080208+441864801
2138+443716903+445617555+447596932+449697701+451874878+454001127+456037984
2128+458118730+460450277+463176388+466260461+469441970+472357531+474772435
2118+476770159+478695102+480760152+482774364+484473437+486000554+487858751
2108+490643533+494990084+501391536+509759168+519245820+528575908+536610205
2098+542797734+547178786+549912212+550897680+549922209+547004210+542414019
2088+536354192+528850878+520139366+510876878+501708383+492936373+484840846
2078+477922796+472558715+468691456+465964735+463925257+462148770+460453629
2068+458944036+457698015+456593289+455550219+454680445+454067355+453654808
2058+453409341+453339150+453348629+453311751+453287430+453500073+454137088
2048+455253061+456829461+458892925+461552504+464878265+468845917+473547565
2038+479350770+486706541+495881192+506832147+519048568+531424845+542606943
2028+551801283+559213225+565427208+570441527+573766953+575324731+575465355
2018+574207478+571355006+567296408+562859764+558423486+553640371+548026799
2008+541660914+535116796+528775233+522654999+516962550+512181325+508494586
1998+505695663+503694221+502571451+502136991+501872231+501366880+500605881
1988+499815624+499197383+498889314+499070718+499909465+501353744+503079698
1978+504722356+506126801+507392816+508739078+510325719+512179557+514196879
1968+516146295+517794105+519181390+520654623+522439643+524318961+525942937
1958+527379657+529073305+531245758+533583827+535636076+537408965+539375267
1948+541895593+544943915+548412647+552086982+555210950+556993348+557769616
1938+558738443+560668780+563462492+566565308+569387180+571643325+573492897
1928+575278161+577386793+580193793+583475087+586240758+587954521+589152113
1918+590220602+590838020+591101408+591754729+593040585+594423543+595402853
1908+595955232+596272200+596540831+596901626+597382138+597979563+598886032
1898+600393399+602355190+604002085+604820473+605357003+606368376+607514217
1888+607815216+607145620+606194227+605408023+604790361+604218965+603516270
1878+602594867+601749110+601502728+602141298+603615567+605621306+607223826
1868+606870345+604013606+600058998+596683162+594376363+592805784+591531205
1858+590091986+588234246+586359256+585105646+584521753+584155655+583821070
1848+583954684+585064135+586497808+586134208+582935082+578787062+575976832
1838+574931873+574527555+573728429+572969472+573462175+575028609+575560385
1828+573776523+570842492+567938147+564973517+562085142+560130178+559378841
1818+559064067+558466033+557896221+558200389+559466495+560636108+560674327
1808+559810466+559112953+559479722+561352579+564496479+567644342+569200779
1798+568998833+568739102+570408916+574397171+578329043+578821076+576063389
1788+573474549+573369401+575504184+578470582+581461545+584268605+586566687
1778+588473557+591152428+595902505+602474663+607984062+609194516+606688393
1768+603379486+601226539+601201974+603416364+606336253+607815033+607947611
1758+608403131+609586581+611197635+613992199+618819263+624688848+629103913
1748+630837609+630917704+630814751+631399009+633021217+635248956+636807222
1738+637628719+640212256+646627514+653970759+656245312+653627213+650163114
1728+647725627+646941618+648141953+650748835+654229758+659706303+668714180
1718+679616493+686276792+685239452+680510344+676730800+675547044+677137190
1708+681475269+687703089+693569322+698170911+703962473+713066782+722560475
1698+727736813+728341918+725170771+719535377+715154324+714587804+717367556
1688+722327259+730303709+741901280+751482199+751964418+746819716+742623724
1678+742143456+745700390+751808799+757904651+763015889+767340984+769379640
1668+768064647+766489680+768070682+772376637+776048839+777043571+777175723
1658+779444729+785991225+798099907+812863322+818943081+814248718+810394930
1648+812042312+815117943+813004251+806239230+800459005+798797115+801440754
1638+807108211+812742752+813185288+807309974+800811511+797813172+797920820
1628+798692333+798930181+799528703+800283880+798848379+794926138+791357013
1618+789965034+789304886+786638937+782044541+777743096+775181016+774133618
1608+773215324+771743554+770573940+770395707+770312259+768976663+766592756
1598+764722764+764443344+765588514+767423030+769334533+770826845+771331739
1588+770558031+768990500+767584623+766591476+765398699+764328626+765510796
1578+770507804+776799140+778645847+775884869+773946363+774976022+776171054
1568+774460034+771151920+769026891+769363304+773473836+783294798+796639597
1558+801672324+794289032+785040563+779280027+776443586+774839238+773659506
1548+773797388+776880393+783206108+791604919+801174684+809594463+809854743
1538+801209977+793643696+792970809+797455425+801389003+802052564+802466513
1528+805560552+811400512+819123753+828519247+838116441+844216316+845925203
1518+846481787+847235685+847192406+847078968+849543154+856273065+866763074
1508+877960411+883294442+879315756+873123960+870843068+872643388+876472915
1498+880211375+882692445+884369208+887101903+892660128+901038701+909374300
1488+913734811+913514762+911619900+911100681+913369383+918352675+925360360
1478+933381308+940936311+947070078+951810280+953924459+951638080+947254773
1468+945243608+947245934+950628597+950999511+948408477+947757107+952544427
1458+961178465+966198209+962320283+953955120+946910130+943636273+943885398
1448+945759230+947665369+949451913+951899579+955523870+959951066+964807266
1438+970365856+975605040+977558724+976158394+974723746+974996765+975963763
1428+976954045+979244874+983483473+988536682+993581844+999040102+1003309606
1418+1002041549+995480485+989898366+989271561+992040707+994766148+996228104
1408+997039178+997659400+998148323+998400435+998566966+999142263+1000031969
1398+1000270854+999589494+998783906+997800390+996047676+994366768+994032000
1388+994544270+993424274+989237670+984432245+983130907+986993838+994174758
1378+1001483075+1006683796+1009385952+1011247288+1014817267+1020589019
1370+1026114754+1029125223+1030357742+1031650120+1032774139+1032271866
1361+1030752490+1031063363+1034504543+1039227129+1042556639+1043803788
1352+1044281800+1045270742+1046941044+1048422871+1048444084+1047388945
1344+1047161337+1049103012+1053172765+1058220854+1062437509+1064753573
1335+1065854063+1066831058+1067938131+1068932558+1069211003+1067757215
1327+1064322862+1060497784+1059033024+1061742129+1067214711+1071397110
1318+1072275234+1072161004+1073093866+1073630274+1071955462+1068857461
1310+1066896036+1068191949+1071805024+1073741823+1071390283+1067190939
1301+1065258772+1066090814+1066863364+1064727362+1059214428+1052335237
1293+1046625782+1043584958+1042872510+1042444724+1040352733+1036395016
1284+1031067752+1024082255+1015721968+1007956058+1002147063+997457210+992840504
1274+988457440+984531481+980691896+976361680+970844662+963871965+956541034
1264+950474136+945866146+941482046+936313814+930065818+922634492+914542044
1254+907276823+901966626+898144474+894275813+888999142+881709660+872618152
1244+862692346+853182135+844939858+838251031+832982833+828655848+824616877
1234+820492447+816553200+813394000+811205699+809756421+809037878+809122119
1224+809130652+807514479+804176923+801167003+800571956+802864979+807355568
1214+812934213+818176139+821828226+823766244+825006505+826664372+829093325
1204+831907273+834958704+838981095+844400950+849807762+852964280+853553170
1194+853659111+855494602+859552774+864555328+868735045+871575387+874317103
1184+878460429+884292466+890882361+896735184+901078017+905340450+912404153
1174+923222347+934561466+941852899+944795524+947559367+952921986+959040330
1164+962713507+964003995+965881301+969371185+971088483+967845896+962014225
1154+958422120+958698675+961136649+963747921+965932138+968094899+970834482
1144+973864152+975534332+974528322+971632267+968889271+967538559+967679305
1134+969620310+974005873+980001270+984367084+984171661+981024591+980268621
1124+985491712+995267690+1004479463+1008034386+1004738951+998314183+993511136
1114+991714534+991363797+992360053+997176023+1006015480+1014240689+1017678761
1104+1017637067+1017216231+1016320551+1013059068+1007578013+1002954175
1095+1002142552+1004408450+1006112704+1004776255+1000945387+995814521+990572046
1085+986676199+985233932+985838671+986084748+983604043+978493354+972702462
1075+967852601+963975468+959700417+954020891+947854514+943430061+942413750
1065+944371091+946946887+948303390+948593781+948725689+948631696+947364005
1055+944784186+942454407+942747177+946746343+952196676+955290776+954714625
1045+951953037+948441941+944169755+940388139+940717664+947187539+956454965
1035+962061283+961173467+956555480+952041362+949258501+948093520+947754303
1025+947010280+945539608+944706956+945734543+948423045+951579502+954137072
1015+955839985+956652277+956016085+953316489+948315520+940765331+931340762
1005+922298262+915494291+910724464+906464164+901761328+896849170+891766277
995+885916746+879262298+872290638+865305873+859040687+854997388+853641190
985+852991527+850935925+848283692+847236599+847748930+847706078+845991035
975+842906261+838232318+831600058+824120456+817229013+811051664+805520748
965+801575039+800025185+800343739+801566201+803692449+807200437+811533151
955+815191089+817478077+819231218+821451704+824190677+827332383+831399210
945+836669907+842265193+846930907+850282056+853160434+857323144+864147353
935+873209298+882848918+892045575+900320584+906367855+909213439+910172390
925+911442581+913456488+914510226+912326862+906536153+900175023+897069098
915+897746252+899460442+899936992+899150849+897779046+896312823+895206603
905+895050253+896522571+899986792+904742965+908985283+911830623+914709916
895+918973080+923446907+926217699+927391214+928169371+928624343+927891536
885+926019411+924356363+924135765+925441675+927268815+928746132+930333290
875+932795160+935462145+936604328+935582105+933494380+931442924+930562605
865+932656059+937948274+943742884+946934878+946931038+945214593+943732644
855+944589434+948545809+953382016+955827550+954812093+951961632+950028490
845+950937824+953926227+955996336+955811580+954923946+954367240+953445349
835+952377287+953159773+956889272+961675740+965111373+968919993+976369909
825+985027415+987697447+983480060+980702563+985628740+995497614+1003790666
815+1008028230+1008719891+1005160641+998494611+993909053+993973727+994994548
805+993048850+989583104+988423061+990664515+993980859+994789311+991478393
795+985921570+981336927+979745135+981952943+987208036+991700210+989769811
785+979493328+965693985+954623679+948152037+944424915+941306860+937966378
776+934809311+932642893+931190751+928734977+924622799+920852033+919818106
766+922634310+928101893+932884642+934825830+935577777+938497849+944168292
756+949445512+951453995+950762699+948968231+946311731+944081797+945980803
746+954087149+964349551+969268353+966548947+961611615+960525205+964239649
736+970412975+977321729+982535555+982009144+976029960+970989553+971288295
726+974045494+973791127+969961112+966904500+967875764+971221610+972599874
716+970879467+969795618+973236371+980803444+986387697+983515780+974534174
706+967160147+964078421+961851779+957969769+954291289+952040143+948360444
696+941891057+936377208+935918762+939306240+941978284+942797404+943710822
686+944948035+944536281+940856460+935662688+933221360+934906048+938111208
676+939997841+940013750+937925111+932870440+925663370+920487458+922493198
666+929055786+931400864+927956880+925504215+927339097+930706521+933921922
656+938172834+943946414+945688766+938894547+928959720+923739676+926752461
646+935238926+941073522+938110233+927685080+915770541+906129946+898913671
636+892830437+888058599+887652453+894497996+903976084+904121646+890216362
626+872150989+859844202+854726990+855412373+861007537+869495281+878821346
616+887524751+891116979+885908517+878748444+878833842+886189095+897860483
606+911198820+916714436+915423948+915363846+913998017
##END=
