##TITLE=<SNM>
##JCAMP-DX=4.24
##DATA TYPE=INFRARED SPECTRUM
##DATE=29/4/2025
##SAMPLING PROCEDURE=Instrument type and / or accessory
##ORIGIN=Admin
##XUNITS=1/CM
##YUNITS=ABSORBANCE
##RESOLUTION=4
##FIRSTX=4497.3318
##LASTX=599.83466
##DELTAX=-1.4281778
##MAXY=2.1930299
##MINY=0.62688315
##XFACTOR=1
##YFACTOR=2.0424182e-09
##NPOINTS=2730
##FIRSTY=0.64725339
##XYDATA=(X++(Y..Y))
4497+316905413+317783511+317035016+315128408+313242200+312174818+311942285
4487+311960875+312000272+312622111+314102029+315620848+316242308+315790754
4477+314323706+312133056+310359992+310168257+311450516+313157130+314543544
4467+315417353+315696929+315668446+316127355+317235068+317685251+316190420
4457+313512467+311769986+312068444+313815886+315828780+317030814+316574211
4447+314674111+312836230+312252533+312584144+312811716+312708261+312880501
4437+313732714+314847723+315247797+314297587+312564883+311414124+311558173
4427+312515504+313508410+314290408+314978610+315566246+315799275+315367332
4417+314526443+314390740+315716045+317645007+318591774+318010937+316453683
4407+314553000+312819070+311785512+311653544+312091674+312671344+313268727
4397+313920246+314459876+314454652+313542496+311865328+310116077+309125272
4387+309414684+310772499+312129584+312390541+311520527+310399389+309803290
4377+309975384+310812275+311800366+312252387+312241035+312555398+313477972
4367+314557903+315525565+316566098+317721701+318421080+317779542+315741901
4357+313852920+313871276+315510097+316724038+316337096+315105266+314088225
4347+313478147+313128618+313009608+313106205+313416862+313760438+313572380
4337+312475115+310969165+309916463+309567780+309725166+310292403+311062114
4327+311541685+311399737+310751136+309835829+308812252+307985720+307938648
4317+309081293+310954428+312264673+312076616+310866177+309953409+310238560
4307+311625032+313219436+314045647+313856918+313199942+312619280+312174351
4297+311809004+311652027+311725540+311679722+311199772+310610560+310616309
4287+311371546+312153601+312123105+311228868+310104608+309307085+309088268
4277+309583451+310580705+311362995+311503746+311529398+312009290+312408431
4267+311752739+310169074+309052314+309767657+312290588+314997171+316006507
4257+314921732+312991923+311691745+311504884+311794004+311621005+310831011
4247+310097779+309832269+309702228+309338574+308857077+308565185+308738184
4237+309621944+311078924+312313672+312461982+311581812+310736311+310952093
4227+312295141+314006745+315253342+315645246+315307623+314552358+313480277
4217+312207620+311408842+311915348+313630513+315335085+315757456+314667515
4207+312936475+311692533+311431605+311865678+312444443+312779118+312626197
4197+311960291+311209198+310909310+311051346+311295669+311693788+312496273
4187+313429819+313902211+313722558+313017750+311913160+310843589+310508506
4177+311067280+311964114+312717337+313390947+314292830+315491829+316548879
4167+316826238+316274206+315485350+314779784+313833892+312448966+311204121
4157+310990382+311995836+313300537+313579151+312429092+310923143+310550442
4147+311681560+313263591+313955003+313360013+312105361+310940420+310117799
4137+309565562+309368603+309779476+310762605+311955709+313102499+314085628
4127+314660395+314829016+315155023+315906583+316385394+315868790+314692700
4117+313845420+313980568+314964252+316026351+316431329+316061897+315296534
4107+314627388+314430050+314613847+314582037+314042349+313462155+313237180
4097+313057819+312649135+312447536+313004501+314183684+315131210+314973882
4087+313797238+312713309+312496127+312685614+312666032+312826774+313652022
4077+314443912+314041328+312242786+309826841+307768946+306931821+307898083
4067+310378027+312922933+313956842+313396813+312598969+312471992+312503393
4057+312009406+311362003+311339794+312038152+312890365+313306841+313052420
4047+312355609+311767593+311651472+311824851+311921886+311870727+311780259
4037+311590392+311240483+311045918+311340173+311830162+311909687+311548455
4027+311207710+311123779+311240220+311431313+311486499+311351584+311324998
4017+311546004+311670733+311504155+311411439+311645110+311777253+311314521
4007+310514868+310044549+310100318+310422765+310821673+311181854+311390748
3997+311551373+311838100+312195917+312567159+313042965+313474382+313536660
3987+313274564+312830014+311993589+310812392+309977339+309960355+310510957
3977+311322167+312298497+313064881+313130573+312640730+312319013+312689817
3967+313745146+315157241+316429286+317059822+316915948+316297494+315468278
3957+314413357+313220312+312369150+312385026+313263766+314353473+314899114
3947+314771116+314586415+314960341+315648106+315655110+314508203+313040192
3937+312473276+313190020+314622602+315877487+316236413+315647493+314936878
3927+314962851+315613261+316067004+316001545+316020456+316786899+318207545
3917+319384277+319356203+318200950+316986192+316364090+315844451+314968337
3907+314686017+316658638+321055609+325623915+327935355+327685545+325737380
3897+322869326+320160847+318870095+319281844+320047849+319543035+318397121
3887+318711367+320911501+322909657+323126169+322612308+322507569+322247312
3878+321459302+321163675+322203216+324257666+326573892+328304437+328437921
3868+327185867+325913122+324930606+323404987+321290710+319736608+319542072
3858+320687344+323315890+327680963+331637236+331121741+326684789+321865214
3848+318775308+317911042+318770230+320555056+322983871+326291747+329964270
3838+331982562+330916757+328045551+325563126+324348835+323936591+323817698
3828+324175632+325205542+326853439+329399426+332663469+334668045+334007772
3818+332172546+330512392+328511113+325866867+323597830+322689089+323320501
3808+324746050+325649596+325969796+327061575+329137359+330552957+330688864
3798+330799440+331130466+330662803+329341701+328290983+328171419+328801546
3788+330016362+331913135+334198310+336362081+338655165+341551818+344292545
3778+345757988+346641631+348755470+353140943+359679797+367111838+373413695
3768+377626373+380363393+382024569+382786722+383799414+386058878+388531439
3758+389375013+389050903+389940529+393815847+400713365+408618118+414970491
3748+419909193+425077626+429970772+431352955+429446405+428964821+433167110
3738+442161482+452921215+460882322+464099234+464587180+464941028+466043663
3728+467562628+468730985+468702823+467168799+464863429+462906830+461533636
3718+460132747+458706527+458808581+462181303+468009251+472381707+472717024
3708+470283190+467331700+465614755+466391821+469401297+472523130+473793599
3698+472755867+470287421+468372204+469081710+473149638+479475250+485168926
3688+487152373+485570401+483307348+482285871+482114653+481870154+482159186
3678+484149200+486989092+488424506+488659928+489373228+489956837+487999362
3668+483391483+478821105+476260907+475942107+477178928+479294080+481910048
3658+484357832+485591939+485631803+485856486+487185205+489224976+490738367
3648+490483596+488108391+484452416+480843162+478304384+477272782+477532309
3638+478478434+479892602+482320366+486308624+491650698+496976137+499210183
3628+496162447+490739476+487368710+487373233+489224714+490658872+490933779
3618+491375674+493445183+496914035+500090762+501634737+502142411+503123439
3608+504751579+505458050+504078611+501879994+501517887+504189099+508525572
3598+512510561+515250062+516411152+515784293+514210784+513624432+515287534
3588+518042444+519233125+518243517+516829116+515949705+515265821+514784821
3578+514731766+514510906+513579431+512781733+513614510+516662946+520931831
3568+523975248+523767637+521418084+519834361+520180418+521413473+522182397
3558+521964105+520751711+518944735+517465080+517171437+518304102+520684298
3548+523825362+526609339+527830429+527365363+525896155+524044062+522556119
3538+522204985+522804469+523077217+522275200+521112593+520269252+519250285
3528+517565529+515757269+514523630+514024244+514209267+514758848+515153115
3518+515467829+516291734+517732400+519361999+520640114+520571825+518337605
3508+515070993+513027457+512767842+512691673+511577044+510261457+510097622
3498+511293089+513364467+515789021+517600199+517753645+516506115+515352029
3488+515463335+516880187+518821231+520083645+519660545+517430410+514077591
3478+510685492+508418995+507828440+508271035+508673941+508799838+509033888
3468+509508877+510310252+511781211+513597817+514214753+512554628+509353738
3458+505731907+502125718+499203762+498079210+499093683+501452166+504025438
3448+505657081+505319371+503080072+500295921+498208609+496939950+495955070
3438+494879896+493698787+492701649+492436781+493257009+494726275+495840379
3428+496097660+495968436+495986296+495945614+495357511+494336326+493434327
3418+492579838+491001426+488605326+486755158+486979812+489226727+491859125
3408+493291270+493357341+492919532+492466081+491726283+490667452+489992440
3398+490181198+490726577+490856268+490621809+490762181+491633304+492698206
3388+493052142+492382208+491290633+490442331+489981526+489994016+490669611
3378+491779396+492955078+494431172+496363929+497894129+498214154+497981913
3368+498394449+499610520+501076050+502360352+502840419+501799098+499701105
3358+498364974+499236681+501927096+504645994+506152848+506931927+507951244
3348+509040425+509345216+508753436+507965076+507585693+507734294+508072763
3338+507973481+507182612+506211156+505619551+505361044+505315810+505792316
3328+506797275+507416021+506665950+504733193+502935089+502588391+503760453
3318+504880103+504240520+502210466+500876495+501241462+501917173+501156480
3308+499306021+498261957+499127127+501173523+502682186+502494304+500882857
3298+499029888+498031641+498600484+501005310+504534513+507552132+508749934
3288+508112628+506710950+505939225+506603439+508230120+509580493+510112972
3278+510203733+509927308+508923400+507388997+506020122+505143570+504782280
3268+505148473+506222538+507185939+507048835+505788231+504276124+503228908
3258+502730631+502540180+502578352+503071376+504147892+505399917+506179930
3248+506224580+505711187+505187403+505421512+506523068+507502170+507329229
3238+506094481+504815140+504360055+504837086+505686322+506029227+505233338
3228+503467161+501661644+500726083+500677639+500822972+500766240+500600070
3218+500266445+499569488+498741556+498435014+499145045+500504115+501096129
3208+499779608+497291493+495355060+494454928+493855034+493284850+493141268
3198+493339014+493173719+492281584+491130709+490485756+490515698+490604999
3188+490165264+489277039+488280019+487267443+486372156+485948384+485920339
3178+485438201+483852084+481664995+479858049+478701191+477829454+477069724
3168+476601885+476534792+476688385+476697782+476292833+475580555+474912722
3158+474365272+473560540+472183202+470570150+469501075+469323611+469590026
3148+469690942+469377542+468506477+467036511+465534472+464853916+465029424
3138+465185526+464771852+464268439+464308449+464583765+464270394+463353569
3128+462596057+462147713+461272679+459697010+458272687+457970172+458793464
3118+459876167+460389940+460239441+459845962+459469380+459050715+458533206
3108+457964364+457352506+456666142+455964049+455394506+455045560+454922611
3098+454982320+454913214+454186373+452864395+451805973+451438379+451228989
3088+450925919+451068072+451592292+451396910+450106946+448949943+449052639
3078+449942148+450385735+449906894+448891868+447862133+447187471+447000464
3068+447029823+446961709+447002420+447480502+447988117+447651341+446287719
3058+444722673+443922553+444104424+444747742+445302868+445529652+445167078
3048+443969567+442347439+441252537+441090540+441354767+441441295+441182380
3038+440623344+440043441+440095329+441107204+442315600+442516177+441409573
3028+439745537+438388861+437694297+437506531+437445158+437312812+437232178
3018+437302510+437385245+437343950+437204074+436905383+436088219+434512988
3008+432780664+432058959+432681995+433503186+433163725+431630664+430024207
2998+429332065+429668345+430525169+431406273+432057850+432226121+431655470
2988+430432862+429027040+427963919+427537813+427633155+427769850+427552726
2978+427023660+426388047+425692374+425022674+424643728+424601412+424463345
2968+423745872+422495190+421388323+421260762+422319593+423689110+424085829
2958+423164569+421757580+420732952+420201143+419826371+419396704+419016123
2948+418918797+419089315+419201438+419104637+419091271+419405663+419829902
2938+419968815+419602417+418776295+417941650+417721111+418091624+418269992
2928+417835394+417304023+417113981+416825182+415873571+414554161+413735043
2918+413863362+414533179+414917845+414527575+413582063+412719899+412347782
2908+412222731+411869817+411453429+411676302+412634976+413470612+413364093
2898+412263763+410651061+409215035+408521084+408508447+408581989+408344874
2888+407908729+407563285+407466688+407525405+407494529+407329147+407235673
2878+407269030+407264535+407203892+407170711+406961641+406277204+405349523
2868+404873805+405192604+405917373+406397527+406323780+405882002+405420380
2858+405004429+404415567+403617636+402979804+402902059+403413556+404171945
2848+404693831+404685718+404249426+403631848+402874890+401943590+400975957
2838+400159436+399531701+399013142+398551315+398218742+398133876+398230298
2828+398239345+398020791+397774629+397884300+398600227+399734438+400620941
2818+400596865+399579270+398054410+396593987+395517120+394894260+394659334
2808+394654051+394682097+394658896+394656532+394689247+394608584+394341935
2798+394039041+393867735+393823405+393810769+393746711+393538342+393152596
2788+392758212+392553899+392408887+392039046+391573134+391394853+391381633
2778+390998513+390212839+389567128+389300888+389091730+388642861+387980399
2768+387291817+386869971+386940303+387247429+387235464+386846771+386583770
2758+386672604+386822140+386828035+386711039+386318260+385481310+384446701
2748+383615588+383081678+382768949+382697859+382857871+383062301+383062826
2738+382727363+382154581+381629134+381349762+381244410+381128319+380921642
2728+380634244+380268489+379872237+379646796+379819240+380313344+380723545
2718+380771581+380584895+380306427+379701223+378519880+377120041+376354912
2708+376749763+377896436+378766596+378678638+377884821+377096928+376630053
2698+376296166+376021404+376082689+376536870+376846097+376436363+375409137
2688+374433946+374073123+374352466+374836880+375037633+374821034+374412408
2678+374039649+373704449+373276504+372698878+372133946+371903018+372129948
2668+372499701+372608701+372468796+372378678+372405702+372312402+371959721
2658+371508517+371179125+371023519+371013013+371133744+371237316+371030406
2648+370436962+369751387+369257400+368920098+368570919+368200057+367982232
2638+368093800+368498632+368925526+369126921+369079294+368863774+368549265
2628+368282062+368276459+368594587+369026997+369251125+369129256+368844134
2618+368649481+368541123+368389340+368325254+368627769+369199909+369536247
2608+369321341+368731924+368027175+367215323+366321932+365609654+365241564
2598+365014546+364711827+364484197+364617623+365100054+365639333+366010283
2588+366222738+366377848+366507684+366610964+366714915+366795316+366734206
2578+366473598+366140178+365926643+365882927+365884503+365819745+365738352
2568+365719062+365682028+365534302+365404903+365483903+365683721+365684422
2558+365329231+364868542+364750700+365138722+365690608+365929212+365753469
2548+365440536+365248743+365184773+365106036+364934321+364738063+364614909
2538+364553099+364476113+364399419+364460413+364756536+365179199+365441120
2528+365309911+364857598+364420752+364232345+364178676+364070377+364009821
2518+364188570+364466366+364546504+364447455+364410976+364471035+364480637
2508+364451804+364575862+364956968+365485800+365937179+366129731+366028231
2498+365756008+365534652+365543641+365745094+365887567+365778304+365496451
2488+365256243+365163849+365200036+365314114+365421567+365404436+365212906
2478+364922473+364671029+364600113+364801683+365206631+365580237+365739870
2468+365738907+365766573+365916750+366097191+366140587+365977656+365655939
2458+365240397+364844641+364685942+364868367+365168226+365259482+365088818
2448+364881733+364890955+365210221+365694577+366046412+366095936+365951391
2438+365788022+365622173+365417802+365283530+365375107+365652086+365922149
2428+366144147+366503453+367105856+367728191+367993410+367779787+367362845
2418+367096313+367048073+367055427+367015417+366950980+366904812+366933207
2408+367117004+367486670+367980657+368475052+368845622+369084780+369335173
2398+369676736+369998803+370273331+370802280+372025997+374283943+377910415
2388+383329941+390916421+400931744+413645187+429300722+447869925+468923741
2378+491764746+515624719+539760765+563497876+586197634+607187188+625775185
2368+641492997+654231012+663755822+669716000+671934403+669670474+661484714
2358+646987992+628105535+607172830+584582918+561027153+540469921+527702373
2348+525283480+533176822+548263690+564499566+576808177+584072209+587583143
2338+589458058+591612841+594532346+597369728+598970961+598577511+596267122
2328+592857045+589094258+584966212+579860349+573335064+565581568+557132808
2318+548428751+539927286+532332197+526051703+520385402+513892160+505751985
2308+496320737+486533919+477300477+469135670+461921045+455223900+448890584
2298+442999687+437441540+432023443+426834231+422158822+418137996+414652860
2288+411465452+408459623+405740492+403497342+401908015+401121728+401014829
2278+401010306+400533099+399579562+398481392+397352579+396167793+395085440
2268+394306798+393828892+393545346+393388340+393254096+392978634+392511175
2258+392032743+391778643+391697572+391391292+390568818+389510483+388830860
2248+388793768+389114902+389424888+389626428+389757812+389835323+389931307
2238+390138100+390382861+390513136+390562310+390681524+390845067+390862490
2228+390620997+390129258+389468283+388831882+388405950+388123368+387742934
2218+387177885+386563283+386064131+385766723+385654105+385602100+385491495
2208+385331453+385224496+385266929+385471154+385698726+385770721+385748075
2198+385915004+386358620+386808511+387057475+387290708+387774773+388418032
2188+388899179+389128326+389333982+389723200+390261896+390790407+391207233
2178+391500672+391676326+391732213+391729002+391808177+392060379+392424267
2168+392781559+393088101+393367970+393635085+393864466+394039625+394217848
2158+394487414+394819317+395032618+394977753+394736378+394590227+394760191
2148+395188165+395627054+395906193+396017732+396037635+396100992+396333000
2138+396673482+396918739+397023420+397180718+397561882+398177535+398974532
2128+399830568+400504383+400873202+401198422+401889951+403013190+404251440
2118+405316954+406164877+406838371+407349196+407738940+408130639+408686320
2108+409479115+410371572+411105329+411551310+411743832+411674172+411284574
2098+410693931+410207036+410056304+410266191+410739603+411354147+411984216
2088+412503884+412803743+412849503+412735804+412618691+412576901+412554663
2078+412416509+412095025+411744241+411644901+411881549+412284367+412738956
2068+413265103+413722990+413851659+413761191+413956107+414641770+415386996
2058+415725261+415772129+415936694+416325592+416777905+417224002+417680459
2048+418119435+418606652+419346041+420400903+421551691+422526766+423255446
2038+423898851+424713563+425800585+426947288+427849988+428493247+429150574
2028+430053770+431247603+432669767+434143877+435444376+436619094+438037960
2018+439876804+441803548+443383507+444507212+445316584+446109876+447318767
2008+449113632+451096000+452778742+454174758+455579879+457067997+458518440
1998+459899397+461297659+462846946+464650537+466551191+468093532+469019608
1988+469623383+470351741+471306738+472353020+473474303+474757934+476152374
1978+477565549+479211316+481440108+484046913+486249586+487718122+489075966
1968+490956484+493137123+495067136+496763566+498667664+500978520+503554886
1958+506247110+508935890+511372818+513422075+515396621+517700181+520241819
1948+522710207+525265911+528310087+531575414+534119562+535542368+536616491
1938+538254787+540485739+542770154+544860267+546996198+549491960+552411697
1928+555541789+558625245+561613272+564509430+567173754+569613484+572038038
1918+574267940+575717944+576355951+576940961+578078295+579611531+581034045
1908+582207275+583422004+584885666+586498222+588138970+589840302+591554183
1898+593006873+593961110+594553649+595281541+596517223+598016898+599095749
1888+599406435+599300441+599367213+600006562+601305339+602933479+604268443
1878+604851293+604707010+604277840+604215504+605080849+606911639+608911809
1868+609834178+609215140+607822919+606577548+605758312+605216260+604763451
1858+604207041+603333758+602137590+600907044+599917378+599182132+598716949
1848+598879442+599826267+600583984+599638326+597122136+594671083+592975471
1838+591433655+589513507+587578416+586578418+587198448+588994101+590336944
1828+590057368+588592888+586688615+584436009+581868748+579316137+577049990
1818+575191476+573875423+573264790+573441933+574192705+574806548+574502107
1808+573367633+572410476+572501178+573562928+574715087+575075969+574580260
1798+574038908+574401483+576119099+578737956+580540671+579821126+577439705
1788+575909271+576454474+578359098+580386758+582158831+583758138+585011972
1778+586055044+587759236+590902168+595075565+598448520+599543363+599157384
1768+598729731+598570740+598675625+599478051+601053078+602619641+603727091
1758+604874056+606369645+608012085+610019259+612991118+616602560+619202098
1748+619806777+619435156+619506422+620465971+622122711+624140216+625936452
1738+627350795+629461103+633295272+637457404+639056536+638216288+636871811
1728+635942204+635919499+637208645+639462418+641969445+644807761+648492570
1718+652353938+654276889+653477614+651684296+650510249+650385578+651317987
1708+653388839+656337993+659209578+661545240+664215810+667735908+670722125
1698+671994345+672187481+671501205+669897112+668640651+669001182+671043201
1688+674447149+679605134+686395988+691566930+691978533+689966981+688895426
1678+689881883+692407178+694811012+695811184+696275433+697595631+699207136
1668+699283188+698095600+697947465+700077793+703223235+705223054+706098789
1658+707575876+710865600+716278065+722486009+725334948+724227322+723662332
1648+725311076+726727870+724975059+721521265+719422864+719560668+721810881
1638+726422787+732715947+736804829+735624946+732309306+730901909+732507228
1628+736456963+741828921+748040426+754252398+759117207+762344538+765398461
1618+769504210+773574415+775273412+775015314+775247322+777314205+780938896
1608+784726197+787116432+787703601+787514610+787740956+788539063+789205786
1598+789230358+788982650+789315632+790566315+792182198+793289006+793512492
1588+793434164+794012520+795290110+796327345+796922511+798139516+800470741
1578+802981854+804457540+804813985+805399754+807692750+811927140+815832400
1568+815844715+812045508+808174509+807452687+811233509+819742563+830363266
1558+834858147+831229954+827309810+826691473+827932350+828968243+829588097
1548+830769674+832910215+835206246+836493816+837225210+839417698+842237162
1538+842212414+840250066+839273824+839660329+839865721+839754591+840970895
1528+844098944+847886595+850826469+852538482+853391162+854233628+856153543
1518+858863978+860865490+862072572+864466367+869347578+875741770+882055534
1508+887480664+890529917+889713892+887451014+886995111+888976370+891908365
1498+893592712+893251733+892594641+893795536+897365013+902383385+907343448
1488+910984482+913252439+914770674+915936199+917074059+918693794+921645342
1478+926638266+933132324+939139488+942698224+943397516+942240746+940776908
1468+940692276+942859316+945526326+945336226+942854764+942431547+946027638
1458+950838225+952058848+949592270+946553931+943575418+940323807+937230195
1448+934815971+932858701+931118555+930042448+930190174+931854443+935086093
1438+939215248+942067221+942009847+941253356+942794004+946237175+947971542
1428+945387647+940412583+936836044+936172648+937252783+938649499+939585059
1418+938927441+936465882+934295632+934537854+937003323+939398344+939782280
1408+938184316+935651199+933179135+931837050+932621499+935637133+939979852
1398+944271967+946741522+945393425+940475619+935769859+934689024+937111652
1388+940393147+942007337+941712235+941251371+942502404+946293557+951902542
1378+957393568+961323517+964037746+966335644+967660452+967356653+966883941
1368+968270326+971198527+973998263+976048103+977359428+977417036+976170614
1358+975261844+976693347+980723103+985445089+988332959+988471871+987681469
1348+988842850+992449331+995979935+997828176+1000008524+1005240285+1012721617
1338+1018340232+1019675663+1019065030+1020307308+1024410606+1029321350
1330+1032450158+1032750746+1031126634+1029483727+1028889203+1028768851
1321+1028645113+1029612484+1032583467+1036823461+1042164367+1049961346
1312+1059879840+1068423563+1072826633+1073741823+1072704529+1070524415
1304+1068079549+1065734140+1062705140+1059229401+1057457970+1058649469
1295+1061301186+1063271064+1063753173+1061690376+1055558716+1046647750
1287+1038897698+1035054715+1035425460+1038619989+1042137052+1043344309
1278+1040534885+1034235363+1028111758+1025976236+1027131897+1026474104
1270+1020654123+1012202736+1005415619+1001849294+1000774646+1000426313
1261+999211001+997859344+998838504+1001678747+1001848127+997037307+990656422
1251+986187864+982477140+976586069+968663134+961208126+955062400+948724940
1241+941082691+933146683+926542661+921536021+916989953+911443770+904337503
1231+896746150+890547194+886353018+882828368+878112277+871854779+865742556
1221+861484469+858800008+856037685+852663446+850088772+849863243+851954932
1211+854948562+857353446+858516054+858643001+858342821+858230290+858853705
1201+860849030+864756041+870357381+876325088+880983921+883937803+886623723
1191+890900021+896946406+902378132+904696167+904623909+904919419+906783069
1181+909913044+914192493+919123374+923531055+927472619+932565000+939193944
1171+944968749+947583520+947765099+947679825+949148858+953067600+957870424
1161+961089583+963504099+967706329+972741102+974709520+973259573+972619290
1151+975818196+981863940+988188793+993565537+997313965+998337835+996692359
1141+994220178+992353960+990773972+989498192+990196492+993671064+998171489
1131+1001369870+1002481523+1002581913+1004229957+1009084785+1015433569
1123+1020382251+1023617519+1026577297+1029473454+1030350706+1027321239
1114+1022335202+1019544338+1020679338+1023958731+1027107033+1029083914
1105+1029560537+1028553011+1026317448+1024597613+1026731268+1033957420
1097+1042831733+1047767924+1046538954+1042007477+1038252395+1036544701
1088+1036253801+1037136423+1038045894+1035928582+1029858091+1022925990
1080+1016932893+1012158845+1012250831+1020422991+1031459324+1035679939
1071+1032946392+1030876123+1030421797+1026121219+1017368776+1008896728
1063+1003665317+1001717969+1001141773+999250690+994835947+989600100+986429152
1053+986197086+987780226+990353148+993776591+997530623+1000894998+1004008980
1043+1007136504+1009569112+1010427921+1009381522+1006441472+1002258795
1034+998308885+995366034+992679763+988709657+983610506+980066711+980296793
1024+983598249+986980134+988177936+987173912+984913135+982380952+981208948
1014+983103999+987421504+990594203+989418346+984185418+977748618+972046012
1004+967027815+961783681+955591028+948820778+942809179+938257274+934551337
994+931020966+927848676+925508286+923714034+920824997+914935677+906452889
984+898456237+893560552+891615305+890782820+889791928+888315950+886229456
974+883896012+882486572+882357990+881599748+877953811+872029004+866905747
964+864522516+864136654+864264418+864262901+863835423+862976556+862599274
954+863615030+865957229+869326741+873505741+877557268+880514302+882971133
944+886230915+890117323+892772659+893210877+893343661+896209118+902570917
934+909896993+914687093+916188811+917505739+921964024+929435726+936978109
924+942297186+945309260+946291689+944834038+941634490+939443461+939911446
914+940956152+939704594+937217004+936430162+937216303+937044705+934751768
904+931438172+929062762+929180955+931641580+934781652+937644365+941060570
894+945909796+950862564+953474242+953361827+952563312+952896761+954244449
884+955341102+955715057+956712253+959550803+962889263+964036987+962746732
874+961847884+962888738+964913480+967680472+971127845+973127023+971937567
864+968701773+966844835+969239097+975020381+979828341+980316637+978142827
854+977261022+978686162+980254652+979933752+978089888+977616592+981733898
844+990140109+997470855+997779732+991958000+986657016+985612485+986365533
834+985072476+981812227+979436233+979968188+983690818+990038551+998283437
824+1006414857+1010309319+1008272087+1004370621+1003320953+1006312132
815+1012082384+1018550586+1023872232+1027864983+1031284107+1034670195
807+1038418974+1041116217+1040053242+1034186918+1026665897+1021930721
798+1020593655+1019724341+1016870324+1012263554+1008927895+1008985328
790+1009909040+1008072939+1003467454+999039286+997920162+1000272692+1001426019
780+997117503+990326183+986840404+987286326+988747129+989758624+988981180
770+984471298+978295339+975876271+978421644+980916881+979059535+974748334
760+972568511+974976139+981805339+990311941+996703566+999990547+1002447903
750+1005430677+1007253120+1007114091+1007311487+1009429032+1010605939
741+1006441939+998258923+993276738+996044138+1003198266+1009404168+1014533087
731+1020601943+1026733486+1030971378+1032617320+1030219965+1022943617
723+1015446643+1014893093+1022555361+1031223289+1032068556+1024389128
714+1014854220+1009157977+1009156926+1013934828+1020023762+1022057727
706+1014999554+1000801845+989372937+985747896+985146485+981371908+975985884
696+976356162+987478936+1006668286+1023207551+1026927263+1018688682+1005946406
686+992584742+979952662+971253684+969392427+973504480+979951962+983994092
676+981358250+971822409+959533584+948117517+939465116+938794715+951658511
666+969755701+981524362+986911378+988489498+986469776+981600589+976022888
656+971314210+965362320+958028306+956010918+965515066+981457474+987160954
646+976629144+961945765+950769177+942513260+936734253+936093211+942534972
636+951688745+953566286+944192588+932960201+932365210+946216104+963760095
626+968461652+960285173+946947965+936494015+932535349+927021210+914632812
616+903699263+904176236+916448718+933315012+947294430+952731233+944253523
606+922196674+903683270+906666569+927505421+939313070
##END=
