##TITLE=<SNM>
##JCAMP-DX=4.24
##DATA TYPE=INFRARED SPECTRUM
##DATE=29/4/2025
##SAMPLING PROCEDURE=Instrument type and / or accessory
##ORIGIN=Admin
##XUNITS=1/CM
##YUNITS=ABSORBANCE
##RESOLUTION=4
##FIRSTX=4497.3318
##LASTX=599.83466
##DELTAX=-1.4281778
##MAXY=2.2203283
##MINY=0.52379042
##XFACTOR=1
##YFACTOR=2.0678419e-09
##NPOINTS=2730
##FIRSTY=0.53714001
##XYDATA=(X++(Y..Y))
4497+259758743+259698442+259531720+258427422+256761708+255966640+256962731
4487+259008007+260500918+260861426+260815394+260879240+260766161+260194685
4477+259235000+258129030+257618317+258799058+261632512+264402841+265548820
4467+265246190+264483406+263477919+261814597+259579540+257668155+256992708
4457+257519103+258209336+258127906+257406399+256974837+257597707+259042308
4447+260159923+260068463+259081942+258075129+257317014+256583256+256019995
4437+256017256+256448674+256799814+256943101+257237948+257893073+258648305
4427+259191619+259619462+260114005+260391471+260114841+259592511+259475512
4417+259878307+260234492+260172000+260000523+260160989+260631060+260852779
4407+260224231+258892910+257827526+257721480+258163015+258284337+257863700
4397+257333213+257045054+257022628+257218405+257583987+258003355+258448436
4387+259059026+259813250+260249020+259944459+259268898+258985985+258968632
4377+258236892+256589712+255135340+254776964+255144766+255383462+255253059
4367+255169814+255633774+256662321+257610621+257807118+257364574+256988558
4357+257095324+257555047+258176159+258969440+259802527+260127178+259396331
4347+257715167+255816724+254491889+254279452+255149003+256150628+256140078
4337+255112684+254165451+254060011+254473528+254714703+254565709+254293259
4327+254243883+254528554+254870961+254784574+254129017+253424948+253302933
4317+253690163+253944712+253754643+253495309+253721437+254595571+255759939
4307+256585677+256706826+256434838+256316052+256285815+255810728+254926737
4297+254439774+254805414+255555054+256203780+256924510+257943833+258935225
4287+259260452+258576791+257221720+256008868+255461403+255320999+255089048
4277+254826888+254927025+255408510+256017775+256668836+257227888+257304273
4267+256780588+256077990+255602471+255474864+255751379+256275034+256491046
4257+255975807+254965534+254093735+253883633+254418588+255267385+255913834
4247+256225946+256291464+256176714+256074041+256233008+256690396+257361432
4237+258074984+258358935+257761488+256443283+254983607+253853713+253386121
4227+253758131+254711705+255630258+256055132+255979237+255661014+255355531
4217+255327052+255914727+257186640+258627061+259526590+259494479+258499599
4207+257033841+256215454+256817484+258187602+258848348+258047226+256311411
4197+254847555+254605343+255518130+256602107+257033409+256918485+256828293
4187+256985099+257073533+256682441+255991747+255867657+256972675+258896456
4177+260476618+261052216+260971882+260718658+260209991+259292217+258296415
4167+257679194+257617308+258121075+259001838+259763153+260028800+259949388
4157+259834061+259756610+259752488+259903442+260062381+259920881+259422273
4147+258765621+258022812+257115271+256155412+255456417+255166096+255152145
4137+255312582+255778128+256668202+257787344+258746280+259308561+259412041
4127+259037206+258436617+258245395+258849991+259852653+260588573+260844333
4117+260721108+260313702+259814576+259425502+259028011+258409522+257809481
4107+257756444+258299730+258807964+258747894+258376806+258346569+258819062
4097+259251401+259003971+258072707+257185170+257080998+257690695+258245597
4087+258269464+258093202+258312499+259133682+260210654+260854595+260660231
4077+260004674+259476118+259021324+258349625+257814727+258048351+258974570
4067+259852048+260126515+259893728+259651803+259667743+259626005+259193608
4057+258737085+258815401+259211768+259315824+259166254+259199748+259319168
4047+259122354+258769974+258806811+259307696+259826682+260019518+259926156
4037+259769321+259678178+259596374+259436916+259248692+259098891+258991404
4027+259084651+259616810+260421477+260997767+261256265+261698261+262674059
4017+263839119+264558465+264640413+264315734+263640057+262510970+261190257
4007+260146664+259505317+259314671+259941000+261331469+262506329+262709975
3997+262402705+262338887+262438908+262316606+262205401+262508145+262998537
3987+263186762+263021914+262768661+262673339+262929704+263416234+263634090
3977+263497491+263582725+264003333+263999240+263231353+262479868+262515697
3967+263116891+263587971+263667498+263618611+263776685+264260304+264963249
3957+265545822+265547984+264924047+264385258+264787073+266162812+267582076
3947+268129483+267978788+268076965+268770916+269230898+268563379+267127772
3937+266170594+266578491+268276834+270435881+272033252+272493609+272059280
3927+271496394+271385679+271687184+271980935+272083060+272198388+272547338
3917+273017783+273133226+272588240+271722379+271022893+270534864+270321130
3907+271068609+273493994+277264737+280979359+283319280+283580949+281321824
3897+277042471+272793154+270851098+271897373+274246834+275440949+275570573
3887+276794292+279616793+281979082+282701886+283085311+283537280+282647811
3878+280524796+279272512+280009845+282095562+284745692+287069298+287301739
3868+285394821+284072696+285151974+287285281+287942509+286574092+284477739
3858+283336805+284972859+290472557+296283243+295272568+288385197+281671523
3848+278172682+277962580+279934555+283011116+286508631+290032723+293053941
3838+294448070+293512338+291291693+289302625+287905758+286588850+285164167
3828+284061801+283822672+285118797+288638075+293477806+296261279+295408908
3818+293561023+292506620+290869413+287513744+283903006+282319471+284132190
3808+288662576+293076856+295829458+298318056+301057082+302044784+300592718
3798+298459296+296539869+294648977+293083284+292459117+292940891+294508140
3788+297265354+300926103+304513752+307401397+310234593+313742196+317206390
3778+319604133+321619172+324704496+329510560+335982568+343588017+351258551
3768+358153819+363899016+367980286+370802384+374250177+379128562+383316397
3758+384579950+384229934+385432264+390397238+399318671+408873121+414361146
3748+416356670+418926409+423081442+425278277+423995296+422988771+425862176
3738+433412310+443364078+451362059+454795122+454809045+453939638+454060874
3728+455860968+458767839+461485506+463360688+464756489+465889784+466347778
3718+465769816+464532291+463924612+465322776+468278966+469928596+468333963
3708+464726396+461454519+460199469+461393757+463710762+465016256+464983569
3698+465193123+466804907+469693301+473490707+478290026+483595735+487217080
3688+487235528+484981274+482776310+481023748+479435658+478829218+480742766
3678+485565202+490624432+491983222+490917866+491786408+494452335+494044871
3668+488447486+481565563+477304399+476516076+477780436+479172115+480229054
3658+481629496+482858720+482675857+482311082+484653942+490370315+495302602
3648+494183171+487891114+481076871+476724938+474986385+474007041+472347208
3638+471026235+471760166+474020992+475941429+477794157+481602084+486147401
3628+486211103+481139795+475985070+474364380+476689455+481290865+485516316
3618+488021286+489984527+492223100+493414823+492709659+491960682+493067545
3608+494866659+494907013+493159207+491708467+492063066+493970791+496408889
3598+499028407+501780058+503701965+503758230+503080565+504705521+510183572
3588+516438215+517952081+514245991+510135954+509011565+510417973+512050020
3578+512315610+511228405+509876821+509752472+511990353+516445017+521529325
3568+525043789+525829258+524915231+524013945+523465701+522560033+521300515
3558+520645909+520914900+521404803+521660188+522036810+523094326+525037563
3548+527215835+527994329+526133818+522358204+518805230+517289058+518041149
3538+519515986+519957406+519467503+519431819+520072358+520044341+518579015
3528+516934689+516871102+518300800+519551441+519815128+519994647+520717971
3518+520975720+519572021+516966338+514647460+513346030+512668595+512296932
3508+512724227+514348261+516608279+518375744+518791740+518046164+517530839
3498+518613950+520843127+521670334+519187502+515050946+512970619+514638697
3488+518397190+521612974+523066078+522658037+520616566+517779825+515312846
3478+513779840+513040605+512624263+511967524+510818174+509346507+507638421
3468+505763613+504417333+504426845+505650506+507211586+508387744+508425446
3458+506453731+502891649+499736166+498420670+498506971+498917375+499631533
3448+501280990+503421098+504453537+503401325+500985538+498404586+495719117
3438+492678413+490261992+489864444+491373525+493128134+493657411+492841157
3428+491549067+490738001+490662193+490612153+489689594+487914750+486313834
3418+485759422+486040577+486346060+486447465+487005047+488521507+490306209
3408+491037027+490353943+489115293+487869323+486080816+483596254+481828011
3398+482309064+484677233+486900068+487425943+486616722+485831080+485564165
3388+485307799+484903275+484810979+485143556+485340313+485084235+484739609
3378+484719835+485169095+485925855+486372463+486112869+485875758+486790304
3368+488812405+490859525+492445568+493961568+495410751+496070027+495505469
3358+494273622+493211437+492429081+491678777+491363264+492225695+494186399
3348+496227813+497342113+497081077+495597073+493866447+493375968+494800017
3338+497243879+499310254+500496731+500865685+500182197+498458258+496696097
3328+496101215+496714717+497390653+497168358+496362596+495895869+495836490
3318+495324624+493978055+492657775+492460615+493458406+494676302+495178425
3308+495048830+495057996+495585774+496409696+497234712+497759319+497588620
3298+496757493+495743099+494671459+493521301+492803051+493010126+494031900
3288+495530316+497021065+497812991+497736029+497427318+497416077+497640159
3278+498079791+498821620+499377127+499099258+498241093+497614274+497466001
3268+497487216+497673538+498450878+499942146+501551306+502592738+503179837
3258+503945475+504907869+505149073+504051895+502288523+501067457+500993897
3248+501651443+501988287+501293961+499938572+498911034+498609471+498385331
3238+497482315+496126235+495214802+495211574+495777746+496287710+496368534
3228+496118740+496009611+496205214+495970986+494503527+492443608+491547395
3218+492553661+494165069+494581411+493576183+492272621+491243526+489992194
3208+488301057+486886290+486289218+485994631+485202128+484061943+483571321
3198+484313351+485818685+487194943+487769474+487110545+485251937+483112001
3188+481908431+481933624+482392280+482323447+481434757+480112517+478836511
3178+477744636+476578106+475002555+473104746+471483912+470695618+470708070
3168+471007355+470994644+470314960+469215044+468499186+468657231+469211931
3158+469272866+468423838+466912393+465362871+464327003+463816894+463443415
3148+463093686+462962275+462770620+461815144+460202006+459069287+459057757
3138+459478163+459468622+459121373+458859819+458461521+457410202+455736792
3128+454179458+453617581+454130341+454750675+454595656+453948285+453671339
3118+453948314+454099845+453420882+452005222+450695577+450051982+449635439
3108+448743203+447463969+446447269+446084281+446402994+447248736+448107131
3098+448250418+447500086+446444098+445571982+444662423+443460669+442455383
3088+442334637+442935601+443410197+443340154+443005212+442644300+442209481
3078+441907256+442225104+443076870+443508057+442878557+441868285+441502184
3068+441628781+441283809+440249122+439220229+438637916+438356617+438329695
3058+438704356+439220287+439208671+438405100+437388630+436877830+436802281
3048+436457222+435461708+434130618+432972966+432225920+431771299+431272864
3038+430607968+430166923+430360365+430908579+431029326+430302802+429017803
3028+427706977+426758534+426434257+426758188+427258842+427257977+426638076
3018+425945393+425637546+425673520+425878837+426220667+426535864+426333170
3008+425244783+423645481+422477365+422309520+422777054+422982026+422240081
2998+420602241+418858066+417817038+417540409+417536402+417485383+417347083
2988+417044482+416495605+415797906+415194752+414906593+414903163+414877567
2978+414635008+414338951+414193243+414149314+414024215+413653272+412999416
2968+412324344+412076655+412373894+412719154+412519977+411896415+411581247
2958+411875834+412219336+412007591+411220248+410030975+408586980+407351184
2948+406897284+407242977+407865847+408279969+408298360+407953502+407404913
2938+406856468+406505789+406477829+406613996+406426002+405575533+404371877
2928+403510830+403350421+403651753+403936972+403827064+403093623+401745095
2918+400146859+398843124+398203939+398238528+398552601+398517550+397870122
2908+397164093+397197817+397987495+398690671+398615525+397988418+397503444
2898+397358889+397094078+396334551+395315775+394535350+394167433+393986386
2888+393715551+393322124+393032668+393075962+393365101+393494380+393142720
2878+392427064+391777906+391519119+391581870+391578180+391209543+390632734
2868+390314771+390492849+390897430+391079429+390927091+390689894+390505215
2858+390247609+389955732+389891684+389908661+389397285+388241910+387180387
2848+386826076+386926587+386888077+386536331+386132384+385990509+386200496
2838+386504912+386460782+385839123+384806973+383704260+382778934+382135195
2828+381769411+381610444+381624942+381867040+382306845+382677039+382644900
2818+382091958+381146743+380106205+379396429+379297993+379572893+379671386
2808+379400406+379060824+378887675+378750470+378478539+378120855+377757839
2798+377301459+376656510+375975616+375554460+375462394+375451844+375299391
2788+375031784+374674014+374032206+373001238+371912707+371284879+371277874
2778+371558424+371686405+371553149+371366078+371230717+370957201+370393306
2768+369708636+369156790+368777891+368503135+368333993+368255417+368155223
2758+367960340+367717608+367446427+367007457+366228041+365171650+364221390
2748+363813061+364053862+364619025+365030409+365022050+364634734+364017312
2738+363274042+362546020+362052111+361889252+361877434+361752220+361469509
2728+361184203+360986380+360836435+360738403+360775529+360922130+360955192
2718+360660605+360088149+359523505+359176716+358922253+358453018+357759672
2708+357257490+357220998+357330589+357114982+356648110+356436653+356735276
2698+357232182+357348230+356770326+355768413+354935066+354569340+354467964
2688+354293287+353913841+353429069+353096780+353131744+353378251+353389493
2678+353029417+352712894+352817527+353126037+353138258+352764000+352368930
2668+352205092+352139862+351965761+351693311+351431181+351142906+350668656
2658+349996121+349410348+349223911+349357109+349388528+349086620+348676965
2648+348474040+348456486+348400191+348304580+348406994+348732106+348926960
2638+348723978+348289620+347881637+347471089+346968129+346524317+346339465
2628+346373046+346419540+346325831+346082783+345808171+345640989+345618822
2618+345682208+345755768+345763695+345652547+345479283+345398488+345499518
2608+345698148+345817798+345739482+345448123+344982693+344442348+344049440
2598+344025804+344303673+344529629+344472095+344258217+344092101+343932211
2588+343640045+343330469+343332861+343766556+344305864+344458173+344052582
2578+343406969+343009882+343066004+343363733+343555647+343476638+343190065
2568+342872706+342685029+342649633+342648624+342595529+342547450+342563188
2558+342546671+342372629+342108884+341932506+341853556+341736355+341567645
2548+341444622+341347800+341226679+341240313+341573006+342055558+342294168
2538+342173393+341956056+341855891+341749528+341422485+340969593+340774537
2528+341054452+341550812+341830266+341854622+341987821+342397072+342784215
2518+342843305+342691169+342659289+342842440+343012361+342939060+342708723
2508+342621442+342796725+343054301+343185309+343134693+342941366+342693071
2498+342509776+342461985+342539955+342698173+342871813+342993250+343034988
2488+343004636+342932892+342906546+343021268+343247887+343436255+343499871
2478+343489869+343415502+343162566+342765133+342574718+342876597+343462745
2468+343888109+344061719+344278134+344700991+345089258+345110098+344772994
2458+344433989+344415339+344711800+345064699+345239664+345213607+345140335
2448+345163740+345280624+345387217+345404454+345310169+345120215+344926197
2438+344855462+344879299+344810063+344620224+344571107+344865291+345375601
2428+345848987+346155132+346266136+346249763+346300293+346539594+346831962
2418+346982340+347026355+347161974+347457743+347779973+348018035+348243530
2408+348558006+348899952+349132710+349243252+349348231+349569431+349944583
2398+350382543+350691398+350735125+350603743+350578521+350871293+351427549
2388+352018914+352391587+352244697+351303286+349603127+347520840+345401053
2378+343312742+341178600+338957869+336690846+334482826+332426165+330521495
2368+328774236+327329463+326337984+325769189+325579523+325977389+327254692
2358+329389439+332118088+335448161+339684709+344610741+349029864+351629407
2348+351961438+350573131+348619143+347143469+346548588+346846144+347858751
2338+349073706+349952913+350436676+350916922+351858937+353384852+355027391
2328+356136474+356623696+356976595+357647141+358791563+360397350+362249530
2318+363898786+364993716+365618776+366162033+366918678+367909810+369007104
2308+370056462+370867441+371286695+371379049+371385188+371434046+371445143
2298+371335927+371156494+371023844+371054657+371312723+371723387+372112374
2288+372386237+372597146+372804913+372971865+373047818+373069782+373079640
2278+373040698+372979907+373053958+373263743+373332893+373149511+373048740
2268+373343760+373840724+374084061+373891801+373482089+373181593+373095148
2258+373066323+372951342+372814108+372773841+372801022+372774965+372674828
2248+372634762+372765337+372946154+372959615+372883316+373096618+373770104
2238+374586041+375096639+375187408+375079691+375003219+374990248+374969782
2228+374918936+374807356+374525971+374047396+373538383+373167728+372954138
2218+372870028+372870057+372799177+372534943+372201904+372016590+371996471
2208+372008779+371993877+371976784+371944673+371855317+371757630+371799657
2198+372048182+372363206+372548375+372579822+372593918+372713424+372984952
2188+373432626+374074780+374839668+375496321+375835845+375990950+376357022
2178+377077348+377838634+378313086+378562765+378837607+379187018+379479933
2168+379669138+379800808+379851713+379819890+379907488+380306853+380859852
2158+381230536+381382701+381616843+382128623+382734486+383103297+383165558
2148+383162848+383313197+383590749+383847403+384001874+384094919+384252042
2138+384549569+384899211+385160102+385329764+385510350+385737257+385921849
2128+385965230+385940441+386090358+386549101+387192119+387877106+388637383
2118+389504714+390329673+390896566+391158004+391338792+391775340+392574415
2108+393495706+394244741+394746980+395075724+395297817+395480190+395719406
2098+396103378+396679581+397448332+398364722+399341270+400236849+400891974
2088+401254443+401443042+401627202+401891984+402237303+402607295+402908483
2078+403106825+403287987+403530200+403799047+404066221+404422608+404957852
2068+405601245+406139601+406391557+406411849+406497372+406897976+407567311
2058+408254316+408751799+409010153+409130121+409314425+409734659+410363611
2048+410979765+411439545+411937634+412812258+414039896+415154715+415799549
2038+416122183+416493299+417099652+417924784+418892022+419919214+420954131
2028+422007496+423125774+424355199+425714479+427154929+428595610+430011934
2018+431392630+432648084+433726065+434782803+436073653+437688665+439494063
2008+441312201+443082001+444831392+446550403+448161437+449610390+450926260
1998+452223798+453714951+455608811+457864333+460113341+461944969+463210310
1988+463982866+464458500+465041189+466189387+467932264+469750345+471168427
1978+472337811+473792125+475736054+477834627+479737480+481608252+483864783
1968+486425788+488633750+490135741+491386208+493000095+495090049+497420977
1958+499827194+502285756+504772336+507197116+509489649+511739637+514173930
1948+516949793+520051777+523333569+526474409+529025038+530859260+532473148
1938+534461466+536837302+539164367+541287354+543565820+546277463+549142509
1928+551742024+554192804+556940477+559949300+562676796+564985125+567333347
1918+569783320+571667754+572728325+573701327+575342368+577551655+579615148
1908+581021845+581920595+582867366+584212494+585741464+586999022+587985283
1898+589171357+590650922+591912342+592888630+594409587+596856159+599129495
1888+599938254+599603889+599427137+599968174+600735081+601111183+601201981
1878+601661617+602753492+604005285+605062686+606387693+608520077+610857000
1868+611850410+610863111+608924082+607332332+606644693+606724998+606913511
1858+606446438+605257886+603957840+602884701+601943118+601263089+601182668
1848+601830645+603143834+604485214+604224698+601541995+597978876+595306319
1838+593690068+592409335+591339310+591263962+592755403+594978238+596016960
1828+595057621+593091555+590925274+588503491+586051962+584141816+582765039
1818+581427003+580015752+579027069+578886752+579281302+579315027+578513243
1808+577392774+576732865+576917400+578079260+579950263+581403713+581251634
1798+579872494+578948321+579709116+581954492+583895250+583506695+581279479
1788+579680522+580133933+582025343+584057879+585816235+587359848+588376490
1778+588924215+590167245+593462412+598709924+603420550+604873712+603633621
1768+601909509+600809448+600924573+602725417+605391862+607115398+607642369
1758+608181965+608993722+609856499+611753732+615689899+620397873+623007073
1748+622814640+621838122+621669267+622416515+623730800+625308772+626809783
1738+628643947+632263275+638077536+642945140+643132327+640329715+637866310
1728+636759504+636959316+638170582+639743654+641534005+644733186+650670585
1718+658253176+662895430+661504644+656675492+652328517+650512165+651728447
1708+655343336+659593230+662597499+664739164+668444043+674497375+679616272
1698+680883573+679693060+677240263+673752490+670918286+670447408+672423390
1688+676284267+682288770+689899090+694583139+692667055+687785211+684344827
1678+683813129+685925796+689174037+691943962+694371394+697122526+699004885
1668+698408102+696704858+696457947+697967547+699264191+699074295+698743274
1658+700035018+703613069+709639824+716468479+718863685+716723231+716212344
1648+719041072+721304780+718940877+714325315+711570263+711507425+713452680
1638+716983113+721038556+722519966+719719487+715617866+713445878+714013318
1628+716407775+719257025+721742913+723088329+722479035+720912305+720894434
1618+723509513+726541685+726466568+723583420+720894376+720203278+721493408
1608+723490316+724838614+725268446+725473216+726052186+726960275+727901167
1598+728835025+730003054+731656143+733859839+736571538+739579555+742226861
1588+743944689+745365971+747935162+751977923+756185964+759541374+762702391
1578+766732411+770835819+772356603+771268591+770924079+772983883+775149934
1568+774142342+770699709+767742424+766840330+768971734+775343462+784291299
1558+787909589+783522836+777634035+773485200+771049351+769982611+769880342
1548+770569998+772643868+776884365+783485249+791810014+798753160+798298193
1538+791168782+785520897+784951554+787191684+788103290+787007207+786599685
1528+788290131+791733975+797078453+804943062+813661341+819178420+820667151
1518+821680565+823777322+825796713+827991185+832355974+839773457+849296459
1508+858520493+862584988+859207037+854460669+853342448+856125748+861312326
1498+866539776+869266119+869517930+870577233+875144312+882746849+890170155
1488+894441437+895624397+895231633+894340320+894196774+896424913+901508586
1478+907916979+913880608+919574728+926071613+932241626+935751248+937383468
1468+939772851+943400769+946051187+946442510+947627084+953366978+963705657
1458+973207272+972901501+962823683+951678665+943421349+937504992+932692961
1448+928484575+925971130+927028646+931481234+936022429+937374359+936138823
1438+935539675+937447516+940438122+942422982+943755830+945661595+947871978
1428+949139221+949524490+949704816+949015218+947395277+947164335+949413631
1418+950781760+948034721+942969265+938962823+937849849+940041323+944775989
1408+950256576+953918103+953467056+949530774+945853739+944772818+944826259
1398+944104607+943790477+945360781+947105302+947029551+946339491+946704756
1388+947231323+946342085+945281514+946858391+951565096+956987804+960904832
1378+964000129+968324160+973702593+976995281+976268326+973770619+972554684
1368+973357621+975523614+978469715+981764017+985011739+987869752+989887472
1358+990802248+991374473+992692333+994368078+995031619+995018360+996837075
1348+1002105398+1009153696+1014601539+1017154127+1018470026+1020540207
1340+1022892291+1023604027+1022526565+1021546991+1022279712+1023474778
1331+1022536711+1020297043+1020590823+1024986569+1030541870+1033316868
1322+1033023204+1033191424+1036626736+1042179731+1046001868+1045762970
1314+1043931572+1045434831+1051937423+1059570629+1062989914+1061313708
1305+1057706371+1054893670+1052759269+1050255567+1048789895+1050851544
1297+1055601371+1058697936+1057835851+1056020249+1056131858+1056012294
1288+1052563031+1047189786+1042894926+1039254614+1034348327+1028522421
1280+1023701800+1020859006+1018847744+1016102031+1013217038+1011756785
1271+1011878194+1012218670+1011313924+1009341632+1007875269+1007991836
1263+1008950195+1008719137+1006257519+1002794651+1000392066+999670183+999153993
1253+996888498+992198856+985600106+978184352+971693406+967761850+966196734
1243+964509229+960078951+952701995+944295944+936626131+929885160+923296787
1233+916318071+909058086+902572847+898565713+897545842+897355888+894884585
1223+889575446+883542119+878609774+874937064+871689861+868194709+864735704
1213+862539791+862579915+864155811+865398496+865433316+865336811+866745180
1203+870207990+874803952+878761046+880735356+881241457+882569405+886576596
1193+892740384+898548591+901868259+903145821+904827677+908365201+912399718
1183+914445743+914247603+914211284+915984629+918870948+922333412+927778546
1173+936550956+947305978+956724809+962857985+966580043+969765158+973455855
1163+977525538+981722971+985834853+988572380+988570074+987743846+991154369
1153+1000410398+1009376452+1010601842+1005286247+1000542184+999708578
1144+1000441990+999752506+997736862+996623081+998503826+1003850553+1010671367
1134+1015662629+1017907601+1020399658+1025846348+1031623713+1031814878
1125+1025527433+1018083547+1014517833+1015835115+1019602255+1022549625
1117+1024302389+1028889415+1040208246+1055119193+1063789508+1060794981
1108+1051135869+1041782643+1036881660+1037825838+1041364111+1040944194
1100+1035040462+1030855135+1035408148+1045481296+1048574749+1039344777
1091+1027973947+1025205751+1032446251+1044899963+1055588457+1059147599
1083+1055446064+1048502341+1042383693+1039015716+1039519569+1043907706
1074+1048781594+1049201280+1045723077+1043242781+1041600472+1035958467
1065+1025482582+1014614452+1007475761+1005413651+1007895677+1012689317
1057+1016612917+1017679772+1016150571+1013997491+1013062192+1013373728
1048+1013932579+1013921971+1012510951+1009413809+1005877611+1004363053
1040+1006270548+1010595270+1015265311+1018812923+1020622876+1018931796
1031+1011862168+1002365857+996923087+998002740+1002117158+1004900689+1004759910
1021+1001490051+995555188+989497418+986812813+989154636+994061499+996514701
1011+994604208+991609451+990759011+991707340+992714470+992411812+989261633
1001+983171809+977364466+974541388+972957767+968519245+960103221+950659774
991+942955602+936771176+930834987+925801757+923235275+922813341+922328224
981+920285485+917341862+914877074+913285496+911922556+910106954+908007315
971+905756116+902363984+896925307+890482613+885350630+882859841+882785301
961+883918798+884715567+884276050+882890684+881214478+879423204+877987798
951+878133362+880187055+882802769+884483241+884925583+884960633+886180950
941+890391066+898003634+907186853+915590366+921777098+925304706+927583346
931+930943310+935966048+941570755+947465378+953495304+956773234+955010208
921+951576511+951133477+953451030+955153409+955633741+957048855+959044149
911+958680959+955501667+951624705+948250675+946340240+947494606+951459483
901+955122797+956004598+954968297+954327700+955263230+957780710+961252745
891+964355363+966026727+967090814+969679260+974329009+978686015+979460358
881+976148531+972377586+972100409+974973065+976911921+976233967+976817837
871+981917364+988193971+990312576+988780378+987494917+987336959+986776379
861+985161281+982395275+979094401+978003680+982056298+989879977+995907540
851+997293079+996154163+994531109+993300416+993405106+993696119+991289960
841+986944484+984610155+985592842+989618366+997808116+1008739660+1016338392
831+1016766725+1012951621+1008982478+1006542536+1006948963+1010862762
823+1016327900+1019935929+1020600854+1021902340+1027955614+1038103591
814+1047961593+1055558826+1063426549+1071561072+1073741823+1065983057
805+1053707827+1046560027+1049596522+1057728508+1057948036+1044951040
797+1026082594+1010144569+1004907607+1013047319+1028394670+1040721784
788+1045411426+1046669099+1050031658+1051978584+1046951234+1039203306
780+1034075185+1029175124+1020128707+1009027329+1000914252+995854503+992448016
770+992026370+994287369+996601290+996437566+993890973+991789086+993172896
760+997445619+998966749+993836553+985900458+981628772+984199924+992824464
750+1002292758+1005040777+1000276191+995681555+996348556+1000638112+1006222123
740+1013757786+1022662502+1027771483+1025009398+1017229763+1009235443
731+1003135934+1000365663+1002724665+1010481240+1020990216+1028734108
723+1027920910+1017423349+1004366512+998425885+1003705853+1017303439+1030765433
713+1036068116+1033715800+1029225048+1024741330+1018365566+1010986247
704+1005812814+1001183588+994350437+988649860+988275833+991434429+992962592
694+990003923+983600949+977865322+977033445+982455461+992256736+1002408171
684+1008049254+1006479699+1000337069+996486453+999104991+1003924920+1004116315
674+1000313663+997402958+996223111+994163769+992153774+995911229+1000618627
664+997390276+989013396+986253040+996905908+1015883310+1024065797+1008295646
654+981174613+963084200+961431399+968127346+969543324+961862672+954604358
644+957635031+969392860+978772834+976956310+966653085+958059905+951274602
634+943628194+941887537+950965834+963532941+970199256+966169178+953767408
624+940801658+932791138+933964355+946943884+966339877+979973781+983050746
614+976889553+960819857+940970627+926920554+924517161+931561539+935790564
604+923486741+898133402+875258169+865057732
##END=
