##TITLE=<SNM>
##JCAMP-DX=4.24
##DATA TYPE=INFRARED SPECTRUM
##DATE=29/4/2025
##SAMPLING PROCEDURE=Instrument type and / or accessory
##ORIGIN=Admin
##XUNITS=1/CM
##YUNITS=ABSORBANCE
##RESOLUTION=4
##FIRSTX=4497.3318
##LASTX=599.83466
##DELTAX=-1.4281778
##MAXY=2.245491
##MINY=0.68560421
##XFACTOR=1
##YFACTOR=2.0912765e-09
##NPOINTS=2730
##FIRSTY=0.70937496
##XYDATA=(X++(Y..Y))
4497+339206685+338735354+339030631+339437804+338783608+336500006+334124286
4487+334145121+336853453+339782844+340617199+339238749+336611247+333568306
4477+331120763+330426437+331634618+333235551+333528974+332725658+332250907
4467+332444632+332585202+332560662+333162729+335050302+337985507+340489968
4457+340523172+337802242+334615511+333131207+333298539+334008143+334907452
4447+336264041+337645512+337914966+336675832+334971723+334194942+334677872
4437+335834694+336751361+336386797+334550784+332815352+332938963+334400552
4427+334982012+333687756+331629858+330101861+329326391+329086806+329306554
4417+329741487+329876414+329453622+328808546+328662504+329568198+331418491
4407+333532993+335111039+335642166+335133840+333987821+332787250+332126184
4397+332288444+333058642+334018717+335055404+336326688+337668399+338396357
4387+338023984+337077134+336639635+337012492+337461990+337192365+335952035
4377+334179266+333086659+333725322+335463033+336441121+335924274+334888670
4367+334230284+333852809+333390286+332766358+332082663+331480282+331048882
4357+330854131+331249704+332581782+334293500+335110839+334458695+333093071
4347+332108371+331818824+331697464+331044892+329772269+328807491+329375898
4337+331514398+333746441+334605592+334003012+332816236+331945570+332011950
4327+333026378+334032283+333849816+332439930+330986778+330680870+331765241
4317+333514353+334806272+334846972+333772235+332617181+332328289+332763878
4307+333037180+332830715+332697384+332975588+333142379+332573003+331578470
4297+331021663+330872116+330102830+328578424+327840063+329077857+331671699
4287+334581993+337590960+340151597+340922992+339621468+337628468+336085023
4277+334874390+333836905+333580819+334367462+335224532+335032318+333711470
4267+331827859+330153335+329747530+331123186+333297428+334755168+335042977
4257+334630218+334086550+333977161+334566317+335125888+334454677+332426591
4247+330218518+328988362+329004836+329917598+331236337+332497503+333375921
4237+333850814+334061212+334064291+334142869+334821264+335910508+336250560
4227+335200591+333724096+333049436+332907982+332268778+331357640+331411707
4217+332528684+333473168+333749975+334158944+335043120+335543978+334868491
4207+333360473+332238851+332652865+334656753+336932118+337908382+337218644
4197+335827939+334801027+334215748+333358364+331903074+330593342+330401412
4187+331281626+332289783+332778158+332829204+332625190+332099564+331231406
4177+330417430+330593199+332544559+335488542+337094092+336259623+334665588
4167+334212641+334688361+334984236+334964569+335047252+335191356+335279797
4157+335630024+336484786+337259772+336936792+335482528+334192063+334105361
4147+334784867+335020404+334188044+332676037+331281313+330420737+330084817
4137+330427149+331718897+333530456+334705690+334575438+333731392+333387892
4127+334150964+335287207+335403180+334127251+332697156+332563199+333844401
4117+335445676+336451011+336949561+337358131+337482910+336813466+335406686
4107+333921811+333062432+333284858+334521798+335813260+335792625+334276570
4097+332948169+333397554+334839904+335027273+333400347+331764956+331593262
4087+332310761+332601277+332197296+331724455+331576047+331737680+332178741
4077+332740194+333067192+333165066+333580762+334544798+335468021+335726872
4067+335339137+334677673+334195141+334464510+335675655+337051682+337562515
4057+337175265+336593633+336031554+335207146+334311086+333963082+334227035
4047+334497172+334404685+334194885+334132495+334056595+333707309+333279500
4037+333365233+334253797+335553896+336540763+336749138+336329310+336006644
4027+336492367+337596746+338250856+337882132+337248143+337378367+338211752
4017+338768274+338540860+338129639+338242705+338651531+338559272+337617979
4007+336240356+335242118+335306531+336454261+337999017+339215093+339852559
3997+339863817+339111661+337599596+335806534+334635804+334752717+335905235
3987+337308566+338555510+339439942+339359909+338073178+336598934+336103777
3977+336348035+336340140+335973696+335852735+336063476+336199428+336134758
3967+336085365+336217755+336624386+337275904+337786680+337881476+337884725
3957+338201150+338718596+339018318+338893481+338570501+338488987+338772321
3947+339074637+339155496+339238835+339535764+339736130+339301481+338272261
3937+337476099+337775849+339254054+341183895+342588167+342865715+342282516
3927+341812611+342193876+343194595+344067028+344485544+344498855+344013673
3917+342891139+341380413+340098641+339457641+339339103+339581452+340595252
3907+343003435+346627152+350128569+351968857+351786191+350159151+347533615
3897+344531831+342661815+343492579+346901707+350018096+349734050+347372325
3887+346585824+348084095+349543517+349788402+349791880+349134377+346621964
3878+343868315+343500930+345639345+348600742+351578842+354365411+355846723
3868+355787155+355910737+356871439+356771142+354199447+350847777+349344747
3858+350804711+355320698+362355710+367967069+366384120+359281161+352196870
3848+347933464+346631113+347358388+349511567+353090821+357669113+361398428
3838+361900540+359188673+355831332+353590653+352070180+350249187+348035699
3828+346028847+345016016+346334583+351173949+357883131+361326832+359672373
3818+356769090+354847544+352541653+349081079+346034490+345236789+347565024
3808+351942807+355309098+356404983+357368735+359397048+360401614+359166414
3798+357241076+355232258+352734381+350411646+349325366+349421673+350145441
3788+351608968+354025273+356711375+358847652+360682554+362799080+364855924
3778+366254153+367488128+369794817+374004184+379902069+386192021+391435026
3768+395212766+397441246+397715060+396942012+397604531+400986868+405285445
3758+407851384+409145298+411943496+417802048+425202650+430486554+432561097
3748+434264693+437940995+442316840+443053377+439771023+437282238+439216354
3738+445912939+454698174+461917563+465965070+467397245+467575408+468145952
3728+469884006+471629812+471941989+471724380+472674423+474137465+474198430
3718+473104369+473283273+476592789+482282099+486319802+484490685+478043689
3708+471761318+468829163+470196411+474726335+478807360+479063019+476435660
3698+474223653+474109676+476211067+480608659+487149425+493824206+496617017
3688+494064474+490026715+488323233+489555470+492322230+495031874+497341070
3678+499838719+501764113+500732756+497453309+495510928+495413852+494007015
3668+490553537+487708398+486067563+483884286+480813357+479518189+482489648
3658+488186027+491302102+489429208+487155125+489590812+496446634+501471516
3648+499076245+491676955+484737338+481095066+480628895+481667891+483175623
3638+485518452+488628029+490888146+491298454+491742053+494912338+499432116
3628+499885177+495701660+491687615+490822307+492891064+496199982+498851596
3618+499754126+499444200+498975521+498594227+498621246+500175721+503144045
3608+504847754+503343271+500387374+498707036+498709829+498940122+498772989
3598+499469510+502147517+505811563+508582713+510800419+514635647+520039885
3588+522751409+519135245+512009570+506476277+504308619+504447649+505461564
3578+506580250+507305501+507463115+507866583+509858614+513723768+517969417
3568+520200519+519103608+516030969+513697888+513395772+513931544+513453744
3558+512230457+512281703+514384035+516872164+517508034+516157117+514655142
3548+514095257+513818963+513016986+512280677+512641506+513981137+515376801
3538+516109519+515720929+513993962+511459604+509203534+507902723+507380460
3528+507049785+506511220+505574829+504229841+502673883+501161990+500165404
3518+500394784+501969781+503773930+504492169+504156934+504046177+505199521
3508+507270387+508823893+508724195+507181747+505333421+504077015+503594142
3498+503432766+503037164+502488395+502571677+503826999+505694194+507154899
3488+507773896+507602487+506720250+505426336+504030273+502322402+500149044
3478+498233796+497779937+499392898+502256392+504096510+502795129+498824063
3468+495246376+494749252+497304246+500588538+502166955+501258781+498640456
3458+495468290+492697710+490907983+489848124+488744543+487541207+487068082
3448+487778397+488970219+489555527+489219949+488503078+488035139+487889040
3438+487591427+486619011+484988266+483488399+483161259+484306109+486123540
3428+487381713+487371395+486350412+485233322+484571573+483929832+482847855
3418+481869568+481628502+481972686+482750323+484163430+485886008+486905794
3408+486415168+484323666+481459601+479411137+479356243+481020620+483026389
3398+483989286+483308042+481502696+479832162+479287155+479910541+480969716
3388+481636653+481509023+480707901+479773506+479547261+480621655+482631015
3378+484539651+485781521+486670542+487675507+488772190+489510152+489715022
3368+489986356+490923773+491964194+491892256+490789758+490389140+491749235
3358+493585762+494076729+493814458+495075025+498254830+500899319+500724719
3348+498294048+495774624+494329367+493699768+493470387+493732887+494497526
3338+495192395+495195188+494538170+493905321+493917406+494376110+494425418
3328+493554695+492080480+490839978+490716623+492010081+493830590+494550653
3318+493560053+491943274+490939164+490656428+490662641+491075857+492355577
3308+494147128+495074398+494108765+491862272+490091242+489978433+491165124
3298+492444331+492927831+492404144+491193511+490066047+489923482+491081671
3288+492915576+494494562+495238111+494934569+493889132+493203043+494119425
3278+496712041+499540251+500825158+499863629+497542291+495772971+495891766
3268+497267080+498099725+497709196+496887667+496127531+495171987+494189710
3258+493952178+494585710+494968543+493972471+492110863+491062461+491570815
3248+492982725+494578585+496008280+496664614+495944836+494205043+492603712
3238+491986140+492220993+492475968+492088061+491084522+489901992+488891611
3228+488013649+487012731+486088597+486121260+487639652+489782000+491050947
3218+490953585+490252846+489713938+489239672+488372256+487277682+486719678
3208+486931103+487055313+486160820+484504936+483214613+482806243+482845803
3198+482791479+482283410+481102078+479612358+478718663+478703956+478653623
3188+477606789+475796427+474310640+473857351+474090323+474161207+473775352
3178+473219515+472480669+471237003+469783908+469020608+469369325+470337808
3168+471033759+470658764+468861598+466245553+464301319+464014907+464484613
3158+463863763+461935177+460445913+460591442+461598488+462023161+461315382
3148+459895235+458555091+457839246+457484487+456711667+455326947+453958445
3138+453068370+452508884+452135571+452183482+452899412+454188424+455565277
3128+456258948+455754927+454464405+453339220+452692833+452021137+451106807
3118+450513518+450593807+450726368+450095628+448820953+447720935+447191775
3108+446888661+446485649+446261741+446635966+447429364+448071077+448408877
3098+448660147+448664508+447996260+446766047+445538799+444649522+444186998
3088+444157328+444190019+443757850+443052351+442862873+443391691+443904234
3078+443712647+443016468+442475508+442217284+441748291+440870386+440123474
3068+440083657+440673953+441318744+441449680+440879677+439911935+438954539
3058+438056597+437146657+436467607+436233181+436153890+435874860+435565304
3048+435553619+435745691+435830027+435694958+435350089+434775498+434089864
3038+433580855+433373021+433278168+433127452+433026271+433104138+433269105
3028+433360994+433281759+432949517+432396643+431809055+431232811+430481937
3018+429590864+429015617+428997348+429029925+428398900+427110943+425922571
3008+425457682+425634676+426019590+426352175+426498359+426229761+425434567
2998+424434134+423815080+423866782+424223479+424204297+423523281+422445580
2988+421281519+420154282+419365160+419450294+420544184+421944180+422604020
2978+422080589+420859069+419733115+419043491+418584473+418082390+417620522
2968+417580791+418195712+419174912+419811579+419581629+418694347+417878376
2958+417562578+417512159+417326357+416976586+416661644+416360439+415869643
2948+415187458+414530611+414062159+413889240+414134525+414655932+414909482
2938+414463946+413506550+412571100+411913170+411395895+410949276+410813722
2928+411083090+411285052+410872948+409931599+408951715+408177955+407602394
2918+407304752+407368795+407663901+407973285+408205915+408404058+408635604
2908+408858715+408824057+408243423+407210555+406300585+405974955+406032386
2898+405898770+405382123+404930715+405018243+405393181+405243263+404262268
2888+403106330+402503379+402431498+402486706+402615761+403094559+403960151
2878+404746110+404894803+404403151+403849451+403726096+403946242+404001478
2868+403487652+402608579+402053625+402152981+402489385+402604503+402650561
2858+402964706+403377494+403365837+402747809+401917957+401303720+400791690
2848+400013911+399106563+398642244+398785693+399074756+399121270+399043632
2838+399050615+399047765+398897419+398718486+398646377+398527953+398098777
2828+397325244+396431948+395714165+395382720+395453290+395699401+395825122
2818+395771795+395741983+395854136+395969796+395996844+396047377+396102641
2808+395908204+395439182+395043238+394887563+394680128+394155500+393504810
2798+393138764+393227119+393537985+393600717+393086578+392197386+391582807
2788+391671561+392152923+392323961+391880876+391153630+390630399+390472500
2778+390532325+390631681+390683041+390603180+390266947+389645413+388884934
2768+388174391+387642295+387376261+387373240+387450280+387342544+386922060
2758+386284937+385680561+385359576+385406461+385674205+385901619+385917038
2748+385711713+385320700+384742888+384066404+383523078+383247468+383119525
2738+382981663+382808202+382570100+382207503+381820395+381650583+381793632
2728+382036693+382021702+381591185+380988406+380651631+380783138+381170930
2718+381414020+381278039+380830080+380257939+379676536+379193691+378995292
2708+379147775+379430568+379538332+379327990+378820007+378166210+377640271
2698+377455666+377575743+377796231+377945380+377939765+377729623+377269323
2688+376584601+375885828+375498863+375555324+375855987+376139777+376299443
2678+376243951+375869098+375321269+374962720+374930570+374997948+374903750
2668+374609243+374281504+374136574+374228292+374424468+374626344+374824174
2658+374934931+374855497+374657668+374500795+374420991+374339391+374173711
2648+373895906+373560500+373250232+372988360+372741337+372441785+372051912
2638+371716307+371694731+371980630+372212832+372143402+371937422+371844706
2628+371816832+371606262+371104806+370471501+369985492+369865016+370189791
2618+370858581+371552651+371825553+371409858+370535401+369811718+369656527
2608+369955338+370350113+370648296+370845983+370994562+371112330+371095400
2598+370840340+370514880+370424274+370551419+370532665+370156074+369671947
2588+369541666+369913070+370390357+370457592+370076270+369624691+369378437
2578+369354952+369486487+369646210+369697313+369707345+369834804+369912015
2568+369564524+368869514+368432727+368651562+369275062+369791853+369963575
2558+369906115+369848485+369871828+369854357+369674141+369377924+369093935
2548+368908817+368889208+369089945+369484121+369925981+370169897+369988257
2538+369405343+368772551+368486082+368636770+369000364+369327334+369509032
2528+369487313+369251520+368972575+368888809+369009371+369154016+369241630
2518+369279822+369172656+368827673+368385671+368137280+368241567+368582389
2508+368863642+368891289+368805898+368961061+369532089+370290972+370801007
2498+370849432+370630426+370468651+370483072+370554355+370449412+369973949
2488+369203096+368511249+368213778+368315187+368684253+369187363+369581312
2478+369665277+369610070+369729320+369938664+369886421+369567260+369345233
2468+369417542+369648547+369880378+370099185+370311550+370426668+370293053
2458+369878355+369394085+369098951+369015242+369018434+369104965+369347998
2448+369679186+369908624+369935130+369853844+369848485+369973579+370072336
2438+369960268+369652737+369377668+369391976+369742117+370167503+370349087
2428+370299636+370368696+370787184+371313038+371452240+371046748+370500031
2418+370328851+370660808+371271654+371893729+372339949+372522103+372497734
2408+372406044+372341260+372363919+372559953+372968665+373467898+373819465
2398+373895963+373866635+374109526+374948612+376552594+379080112+382817209
2388+388137339+395387395+404839168+416713859+431179855+448184684+467202949
2378+487274490+507514360+527556601+547339592+566595817+584640725+600396160
2368+612848948+621831500+627674263+630272523+629406588+625560987+619110684
2358+609537979+596330583+579535696+559891109+539915847+523684721+514289353
2348+512835260+519131312+531330493+544997448+555078450+559528228+559792095
2338+558982480+559584034+562045827+565444867+568648271+570599146+570720506
2328+569639954+568519444+567461466+565347961+561253712+555383132+548522749
2318+541327074+534426789+528606143+524247855+520575030+516026067+509763704
2308+502275089+494351541+486310795+478340048+470838067+464146271+458242686
2298+452819694+447601257+442552918+437743194+433135318+428710907+424640456
2288+421094663+418029833+415307506+412875525+410769117+409057655+407769157
2278+406782290+405893441+405044123+404320753+403690640+402951053+402027289
2268+401143570+400582175+400374883+400297330+400077441+399549734+398721422
2258+397825931+397251710+397229194+397547157+397738887+397580732+397215257
2248+396812587+396396464+395999238+395703762+395514939+395373571+395261304
2238+395213421+395280115+395456254+395621877+395678139+395750220+396031017
2228+396404558+396489094+396095829+395408258+394707233+394173057+393909418
2218+393870599+393799402+393482407+393003182+392575431+392290272+392162044
2208+392199353+392325814+392425826+392509164+392684164+392950853+393148255
2198+393180775+393211671+393458238+393829727+394026103+393991360+393951857
2188+394033285+394203525+394518696+395032094+395550395+395865622+396126127
2178+396622652+397330916+397964392+398336223+398453650+398426801+398426602
2168+398551951+398724899+398884850+399121669+399437609+399611782+399469018
2158+399083335+398670404+398477847+398728690+399435072+400275441+400827915
2148+400942178+400804743+400704133+400835981+401254299+401857734+402434206
2138+402805724+402919759+402823110+402679035+402757442+403190239+403741202
2128+404007920+403896308+403756451+403977452+404551245+405165739+405634931
2118+406026742+406418097+406765360+407045046+407360302+407837162+408429624
2108+408930681+409294104+409773786+410514057+411241075+411669282+411951818
2098+412381992+412900606+413238635+413383594+413606362+414077607+414665081
2088+415124526+415367930+415514599+415758287+416183815+416668826+417023215
2078+417199212+417249289+417193483+417088113+417073606+417244415+417644720
2068+418339930+419177306+419632447+419356011+418750979+418578602+419108303
2058+419943570+420604863+421063026+421641095+422503124+423409018+424036223
2048+424396483+424797073+425491257+426474560+427531256+428407878+429018325
2038+429515107+430113925+430856077+431598372+432237662+432857371+433580171
2028+434362168+435101926+435922628+437108350+438709226+440416299+441908697
2018+443178983+444445051+445850891+447350956+448839280+450278067+451668116
2008+452994665+454287467+455675578+457306039+459211881+461249458+463150198
1998+464709348+466018767+467437631+469186430+470999813+472353723+473061018
1988+473458558+474049509+475117320+476567536+478049276+479339655+480542934
1978+481784120+482997204+484217640+485716024+487664790+489998555+492580853
1968+495187321+497518293+499503598+501300450+502925096+504346412+505885952
1958+507996607+510653750+513365503+515782492+517974889+520070609+521982437
1948+523737335+525814586+528717242+532166672+535074344+536669633+537440658
1938+538515395+540473167+543063446+545748521+548206495+550395586+552452031
1928+554656513+557356979+560627989+563963698+566792078+569419580+572579263
1918+575931731+578207011+579080014+579504573+580283463+581563469+583259368
1908+585127361+586729320+587837346+588721465+589866600+591463201+593271910
1898+595114194+597163399+599378882+601256565+602660780+603994254+605107012
1888+605256303+604527233+603994482+604313871+605054854+605534308+605803818
1878+606448809+607604889+608672786+609314185+610336536+612850886+616319013
1868+618115467+616562018+613282514+610789653+609836618+609622857+609155659
1858+608095458+606906259+606340161+606555177+607030982+607377960+607774473
1848+608756466+610724328+612908460+613037116+610009110+605784152+602613411
1838+600856346+599602335+598169561+597023798+597228782+598858957+600288310
1828+600050379+598588534+596760558+594518910+591932223+589756413+588361889
1818+587283903+586193775+585536871+585778735+586557227+586875704+585976137
1808+584026003+582056831+581325823+582523458+585110488+587310637+587538479
1798+586275974+585598492+586973008+590063660+592713336+592540161+589827553
1788+587109074+586242912+587329505+589525665+592051302+594066590+594641524
1778+594095434+594522615+598062110+604646142+610761722+612235025+609530397
1768+606003386+603633823+603168051+604914513+607954375+610374956+611711109
1758+612993451+614291640+615266622+617257570+621937412+628231184+632382208
1748+632490343+630475283+628895954+629094895+631368522+634727659+637053500
1738+637824524+639636768+644717228+650450431+651418686+648061316+644276537
1728+641519581+639800424+639435604+640816447+644184135+650140391+659131094
1718+668986421+673872615+670903835+664243704+658607749+655997690+656846295
1708+660669666+665662683+669313163+671291742+673770636+677632655+680728152
1698+681900992+682363173+681487206+678340520+675090088+674206995+675895713
1688+679366519+684806840+691997613+696814377+695429657+691335863+689372220
1678+691082599+695144983+698368909+699097181+699617904+702037972+704188015
1668+702571749+698826986+697260882+699076545+701642940+702016139+701171239
1658+702476041+708183364+718559928+729889241+733072182+728071811+724108327
1648+724154271+725486548+724518692+721689627+719632099+719701415+722469202
1638+728270581+735573536+739408364+737127840+733398068+732888289+736276840
1628+741815491+747722953+753464194+758488905+761835102+764422930+768930338
1618+776297136+783270214+785614297+784934648+785459818+788521342+792918506
1608+796646681+798024275+796682536+794011313+791986847+791598541+792536984
1598+793962803+795332816+796541510+797533706+798157207+798557198+799321381
1588+800995278+803679783+806984767+810209320+812836537+815154170+818128479
1578+822168404+825851832+827056137+826705852+827608041+830328686+833035308
1568+834677625+836767075+840143483+843796814+848415549+857813254+872974831
1558+882070876+876216769+865533529+857651422+853687653+853274780+855485988
1548+858571909+861344199+864558776+869948763+877929998+885107489+884949192
1538+877917686+871615021+869388080+869830596+870458143+870570952+870549063
1528+869687347+867694803+867058534+870783802+878308100+884916871+887063153
1518+886309457+884289267+881205227+878934279+880639528+887890040+899366079
1508+910721215+914880391+909857105+903499604+900980921+901624543+903326086
1498+905367482+908762930+913757886+918848607+922804680+925275880+925980381
1488+924603414+921451540+917984040+916365893+917828251+921353096+924848641
1478+927510516+930181169+934135419+939381416+943416382+943525657+940771038
1468+938487208+938156875+939049259+939994485+940167717+939364771+938710433
1458+940026521+942525994+941858202+937085787+932179528+930320884+930987365
1448+931353553+930188580+928913249+928536344+928468340+928172550+928002795
1438+928573054+929542335+929594265+928510294+927424327+927132129+927780426
1428+929364999+931836939+934883243+937945793+940661193+943118085+945223552
1418+945807207+943826178+940200608+936562270+933711031+931966165+931937151
1408+933900623+936493125+937283416+935870594+935055620+936727579+938892900
1398+938954064+937943627+937971102+938289522+937459613+936288199+935660252
1388+934609058+932510089+931637485+934995140+942397623+950037352+954148645
1378+955287055+957277718+961883342+966293559+967425983+966461491+965782355
1368+965513073+965095810+965446265+967428834+969384839+968725085+966419764
1358+966904063+972563675+979949455+983452753+983031728+983111419+984761431
1348+985394622+984838271+985719426+989143717+994252451+999901118+1004431840
1338+1006685060+1008728052+1012924166+1017654399+1020076119+1019860762
1330+1019021790+1019709931+1021703673+1022177939+1019219819+1015331750
1321+1014893966+1018626872+1023317089+1027428040+1033183417+1041044376
1312+1047003140+1048347274+1048355596+1052109252+1059049040+1062309049
1304+1058319400+1052971595+1053837017+1061894978+1071010005+1073741823
1295+1069218169+1063020562+1059302704+1056831163+1052903078+1048453186
1287+1046148436+1045609870+1044071128+1040031659+1034056705+1028071149
1278+1024445181+1023061373+1021178104+1017821190+1015802139+1017553047
1270+1020707714+1020323171+1015495006+1010398813+1008887205+1011002020
1261+1013520418+1013746265+1012520128+1012249591+1012822130+1012156676
1253+1010259270+1009131292+1008763850+1006616998+1001146865+992569605+981077433
1243+968037627+957304965+952128569+951363245+950126049+944851265+936423980
1233+927403977+919099420+912074584+906524817+901350130+895119689+888262156
1223+882553408+878824662+876296916+873546686+869655995+865019589+861081129
1213+859029473+858971045+860161669+861705428+863083706+864296276+865670565
1203+867633410+870546840+874270854+877772385+879992599+881265479+883132958
1193+887152932+893561679+900263822+904246687+904870814+904504056+905306888
1183+907138797+909067555+911174162+913968284+917506069+922137060+928525286
1173+935453730+939349552+938745888+937323148+939761057+947115657+957498434
1163+968760997+978736543+985096837+986963462+985884963+984709672+985446267
1153+987919974+990168861+990351271+988562399+986685856+987034146+990488649
1143+995294126+998497587+998766300+996982786+993504342+988534810+984999818
1133+987364764+997200424+1010614285+1019447603+1018160929+1011011939+1007083056
1123+1009519711+1014087485+1017037853+1019981608+1025986431+1035257761
1114+1044159369+1047700859+1045973094+1042252386+1038066305+1035748444
1105+1038667346+1046146839+1052037998+1052210718+1049391799+1046888108
1097+1042997531+1034928625+1024464562+1017129400+1017204302+1024161419
1088+1032073567+1034281298+1030795671+1026840908+1026175111+1027960563
1080+1028824161+1027322698+1025637344+1026521576+1028943411+1029428736
1071+1026550306+1021983102+1018906301+1018929559+1020669066+1021112322
1063+1017120166+1008950706+1002195722+1003287218+1012524574+1021628998
1054+1022107597+1015829045+1008840918+1002768489+997801579+995626796+996982330
1044+1000776116+1006039899+1011719462+1015004552+1013163009+1007355303
1035+1001299177+997741498+997081288+997444398+997654739+998447425+998843482
1025+996502022+993308479+993627355+996937184+998506594+996575328+992727731
1015+987892271+983821906+984029283+989497706+995895737+996462006+988323898
1005+975421811+964382587+958432373+955943389+954346503+953725568+955282494
995+957731120+957681756+953619770+947185543+940190690+932881977+925276165
985+918160921+912035023+906858684+903536314+903228497+904751107+904549943
975+900853063+895996625+892944849+892008287+891448004+889403587+885299989
965+880457631+876701923+874372832+872695858+871464476+871128215+871547074
955+871801308+871383589+870934917+871742252+874777156+879785678+885136333
945+888929948+890386549+890226142+889949848+890557786+891763915+892947642
935+894685097+898448500+904859014+913104231+921933958+930116129+936064177
925+938658959+938907663+939088648+940680346+943899997+948219864+952805025
915+956498257+958254409+957764410+955661793+953228216+950924378+948129514
905+944898692+942634927+942859234+945851841+950998824+957113093+961203409
895+959997337+954451332+949289699+947216723+947716527+950629842+955545222
885+958552877+955840156+950275511+948340255+952139228+957856185+960537612
875+959207501+957024282+957289916+960689810+965530744+969463731+971583449
865+973221605+975412235+976929544+975007057+970051775+965167406+960618785
855+956235587+953799786+954488156+957614720+962049449+967381749+972494587
845+974937057+973081491+968802153+966726099+969839382+976328047+981001505
835+981028867+979093269+978982797+981049274+983722036+986801687+991108045
825+996270247+1002087986+1008853459+1012730241+1008871472+1001175366+997608567
815+999955043+1005556512+1012348206+1018234691+1020488708+1019242734+1017691451
805+1017729073+1018609429+1019650990+1022226505+1025456872+1026144558
797+1024143292+1020721395+1015495006+1008756439+1003883698+1003560491
788+1004764169+1003927363+1001321522+996204808+988772285+983333731+983661841
778+988017677+991045341+989433065+984967440+981671976+980672027+979716769
768+976499626+971545485+967407172+965841981+967429974+972075272+978487895
758+984847848+989918960+992883008+992605973+987678965+978479117+968908179
748+964092441+967306733+977569461+988659077+993559065+990777997+985482179
738+984159592+989471371+998488581+1004315782+1002597252+996375931+993445971
728+999124850+1010917314+1020054002+1022175316+1022979060+1026787211+1028701148
718+1021572109+1006055289+991004641+984846252+988354794+995544598+1002340510
708+1011584592+1023527088+1028481686+1019957325+1006710711+999426054+999413400
698+1001701619+1001887791+998350633+991346318+983172298+976408992+971084444
688+965882567+961329956+961416372+967738589+975887299+985464736+1000029717
678+1012207750+1007941865+991216693+979481688+979543137+983511581+980453363
668+970193941+961655671+956726155+949523355+942322435+944367194+959195303
658+981085642+999294605+1002612529+991075895+976070621+965552975+958687063
648+951661029+942977800+935268641+933629630+941175647+951896566+952381377
638+938766866+922452914+914985904+919731186+931706744+940253051+942378640
628+942401841+938264041+928168503+919375201+917013790+914796084+906515183
618+896738749+892366894+898754436+914337380+924458911+918281996+905090048
608+896859823+895908498+897948925+899083914+899746005+899997275+896105843
##END=
