##TITLE=<SNM>
##JCAMP-DX=4.24
##DATA TYPE=INFRARED SPECTRUM
##DATE=29/4/2025
##SAMPLING PROCEDURE=Instrument type and / or accessory
##ORIGIN=Admin
##XUNITS=1/CM
##YUNITS=ABSORBANCE
##RESOLUTION=4
##FIRSTX=4497.3318
##LASTX=599.83466
##DELTAX=-1.4281778
##MAXY=2.1180921
##MINY=0.38120264
##XFACTOR=1
##YFACTOR=1.972627e-09
##NPOINTS=2730
##FIRSTY=0.39020425
##XYDATA=(X++(Y..Y))
4497+197809449+198052460+199850803+201658634+202298908+201797839+200777660
4487+199790734+199338387+199760594+200688946+201284985+201325700+201190620
4477+200770559+199719969+198767625+199179316+200850707+202238567+202313548
4467+201637997+201336231+201735503+202318443+202627294+202744955+202852780
4457+202860319+202697818+202477953+202188394+201758090+201415472+201395499
4447+201475858+201346277+201079577+200856448+200695730+200618800+200668279
4437+200760029+200819146+200875635+200864878+200621927+200208997+199969416
4427+200166030+200730236+201242818+201101242+200037885+198487388+197122778
4417+196290255+196091813+196409820+196590390+195885212+194596958+193954070
4407+194472771+195229663+195083570+194072592+193246188+193386087+194242783
4397+195097892+195830838+196903895+198296061+199230910+199153119+198278656
4387+197049807+195720988+194568208+193876687+193711270+194073377+194980518
4377+196116227+196854235+196999362+197100902+197724618+198744691+199567212
4367+199781700+199399952+198625852+197581757+196258680+194791639+193767623
4357+193958497+195595819+198030055+200185338+201305667+201263184+200387105
4347+199223053+198321533+198007378+198228906+198522846+198206652+197010481
4337+195641279+195266270+196183533+197372769+197728184+197420526+197418818
4327+198070847+198843467+199208066+199204879+199147196+199224927+199402793
4317+199425318+199023885+198320082+197846146+198019193+198766582+199670807
4307+200201700+199968373+199166610+198617845+198951337+199822884+200246994
4297+199694512+198643075+197971754+198053714+198699065+199763298+201209777
4287+202570156+203068159+202452601+201122151+199469690+197842687+196917945
4277+197299828+198838481+200775741+202360231+203142687+203098843+202685823
4267+202506340+202869112+203668503+204410817+204465749+203691090+202601853
4257+201613975+200659999+199877152+199888346+200962596+202545802+203923042
4247+204830183+205337900+205700249+206183401+206534494+206014328+204461428
4237+202801700+202074933+202462618+203438636+204370539+204931527+205283814
4227+205836628+206626199+207091161+206718312+205790428+205139261+205164385
4217+205435407+205374129+205021011+204889572+205239759+205708301+205647446
4207+204914999+204278441+204629428+205789839+206623465+206469771+205937186
4197+205966133+206548348+206840671+206417921+205908753+206134315+207002220
4187+207691475+207750381+207540154+207550397+207726842+207753478+207701688
4177+207939895+208501638+209013359+209271584+209476477+209797083+209970794
4167+209485361+208272662+207140413+207118597+208352205+209953480+210953913
4157+211036538+210454535+209810620+209760643+210375944+210894206+210495402
4147+209228813+207897879+207224277+207382971+208082075+208774155+208991301
4137+208756343+208544650+208723664+209222150+209846305+210611461+211546839
4127+212431741+212967075+213049172+212712205+212031562+211179822+210435967
4117+210135486+210547721+211634299+212971351+214049015+214626214+214756580
4107+214635490+214428617+214140237+213777934+213539863+213517639+213453188
4097+213187651+213087153+213595158+214568396+215398214+215641860+215364962
4087+215012554+215058890+215716282+216830296+217977970+218741963+218943639
4077+218681819+218279449+218082970+218093319+217948374+217454707+216870513
4067+216545587+216622078+217062671+217624112+217953299+217927404+217689711
4057+217377641+217108040+217091678+217402675+217806812+218087095+218365821
4047+218927307+219733950+220220683+219877869+219058444+218655395+218923123
4037+219263202+219256328+219179791+219326051+219514115+219507301+219471737
4027+219821350+220744384+221872177+222433512+221966979+220881776+220126439
4017+220293896+221130392+221962598+222512844+222983773+223296643+222936077
4007+221954001+221317564+221720161+222744630+223554083+223841118+223857934
3997+223934108+224154442+224371120+224466738+224505671+224597301+224819629
3987+225237137+225698911+225733040+225042864+224005719+223334081+223415211
3977+224126190+224977719+225339221+224978172+224471724+224498752+224805352
3967+224722666+224589958+225463892+227338515+228847919+229051982+228505890
3957+228144946+228043270+227701000+227101275+227054879+228273470+230197737
3947+231412521+231522749+231562150+232144667+232426400+231473285+229689808
3937+228337678+228434082+230214084+232939813+235081695+235392118+234164084
3927+232916471+232814220+233630140+234308153+234547932+235070953+236198851
3917+236958312+236043391+233496298+230790452+229316386+229279054+230282478
3907+232687888+237340845+243545433+248517681+250316009+249488472+246724687
3897+242341738+238133302+236654733+238680708+241750262+242273511+240561449
3887+240209344+242612352+245233775+246080197+246470088+246776084+245168660
3878+242263086+241331878+243616576+247386263+250859940+253110721+252883709
3868+250673055+249364813+250121056+250548611+248346962+244887048+242936100
3858+244058272+249531756+260360143+271236558+270749871+260320016+249298369
3848+242287032+240344726+243071557+248929977+255749654+261982312+266709042
3838+268622160+267037669+263152936+258582120+254245991+250893238+249208643
3828+249054784+249617630+251221821+255730014+262870296+267506106+266583525
3818+264049410+262474831+259439828+253813360+248532729+246544041+248787645
3808+253686182+257646909+259564136+262191527+266381502+268509394+266572768
3798+263024216+259386346+255306901+251445554+249318613+249170933+250048780
3788+251453894+253483826+255572377+257018630+258601247+261343428+263952720
3778+264041766+261856252+260043178+260906748+265017708+270631666+274856359
3768+276961589+278446125+280088781+282049459+285326793+290302562+294916405
3758+296984228+297891883+301250256+309693477+322780818+334959023+340251182
3748+341069156+343256604+347730215+349967277+348051954+346197696+348767133
3738+357448244+370011913+380210012+383110162+380076095+375962627+374503805
3728+376827315+381594745+386347460+389894471+392410214+393708228+393946782
3718+395004156+399167420+407441161+419121167+431075956+438522386+439981812
3708+438685098+438099031+440087840+445211666+452030754+457385430+459507460
3698+459584964+460106309+462971196+468834647+477297055+486137343+490593187
3688+487902524+481694764+476801666+475228386+477246444+482322469+489765756
3678+499057227+507330605+508908962+504904694+503229586+506096619+507100119
3668+501389772+493603988+489459156+489624406+492045423+495589382+500392014
3658+506013163+511120341+515767481+522135356+531890490+543379229+549796658
3648+545225117+534078058+524423906+520195255+521491939+526208697+531720374
3638+536233115+539053948+540746581+543347140+549479330+559400712+567719928
3628+567511982+560971575+555052588+553097802+555700839+561783778+568164947
3618+571922049+573691732+575298975+577036811+579017461+581811583+584419817
3608+584443084+581411404+577333833+574330073+573578060+574923875+576988828
3598+579106235+582135376+586120367+589224383+590817908+593057266+597411857
3588+601684623+602711238+601015402+598949301+597052651+594827493+592815237
3578+592198773+592832339+593257900+593260861+595115451+601057704+609977490
3568+616921883+617220174+612188809+606839028+604002060+603485670+603723348
3558+603841674+603971481+604268080+605106510+607557984+612364000+618561940
3548+623927131+626686747+626642753+625071709+623896069+624519241+626530893
3538+627520463+625147429+619587105+613265340+608730602+607735352+610613353
3528+615147366+617567113+616293031+613586353+612404490+613724319+617066013
3518+621368149+625181332+627390052+627947716+627407879+626161051+624685006
3508+624049324+625165317+627369746+628152035+625426503+620680375+617836880
3498+619268206+624167589+630050801+634992546+638199538+639524081+638742457
3488+636283731+634341153+635073646+638088888+640271138+639126501+635811397
3478+632895746+631310742+630593901+630008015+628953723+627195280+625160241
3468+623939097+624649230+627152736+629750274+630712166+629709905+628117529
3458+628105503+630665694+634509576+637153163+637344248+635917213+634570189
3448+634303504+634452770+633736050+632149172+630730839+630079929+629996896
3438+630071166+630505066+632482695+636696782+641234904+642437677+638602678
3428+631833416+626318718+625254756+628597720+633022592+634602822+632459187
3418+629239082+627710944+628162067+629257453+630023969+630124588+629027087
3408+626379210+622922030+620115097+619520932+621903453+626147635+630048323
3398+632565487+633965630+634201555+633135116+631603715+631040612+632512065
3388+635886332+639493986+641342352+640893585+639121787+637033508+634886670
3378+632376094+629641678+628436427+630598131+635130512+638648063+638964665
3368+636874572+634425757+633112998+633839086+636787974+640467481+642453329
3358+642152379+641336006+641532107+642454235+643011114+642789571+642187248
3348+641900620+642550020+643855829+644490604+643886528+643515356+645122478
3338+648369053+651070654+651445210+649778321+647924940+647125670+646580877
3328+644928734+642679041+641262944+640659292+640020770+639454101+639667667
3318+640826325+642340805+643278645+643558928+644561007+647282792+650275010
3308+650737675+647839006+643862658+641939296+643495353+647102585+649619144
3298+649582462+648364460+647732767+648295326+649931395+651966675+652753980
3288+650774418+646998582+644433315+644813370+647211604+650093654+652983379
3278+655630833+657350721+657394171+655454191+652762320+651947035+653916204
3268+656018926+655466761+653063874+651197258+650412854+649762307+648775638
3258+648441933+650575053+655170404+659016764+658922430+655649930+652537635
3248+651544801+652154679+653117115+654222895+655898969+657689441+658579238
3238+658431180+657309144+654639632+651048717+648905082+649322907+650492020
3228+650482895+650453827+652985615+657563259+660195001+658014261+652442032
3218+647426680+645265157+645392487+646629404+648209453+649376692+649906436
3208+650661773+652556610+654866432+655562304+653273270+648513606+643229998
3198+639248512+637087655+636246747+636049075+635748850+634799588+633716409
3188+633798234+635575471+638097892+639675342+639322179+637543129+635614752
3178+634069875+632145244+629728821+628509247+629679448+631926300+633059818
3168+632508500+631116333+629717641+628787596+628261961+627293965+625207559
3158+622586151+620707388+620387704+621422235+622533998+622506441+621754006
3148+621554520+621969566+622070366+621340653+619434756+616288015+613393757
3138+612602947+613456183+613861015+613021437+611636825+610282006+609172056
3128+608228716+607056884+605891942+605876773+607403098+609085215+609299023
3118+607949945+606165093+605027103+604711710+604222092+602423280+599736666
3108+597886850+597644157+597856091+597239929+596184126+595947414+596854253
3098+598201821+599387854+600182411+600353493+599953556+599482249+599061462
3088+598115343+596266313+593975285+592277213+592169947+593571843+594664025
3078+593588763+590884624+588739478+588231489+588863001+589949685+590829208
3068+590608995+589171626+587610009+586917038+587102987+587618228+587702349
3058+586629383+584448160+582174234+580756203+580092300+579485867+578808911
3048+578550928+578700315+578295302+576741178+575226215+575627905+578050674
3038+580430174+580638120+578364798+575071147+572621607+571749818+571575654
3028+571052436+570469874+570389137+570001468+568332464+566251920+565228025
3018+565028298+564718766+564648968+565251653+565268272+563454051+560835785
3008+559326019+559329826+560110785+561262010+562471430+562867863+561922468
2998+560465822+559773032+559839568+559425610+557928655+556222848+555336979
2988+555375837+555872042+556294097+556347096+556426866+557117420+557735999
2978+556749934+554186238+551797009+550403815+548923237+546397311+543647546
2968+542265895+542631265+543469031+543314688+541998726+540334678+538977200
2958+538275345+538435187+539032797+539156198+538510062+537668127+537015585
2948+536397368+535918265+535993382+536347210+535948965+534363659+532436853
2938+531395675+531680248+532611984+533038330+532342700+530799153+529117337
2928+527873108+527112816+526324182+525224022+524445661+524679169+525462909
2918+525742647+525200454+524180426+522889967+521386788+519733919+517913594
2908+516279580+515781441+516843650+518459897+519238862+518897060+517983211
2898+516775302+515205768+513376197+511617512+510267588+509503550+509298082
2888+509636741+510657917+512278757+513833847+514475330+513889565+512457514
2878+510894809+509771685+509115155+508398736+507183756+505778537+504890674
2868+504679797+504587306+504201057+503850160+503927875+504090769+503640280
2858+502439743+501156959+500526595+500493841+500358806+499772105+499131075
2848+498838465+498753649+498598279+498324311+497832397+496802882+495174427
2838+493552137+492661524+492363203+491669719+490057218+488270644+487358306
2828+487382751+487569032+487370604+486943019+486770124+487009011+487125282
2818+486350758+484617727+482727966+481474279+480883921+480408595+479632924
2808+478685807+477942104+477432181+476876873+476276756+475995960+476148550
2798+476250226+475664129+474314718+472892971+472208249+472230941+472139055
2788+471548999+471003180+470875215+470683919+469881869+468559411+467163105
2778+466108964+465613544+465484251+465255909+464762726+464370342+464490753
2768+464924199+464776232+463334059+461099414+459396417+458884772+458963514
2758+458635581+457536177+456053484+454783148+454049809+453831409+453870145
2748+453735020+453036489+451807217+450504339+449526251+448909575+448488819
2738+448130368+447800653+447534874+447418362+447524903+447666676+447297982
2728+446116541+444671497+443751242+443350036+442903445+442265588+441778025
2718+441599540+441482907+441045532+440051158+438655094+437411076+436814917
2708+436855044+437069093+436948471+436326145+435474329+434789728+434405473
2698+434161147+433838291+433326555+432626302+431755239+430733338+429732588
2688+429049649+428765771+428598284+428188527+427441681+426579199+425906322
2678+425486080+425095358+424593956+424146096+423920746+423766766+423393449
2668+422767165+422134324+421697493+421467701+421414159+421447426+421227515
2658+420441842+419376249+418704671+418637531+418762565+418749270+418706454
2648+418764952+418780332+418616290+418336370+417909571+417157377+416228239
2638+415605671+415385337+415093814+414507112+414074058+414202385+414598425
2628+414607217+413959298+412963806+412088483+411575115+411426634+411508670
2618+411614154+411630410+411605724+411505618+411092749+410245949+409219334
2608+408422240+408047200+407959967+407903947+407809250+407795623+407866056
2598+407820309+407508814+407017987+406581005+406321149+406083410+405628933
2588+405011079+404544274+404407880+404529106+404768113+404957778+404908315
2578+404598542+404226343+403959839+403788001+403667984+403654900+403770385
2568+403821148+403508504+402790696+402031371+401669627+401793905+402138396
2558+402431490+402602693+402674788+402627591+402432094+402125373+401799948
2548+401556922+401480264+401625693+401942113+402187134+402092166+401672558
2538+401197413+400817539+400478517+400223132+400241383+400579378+401050987
2528+401423639+401581759+401622550+401778495+402056571+402105098+401684493
2518+401066669+400724353+400814880+401125016+401353810+401371759+401339549
2508+401569099+402136825+402670920+402705608+402265151+401890203+402014813
2498+402509870+402924341+402957880+402593507+402005053+401502291+401365625
2488+401584690+401901352+402144258+402356826+402610398+402878926+403082612
2478+403129960+402978669+402736851+402606893+402666992+402787705+402770451
2468+402530356+402207711+402095912+402330539+402693673+402908055+403017617
2458+403203113+403367336+403269708+402956823+402700200+402624902+402676722
2448+402775014+402782810+402560602+402202605+401975804+401993752+402212274
2438+402628588+403165766+403528175+403497113+403204654+402897690+402666418
2428+402562838+402712920+403119656+403530078+403675991+403596886+403601207
2418+403873029+404195885+404198454+403861637+403549356+403454750+403337059
2408+402998460+402687146+402753772+403181720+403717628+404225195+404669398
2398+404985758+405218300+405611771+406334655+407207743+407884488+408218283
2388+408288293+408145009+407690925+406778617+405305593+403242000+400697612
2378+397963076+395356353+392947422+390542692+388107353+386051435+384764934
2368+383979563+383006491+381611636+380289933+379672502+380016812+381282494
2358+383384250+386203995+389651354+393802924+398392413+402192301+403706720
2348+402440706+399384944+396513288+395209564+395033798+394813252+394261783
2338+393897228+394122518+394793280+395479512+395951122+396293588+396628834
2328+396975349+397283944+397390515+397187676+396988946+397335825+398371262
2318+399778264+401208623+402461827+403476022+404364218+405267521+406145655
2308+406918909+407657476+408394985+408992564+409388181+409773977+410375273
2298+411179650+411979615+412626446+413169032+413728721+414289739+414694541
2288+414830422+414735725+414526360+414276323+413957425+413481193+412879413
2278+412449955+412562509+413219916+413930865+414161775+413871914+413451793
2268+413168881+412892557+412450590+412019379+411929305+412269174+412946553
2258+413917208+415042900+415963970+416444796+416633161+416724716+416635760
2248+416251082+415759590+415501456+415600111+415884110+416068548+415904355
2238+415261572+414259342+413299656+412768521+412645633+412583540+412397410
2228+412217353+412118124+411982546+411840894+411923262+412216689+412388677
2218+412328910+412354110+412714737+413283853+413858921+414423052+414990264
2208+415485955+415912815+416472141+417396565+418642668+419777546+420333216
2198+420369384+420479370+421091634+421996690+422734562+423223727+423753048
2188+424469890+425138748+425467799+425530527+425685928+426096531+426554332
2178+426831864+426968229+427131062+427401766+427763601+428166318+428574505
2168+429003389+429489018+430022570+430567090+431132097+431744421+432353090
2158+432886370+433414181+434100021+434964829+435840032+436553640+437073263
2148+437553483+438290479+439430916+440684150+441576183+442036643+442511274
2138+443483651+445056266+446983585+448994542+451029581+453172491+455452702
2128+457792709+460056301+462092912+463869182+465580669+467471005+469529189
2118+471491045+473102307+474272446+475019806+475427660+475701476+476130843
2108+476920142+478168874+479969800+482233664+484455528+486092866+487201093
2098+488271249+489492151+490551369+491027661+490627180+489176275+486727006
2088+483630483+480310847+476976556+473603890+470152301+466766673+463772370
2078+461421545+459609046+457957809+456267714+454706400+453490181+452655830
2068+452231236+452284507+452641205+452845253+452588630+452012473+451518897
2058+451416677+451701824+452044563+452064596+451745637+451517749+451835771
2048+452752007+453987655+455338909+456839489+458554663+460442551+462488014
2038+464823762+467648402+471100233+475166685+479612467+484076319+488318627
2028+492255212+495757926+498672368+501040023+503065303+504845622+506225490
2018+506875675+506596752+505638909+504549385+503615473+502698603+501636787
2008+500456434+499145216+497591335+495844374+494185824+492857112+491852615
1998+491088244+490730247+491142361+492324829+493598942+494208486+494120830
1988+493866443+493890797+494395976+495414855+496764991+498226563+499842689
1978+501785509+503988458+506112452+507839259+509201935+510667646+512680205
1968+515035895+517023253+518325859+519407044+520838007+522651322+524527184
1958+526320556+528105891+529850616+531444987+533070238+535169637+537935779
1948+541110319+544463798+548185910+552375220+556283099+558808360+559929188
1938+560813848+562469920+564901210+567489199+569763246+571672949+573380025
1928+575104264+577101533+579372679+581456124+583146520+585140708+587879776
1918+590218062+590731490+589990718+589766456+590834345+592649171+594209035
1908+594869373+594842299+594930590+595596669+596597418+597535259+598316037
1898+599033362+599752681+600559505+601785907+603804448+606148837+607317285
1888+606469367+604701618+603450439+602848780+602362667+601781737+601020539
1878+599943524+598763715+598043792+598383720+600334336+603846146+607091935
1868+607090243+603305584+598507364+595079977+593089597+591452441+589456320
1858+587171637+585034287+583277718+581832190+580803400+580520278+580929884
1848+581790674+583333134+585246886+585381951+582212185+577664273+574495474
1838+573272880+572674847+571711263+571252042+572689049+575298371+576218504
1828+574299917+571475277+568988692+566072860+562558633+559716589+558274627
1818+557609455+556937091+556431398+556924582+558716383+560822188+561757550
1808+561207561+560217085+559980132+561157403+563676621+566404570+567714791
1798+567350025+567056931+568854534+572972292+576817443+577073734+574309828
1788+572144015+572696180+575382008+578620606+581574207+583940533+585475137
1778+586828143+589743854+595632988+603792724+610378334+611436433+607953027
1768+603478842+600159991+599291949+601548591+605430243+607995027+608867480
1758+610106814+612097738+613857390+616319198+621645108+629423701+635487362
1748+636570298+634279996+632223443+632513878+635257298+639164452+642369268
1738+644580526+648112883+654601862+660602372+660569437+656053493+651752808
1728+649475195+649397057+651174476+653802652+657006441+662727515+673219976
1718+686646339+695090708+693457178+686461418+680204617+677393937+678967761
1708+684944037+693415540+700676656+705433420+710616107+718228332+725208500
1698+728414827+729032259+727195980+722823562+719227027+719117766+721949356
1688+726636200+734382100+745778439+754738050+754229698+748215591+743539322
1678+743280674+747907631+755498765+762990911+769494273+775018641+776948589
1668+773658081+769567396+769658345+774006772+778328851+778794296+776892207
1658+776982190+782279274+793949127+808195972+813623770+809506978+807206039
1648+809730454+811990300+809008476+803380649+799661801+799245063+802567238
1638+810095160+819236731+821846596+814212133+804082201+798136624+797043353
1628+798501209+800252460+801250370+800033516+795434298+790222906+788967134
1618+792516049+795964828+793465008+786617125+780530500+777360674+776373521
1608+775515995+773390912+770455561+768053641+766759132+765914357+764743915
1598+763532379+763079020+763324132+763369999+762836931+762246573+761948645
1588+761514745+760432473+758997823+758105186+758373200+760121612+763995891
1578+770111946+775293787+774377037+769117965+766271630+767932234+770350531
1568+769594046+767067576+765407576+765105720+767584811+776380894+790983681
1558+798092267+790254935+779195925+772268211+769558029+769159300+769304276
1548+769965520+772961242+779703673+789856871+802085053+812312461+812031212
1538+802175399+794661255+794506429+798043076+798991854+796810570+796394256
1528+800443243+807656981+815892559+825036849+834808118+841727734+843420065
1518+842451706+841128916+839660787+839318623+842448564+850124967+862026939
1508+876359898+885652065+881934606+872783125+868174479+869942409+876150744
1498+883368712+887686560+888311061+888972850+893136778+900371183+906733014
1488+908906925+908208939+907939413+909501695+912368879+916004876+920890178
1478+927064973+933329328+939519653+946900968+953587982+954534223+950285388
1468+946492329+946380832+948658021+949928055+950284360+953518848+961061455
1458+968569798+968565749+961323246+954155618+950969958+952466732+957414400
1448+962386421+964465697+964001641+963068454+963441862+966260217+971513488
1438+976885025+978346022+975593900+973624551+975239287+978849177+981591932
1428+982679764+984047335+987441544+992624412+998620571+1005237786+1011651347
1418+1014616612+1012656448+1009143974+1007223513+1006555803+1004979864
1410+1001453248+997335852+995291567+996497604+998907924+999966446+1000455279
1400+1002926937+1007188040+1009665560+1007713071+1002921679+999424857+999663139
1390+1002613901+1004312395+1001031254+994711362+991563472+994679091+1001417654
1380+1007084218+1010105322+1012351086+1015498674+1019182835+1022045003
1371+1023249770+1022197291+1018855778+1015301787+1015298282+1021064800
1362+1029758148+1035319924+1036333122+1037118735+1040450821+1044261526
1354+1045461458+1043939183+1041801349+1041244531+1043653824+1048593273
1345+1053393246+1055611091+1056050067+1057248428+1059992755+1063089157
1337+1065950721+1069065494+1072173619+1073741823+1071711921+1065439831
1328+1057606668+1052614885+1052155724+1053646938+1054177045+1054008803
1320+1054867659+1057062540+1059544472+1061682426+1063359045+1063830896
1311+1062559895+1060867444+1061143859+1063901359+1066799908+1067593497
1302+1066465599+1064085314+1059554262+1052137837+1043907758+1038465638
1294+1037179529+1037818414+1036744542+1032185571+1025435224+1019075387
1285+1014703513+1012315190+1010793519+1008404470+1003673632+997044330+990793572
1275+986123528+981603052+975784200+969821520+965360328+961689462+957004491
1265+950964882+944315638+937269054+929783797+922536762+916396050+911290958
1255+906257960+900494464+894205695+888571885+884629378+881723699+877548470
1245+870489317+861273476+851614005+842473401+834253778+827226230+821148308
1235+815619045+811036928+808102725+806470343+805040407+803391890+801947087
1225+801157486+801142801+801499107+801332436+800362507+799641737+800319781
1215+802247433+804504136+806850338+809900570+813839874+817705692+820639835
1205+823311704+827065965+832062522+837054064+840804277+843342591+845664198
1195+848108480+849838581+850996090+853809611+859540716+865861877+869486815
1185+870765127+872703596+876286715+879858050+882718647+886467591+892145818
1175+898885167+906347520+915879842+927541719+937854759+942900628+943034787
1165+942036273+942473497+944197010+946442352+949294549+952829020+956527745
1155+960316090+963985083+965963679+965194685+962930005+961769534+962926319
1145+964525584+963370613+959325916+956904597+960231788+967603917+972867824
1135+973106832+972266408+974674552+979567711+983696891+985838894+986996766
1125+988313876+990204786+991716969+990928335+987352165+983104176+981063940
1115+982432961+986100443+989223797+988976329+985967553+983871176+985101264
1105+989243316+993989384+996732260+996559123+994702902+992333796+990197534
1095+989852348+992899558+998488286+1003314304+1004572010+1002148213+998200087
1085+994782007+992161082+988595186+982231240+973372369+964400793+957848723
1075+954528361+952787383+949789726+944858315+939931133+936320639+934140563
1065+933980842+935464865+935561495+932109936+927457719+925580950+927687662
1055+932183783+936495045+937665426+934595131+930288281+928802023+930984938
1045+934987454+939445262+943625386+945915628+945301763+943267932+941938494
1035+941139708+938582961+932933077+925787687+920429930+919208121+922326520
1025+928108146+933949297+937839470+939506298+940283752+941947438+945434592
1015+950078530+953648595+953700990+949018194+940249427+930153639+921469900
1005+914248185+907406889+901420399+896779483+891764796+884567798+875904243
995+867720697+861239755+856756021+853817588+851387446+848903823+846613459
985+844196129+840769166+836746285+833756001+832200730+830480601+827403295
975+823920493+821363142+819542878+817799120+816350692+815136981+812894842
965+809068364+805134379+802650452+801353345+800223030+799321570+799641495
955+801796612+805264488+809008658+812784373+817141985+822204473+827124342
945+831191218+835037759+839663930+844665140+848910410+852732536+857796354
935+864795317+872739251+880258713+887011477+893707616+900246452+904983274
925+906573172+905483769+902981049+899588471+896121804+894681474+896478472
915+899626362+900850044+898911817+895135679+891537512+889645878+890082376
905+892025136+893568200+893612859+893492963+895441041+899161461+901591784
895+901190215+900832398+903909401+909607088+914276588+915876035+915073381
885+913630392+913764308+916906578+921694645+925173217+926430742+926773752
875+926379375+924027250+920168260+918205437+920885706+926399801+930292149
865+931376838+931930333+931987441+929621296+925807146+923747814+924474022
855+926512385+929062725+933205745+939467138+945782739+949644267+951262327
845+952041232+951428696+949199852+947979735+949591571+952706888+954343802
835+952719639+950650214+952828234+959191456+964562327+964950480+961915114
825+959218348+958796051+961367663+967004192+973796116+978457942+979768888
815+979787440+980193179+979449083+976158816+973106227+973973967+978396966
805+981650551+980087665+977339773+979988195+988728801+996420916+996154714
795+989147955+979522870+970966823+966388151+965277416+964367797+961048160
785+954616168+945223504+933828736+922751174+915332331+914095233+918493092
776+924119348+925172734+919854257+912468591+908838154+911148701+916426991
766+919771707+920222709+921550153+927062133+935697708+943115947+946479154
756+947117918+946997296+945682362+943648532+944741077+951454923+961047073
746+968282324+969694916+965595589+959638953+956265411+957429145+961240756
736+964410462+965073156+963342754+960257774+956301005+951960072+949346822
726+950694027+954604686+957634976+958301598+956675440+954412453+953900475
716+956146844+959385502+960748842+959906544+958188168+956625221+956175186
706+956964969+958146772+959107153+959704642+959271165+954962200+944451367
696+930595456+921433097+921980548+927957429+932174900+934663540+939132648
686+943229014+942342239+937721265+934654898+936050992+939551803+939806039
676+934091251+924807666+913817972+900548006+887777449+884102776+893500577
666+903487467+905154477+902095059+899497582+898469396+897453176+897512822
656+902420424+913094302+923765762+926928458+921625270+914131612+910264343
646+908830056+904322634+895292620+885103163+877757080+876094059+880923160
636+890209223+898194613+898880936+891704244+881172682+874225630+876584765
626+887940494+901840037+910067336+908394827+898811138+887089071+881176429
616+885597434+895343564+897003624+886348118+872009236+859009159+847130272
606+837711319+833256654+834417125+841188743+852571304
##END=
