##TITLE=<SNM>
##JCAMP-DX=4.24
##DATA TYPE=INFRARED SPECTRUM
##DATE=29/4/2025
##SAMPLING PROCEDURE=Instrument type and / or accessory
##ORIGIN=Admin
##XUNITS=1/CM
##YUNITS=ABSORBANCE
##RESOLUTION=4
##FIRSTX=4497.3318
##LASTX=599.83466
##DELTAX=-1.4281778
##MAXY=2.1549397
##MINY=0.407078
##XFACTOR=1
##YFACTOR=2.0069439e-09
##NPOINTS=2730
##FIRSTY=0.41970795
##XYDATA=(X++(Y..Y))
4497+209127891+210549161+211530037+211660312+210954392+209651948+208011720
4487+206584733+206217279+207260865+209065745+210690529+211717454+211899183
4477+210757946+208395909+206135621+205459043+206542916+208222436+209149541
4467+208840269+207886137+207350556+207827600+208904226+209596217+209482365
4457+209183606+209420309+210023678+210246021+209732596+208855920+208216125
4447+208004503+207940264+207751050+207397303+206855916+206208637+205980933
4437+206684032+207945699+208820741+208946235+208642799+207999900+206836255
4427+205582666+205180049+205915758+207135876+208155152+208670864+208364443
4417+207089931+205489025+204649220+205152503+206734268+208477775+209252984
4407+208540990+206909701+205390052+204570651+204426744+204673366+205019629
4397+205196235+205002121+204525122+204185541+204303269+204740115+205176307
4387+205475467+205580320+205352631+204753405+204093845+203899627+204343794
4377+204976832+205336698+205548750+205839594+205926761+205481273+204687473
4367+203959293+203600259+203773836+204334973+204832064+205005433+205070815
4357+205331812+205690653+205685351+205103811+204446939+204387615+204838211
4347+205083512+204806344+204401173+204307679+204517712+204707134+204578536
4337+204067443+203364299+202834762+202856443+203482338+204261883+204669520
4327+204635796+204451973+204356817+204429595+204707624+205179396+205649445
4317+205790071+205560318+205381336+205499093+205511908+205084314+204634935
4307+204632128+204823243+204833727+204907009+205434438+206162484+206335244
4297+205543048+204223616+203238775+203119711+203899998+205298950+206681493
4287+207356080+207367039+207437723+207850542+208039147+207541166+206761710
4277+206427431+206579936+206491581+205678120+204650126+204282346+204772205
4267+205643624+206446780+206995844+207117269+206666376+205873243+205354309
4257+205498306+205992619+206314113+206468223+206752013+207107543+207250336
4247+207197680+207257969+207676683+208436300+209215741+209608394+209503675
4237+209077372+208387326+207373588+206336848+205885747+206134700+206508792
4227+206662411+206849278+207140360+207271824+207499320+208391231+209593619
4217+210110311+209837806+209485959+209271739+208953259+208688892+208768456
4207+209015167+209264507+209821738+210794937+211569863+211530452+210829225
4197+210036879+209439628+209048133+208945924+209217359+209669307+209910598
4187+209776521+209556985+209646617+210014635+210291847+210400546+210737365
4177+211621332+212827551+213769639+214090272+213989473+213845788+213689466
4167+213431766+213317216+213441671+213179902+212031137+210670943+210209966
4157+210760827+211470312+211674657+211456665+211205855+211074614+210996401
4147+211036421+211361390+211828484+212012055+211772471+211476682+211559558
4137+212057688+212622418+212998425+213376511+213987156+214516218+214462997
4127+213903464+213323542+212922840+212581374+212286698+212176009+212285377
4117+212563257+213071916+213910087+214854566+215311934+214961840+214327643
4107+214301908+215112622+216070422+216394396+216001490+215388469+215065594
4097+215240106+215739677+216059656+215706191+214678331+213570164+213148554
4087+213762496+215033311+216137720+216446651+215840817+214620477+213358067
4077+212622062+212541161+212803405+213180154+213656144+213997402+213775074
4067+212996272+212199145+211784871+211725636+211980069+212691602+213867943
4057+215187331+216142992+216317549+215736232+214940753+214460071+214369919
4047+214515728+214826886+215208076+215377183+215048502+214271081+213493526
4037+213126339+213094784+213126562+213320260+213916828+214710258+215281477
4027+215577786+215751259+215741860+215489713+215299520+215593200+216380244
4017+217196334+217555664+217352596+216821559+216282385+215975176+215963401
4007+216167687+216489032+216832607+217121091+217367654+217576112+217545537
3997+217032632+216151070+215356141+214988272+215037840+215329961+215725079
3987+216168622+216688655+217275452+217725024+217805108+217543903+217107459
3977+216623570+216407315+216835741+217631264+217955668+217581963+217221875
3967+217500483+218294269+219044946+219287158+219040907+218835195+219061073
3957+219429803+219389650+218861286+218306119+218209745+218565007+218836220
3947+218576471+217969612+217532202+217489732+217601312+217560045+217476174
3937+217710041+218307247+219017875+219791049+220662023+221246504+221100369
3927+220435463+219899600+219888597+220324908+220886371+221285825+221416146
3917+221347214+221163019+220831235+220343321+219876821+219635322+219590506
3907+219712257+220370927+221876216+223588672+224543591+224902803+225239651
3897+225124923+224011381+222591581+222186409+223085998+223942271+223609491
3887+222814934+222957772+224187408+225526471+226507481+227008952+226396049
3878+224625858+222960341+222535137+223298660+224631976+225946492+226382655
3868+225571792+224519490+224464205+225403101+226275367+226384986+225752898
3858+224758212+224497587+226844671+231746614+234704685+233146917+229575646
3848+226806507+225831022+226193605+226959711+227634031+228457100+229761816
3838+231064082+231426575+230815945+229995326+229406866+228865613+228304164
3828+228151703+228600651+229302028+230235281+231777293+233287914+233633167
3818+233484775+234125773+235105342+235091161+234069745+233065793+233198237
3808+234987867+237349013+238599439+238808001+239037948+239234200+238875849
3798+238710633+239682034+241425200+242888138+243743965+244445149+245501891
3788+247217213+249663953+252438482+254911239+257253615+260522458+265182769
3778+270329642+275059508+279460099+283859502+288319342+292716874+296678630
3768+299959442+302893932+305784377+308379821+310585937+313048596+316486041
3758+320955683+326207780+332259201+339371746+347790669+356768591+364106077
3748+368986103+373271372+378799701+384806455+389259197+392086948+394330397
3738+396812033+400648844+406547552+413040452+417735718+420065443+421155820
3728+422017542+422847457+423538171+424206552+424784736+424565407+422966224
3718+420556846+418931082+419662157+422949949+426474502+426897478+424279404
3708+421903022+422045459+424503069+427666836+430102260+431594259+432670945
3698+433784398+435463116+438029751+440992693+443598026+445732656+447578046
3688+448868328+449281147+449052553+448866131+449382422+450446069+451154217
3678+451313345+451964857+453505622+454444325+453910779+452599440+451094403
3668+449515029+448356641+448414138+449751523+451458604+452690913+453467369
3658+454267615+455203466+455849097+456067119+456491848+457860536+459491141
3648+459319925+457107453+454824475+453998332+454499862+455169639+455383176
3638+455694394+456768822+458517393+460428686+462022315+462941684+463256882
3628+463610688+464000847+464028675+464523612+466805967+470566302+473251704
3618+473102199+471906568+472380716+474897248+477755827+479784342+481536892
3608+483850639+486703099+489693958+492377519+494030577+494286762+493959774
3598+494376216+495945255+497921648+499397580+500259629+501165455+502736603
3588+504707739+505995556+506008030+505274697+504672694+504675604+505319899
3578+506138647+506299616+505497678+504370118+503752018+503732417+503811951
3568+503911563+504735478+506707387+509063840+510483225+510305743+509261162
3558+508972902+510445448+512852153+514207209+513691749+512468914+512009883
3548+512798456+514422290+515713731+515326156+512963406+509814577+507576861
3538+507073815+507910264+508861232+508919384+508281979+507683540+507216847
3528+506462784+505347816+504220256+503219393+502239735+501564909+501697308
3518+502240329+501754272+499554986+497148697+496670955+498327636+500358468
3508+501322861+501449379+501511985+501580947+501468328+501704911+503041495
3498+504987208+505547573+503128216+498905583+495977419+496076169+498401469
3488+501266254+503546678+504559718+503920651+501930210+499372395+496942733
3478+495221485+494619601+494717312+494184478+492288184+490092462+489351437
3468+490791255+493776856+496776714+498137829+497283175+495211239+493206721
3458+491546268+490216218+489667199+489979278+490318206+489759356+488211938
3448+486650710+486330849+487336554+488384668+488553033+488287403+488111376
3438+487560337+486129756+484355436+483303342+483390806+484063404+484503784
3428+484262775+483085558+480737271+477568247+474784302+473403646+473442106
3418+474630104+476862237+479261785+480150979+479171172+478172299+478653575
3408+479654527+479254865+477163090+474641360+472763717+472059549+473098754
3398+475977914+479448890+481733650+482202481+481486938+480307909+478895356
3388+477314586+476005118+475773583+476920893+478637299+479859986+480491272
3378+481124133+481845408+482041007+481420026+480886599+481912647+484593416
3368+486868286+486771912+485096431+484356743+485568589+487454044+488565121
3358+488905088+489296939+490241819+491674747+493333061+494848760+495594418
3348+495100223+493585415+491982312+491289904+491642285+492217143+492246159
3338+491792058+491321861+490936454+490475819+490122755+490351172+491256136
3328+492341137+493078212+493314945+493085459+492302796+490816321+488839898
3318+487143538+486478989+486723206+486992726+486867276+486994805+487978918
3308+489260676+489856769+489734527+489591258+489592179+489309205+488772065
3298+488636547+489232670+490015689+490193677+489748575+489509942+490131101
3288+491382536+492543419+493177408+493574159+494453167+496103314+498006380
3278+499401797+499909416+499475630+498195089+496435114+494773265+493620817
3268+493153945+493495367+494438525+495152375+494936521+494270695+494125495
3258+494145394+492948278+490597942+488943281+488986820+489813349+490542672
3248+491513034+492869843+493615174+493037792+492015990+491832568+492388716
3238+492467656+491410305+489770522+488462837+487892345+487868437+488019249
3228+488225540+488485735+488397380+487368094+485521576+483875883+483316439
3218+483632142+483886872+483598522+483068332+482607816+482126362+481552514
3208+481114718+480918971+480623642+479854818+478794200+478060630+477894611
3198+477777745+477107553+476061873+475431062+475468067+475318561+474083015
3188+472104008+470621632+470263608+470501617+470576727+470168927+469203257
3178+467762103+466262946+465279219+465121160+465563886+465746061+464648557
3168+462247198+459942272+459194416+459864222+460454286+459945420+458717506
3158+457499750+456403344+455453920+454955716+454795548+454314272+453230637
3148+452033135+451181718+450557887+449917067+449349188+449069956+448998797
3138+448726544+447924577+446675933+445325955+444127622+443229073+442875444
3128+443223044+443852518+443878178+442905856+441624335+441098837+441647233
3118+442613467+443114434+442768943+441771584+440536869+439443166+438774756
3108+438539627+438348572+437780248+436888440+436102183+435664090+435443396
3098+435264844+435107557+434867261+434303807+433489217+432875602+432663728
3088+432617872+432636910+432829806+432989944+432706643+431914773+430811032
3078+429553449+428402931+427765913+427810759+428201422+428291322+427643196
3068+426517210+425728280+425859253+426729856+427600340+427752815+427017433
3058+425844166+424804130+424169962+423992836+424133640+424136076+423624537
3048+422926991+422713870+422992419+423095950+422679033+422105125+421838397
3038+421988467+422355549+422469653+421821735+420484944+419164161+418254059
3028+417335017+415994276+414626865+413888810+413751659+413643821+413283896
3018+412895846+412759586+412901608+413075111+412869592+412103828+411109231
3008+410323568+409813781+409477260+409270137+408914430+407951047+406441318
2998+405134612+404740503+405339031+406393264+407117331+407071861+406528782
2988+406025944+405683245+405283969+404754878+404133244+403383042+402654431
2978+402352836+402577956+402784662+402326938+401205050+400055186+399486209
2968+399573227+399960149+400267060+400246597+399695855+398582907+397288259
2958+396383384+396080749+396087105+396037477+395912919+395943360+396185171
2948+396325381+396016331+395330844+394610638+393970561+393352223+392940266
2938+392982468+393253563+393230546+392735282+392003820+391300662+390754968
2928+390354861+389938686+389331901+388488057+387490580+386596248+386121031
2918+386018657+385885783+385634469+385661584+386125070+386616770+386727578
2908+386454612+385983523+385495803+385201484+385203533+385339526+385380808
2898+385270802+385047642+384740790+384385142+383942742+383336017+382718066
2888+382364912+382148554+381609840+380689343+379877604+379585304+379787764
2878+380213116+380541530+380551776+380277355+379914401+379601639+379412455
2868+379380231+379342870+378961858+378141151+377287714+376887696+376902515
2858+376850126+376453374+375952824+375747573+375942756+376274823+376318421
2848+375799012+374855201+373942128+373396138+373235614+373382417+373710266
2838+373834468+373401840+372705572+372425716+372704176+373041054+372997901
2828+372452178+371419091+370180902+369324377+369201422+369490068+369525470
2818+369011139+368281103+367808974+367598763+367314542+366932610+366859728
2808+367273884+367656053+367285615+366159332+365043800+364507640+364335860
2798+364071953+363652155+363256116+362987932+362924910+363139724+363574580
2788+364047095+364294251+364030849+363245662+362348092+361706441+361214919
2778+360598631+359893750+359332642+358982103+358745459+358539971+358301783
2768+357945392+357434893+356854095+356368869+356085658+355886554+355494970
2758+354860090+354336612+354262631+354515104+354693478+354590718+354310091
2748+354031334+353781029+353419411+352841851+352123219+351379313+350616044
2738+349887849+349430362+349382458+349512332+349455607+349133014+348777158
2728+348663677+348892777+349274768+349432530+349178721+348690852+348164968
2718+347530534+346724289+345976968+345567862+345489842+345522986+345464152
2708+345205680+344759806+344264660+343858880+343581757+343464772+343535456
2698+343584252+343193083+342254618+341287285+340936597+341234450+341595979
2688+341521018+341041613+340443798+339897154+339518697+339439193+339540526
2678+339432837+338964480+338504113+338469751+338784978+339025661+338936415
2668+338591488+338157612+337754416+337542334+337633600+337820972+337715837
2658+337257132+336746662+336349851+335958861+335534519+335188553+334946801
2648+334717048+334432203+334067022+333660707+333395463+333446219+333703533
2638+333819895+333566323+333064406+332680781+332717133+333126656+333499797
2628+333402650+332789035+332044506+331590494+331498426+331524324+331424802
2618+331153381+330833402+330643059+330676293+330868655+331089587+331256081
2608+331318390+331270069+331205028+331193564+331136452+330956030+330804831
2598+330827492+330933577+331029506+331203246+331488774+331703381+331645972
2588+331268673+330685470+330201967+330160536+330503354+330698656+330386637
2578+329869662+329667084+329844774+330056500+330020059+329732422+329372052
2568+329120351+328986467+328818221+328566550+328427885+328601031+328987418
2558+329250523+329204846+329072001+329194302+329533259+329714900+329560167
2548+329252364+329002149+328875927+328891430+329002891+329068794+329004792
2538+328887628+328875006+329105175+329559454+329926121+329844210+329414760
2528+329153377+329321356+329678548+329966838+330165585+330180613+329812343
2518+329182571+328742370+328725500+328921604+329049756+329105264+329275738
2508+329663461+330152132+330496256+330530945+330330416+330125194+330000695
2498+329793722+329444013+329277252+329623842+330274195+330655741+330508136
2488+330114681+329876345+329858199+329828440+329653512+329507065+329628832
2478+329979579+330233923+330110493+329667500+329231813+329064784+329175562
2468+329422363+329679231+329902747+330071231+330069211+329772457+329307308
2458+328978746+328871888+328813232+328723243+328685080+328724996+328810173
2448+328966925+329209479+329467238+329670559+329800493+329842339+329793306
2438+329730730+329792623+330019346+330247882+330264870+330060272+329853417
2428+329876671+330182573+330642733+331100427+331486012+331760730+331866192
2418+331857995+331950181+332257835+332623492+332832485+332875193+332885855
2408+332933938+332993722+333069633+333229504+333480136+333729728+333958204
2398+334290805+334776714+335227399+335443758+335532589+335832254+336525433
2388+337427725+338145347+338354934+337947372+337023489+335810157+334534161
2378+333333392+332277110+331438226+330899334+330640654+330420820+329920181
2368+329126529+328386929+327922790+327569191+327133474+326664910+326298748
2358+326199078+326631439+327949430+330578404+334519073+338589053+340952397
2348+340610797+338242255+335879089+335322437+336663237+338915358+341269466
2338+343243542+344601984+345411228+345869130+346180200+346612502+347360387
2328+348285666+348981667+349138300+348871631+348741816+349315159+350622399
2318+352138485+353264530+353746637+353754151+353683853+353790087+353942830
2308+353882630+353699772+353760804+354104335+354288559+354025721+353620208
2298+353532209+353827360+354287311+354777378+355285561+355785072+356233530
2288+356636727+357030330+357404600+357665091+357695503+357459246+356996414
2278+356365543+355682135+355130828+354834252+354804375+355025901+355383479
2268+355541687+355219302+354587511+354081466+353842506+353652610+353374477
2258+353157999+353205191+353537020+354012297+354453508+354748273+354924627
2248+355138372+355496960+355904225+356181111+356297146+356359247+356443979
2238+356555767+356652764+356640290+356429486+356018389+355502187+355077073
2228+354943278+355039919+355045562+354812631+354562861+354531855+354718277
2218+355062253+355585969+356303739+357169976+358125013+359141201+360264930
2208+361573062+363034649+364509660+365926609+367331055+368728462+370041167
2198+371273506+372567085+374016020+375554765+377109875+378744104+380525819
2188+382304534+383779040+384825522+385623005+386414459+387264569+388069002
2178+388691646+389084596+389312211+389441551+389472646+389426048+389359195
2168+389229231+388899629+388343007+387690366+387024005+386244282+385248616
2158+384157616+383208637+382493777+381949005+381471412+380966496+380481300
2148+380203018+380143471+380261852+381108072+383594994+387880263+393201262
2138+398880820+404797645+410953667+417216339+423403367+429351405+435046881
2128+440649696+446283072+451936613+457473377+462597114+467049946+470837099
2118+474055692+476750954+479063869+481206667+483335209+485709096+488779638
2108+492940141+498312074+504706610+511632228+518449206+524681525+530105610
2098+534433854+537133571+537917155+537189525+535534091+533059375+529613494
2088+525141150+519531920+512550052+504096351+494481886+484489231+474890626
2078+465829902+457094177+448816087+441372991+434940083+429569278+425298770
2068+421965331+419210937+416703493+414313033+412219684+410693175+409655811
2058+408755005+407826756+406977566+406433328+406472977+407157187+408167495
2048+409280918+410802765+413299429+417175443+422574788+429460787+437761389
2038+447428065+458313597+470103767+482275066+494013916+504579498+513822841
2028+521823036+528292058+532986136+536194958+538331103+539588092+540110679
2018+540023423+539329056+537918343+535617664+532389954+528537730+524487233
2008+520374190+515949542+510904300+505334867+499767989+494569202+489601326
1998+484703095+480152167+476335343+473223282+470463008+467882652+465648113
1988+463931707+462718019+461956175+461618109+461597409+461800700+462289578
1978+463160419+464394302+465863492+467349225+468646011+469799528+471082029
1968+472635654+474317847+475956411+477584462+479322074+481149080+482932072
1958+484636628+486372072+488255120+490372288+492801267+495500598+498188109
1948+500472157+502289808+504196497+506869663+510236128+513551213+516413206
1938+519000958+521420968+523622867+525822866+528402420+531395684+534311553
1928+536524856+537984513+539447734+541690558+544614980+547527225+550043698
1918+552162974+553813478+554993012+556081725+557457392+558931780+559988240
1908+560602538+561370679+562714806+564391563+565852289+566798209+567335586
1898+567780124+568393116+569194044+570035957+570895155+571876833+572879716
1888+573594635+574021234+574556177+575375993+576121919+576406497+576358859
1878+576431088+576830720+577316183+577490874+577161807+576418436+575540586
1868+574839269+574358796+573774553+572755276+571353711+569971094+568944927
1858+568285129+567786658+567167133+566151776+564721343+563218326+562012182
1848+561228657+560825877+560536547+559841288+558621958+557419674+556532440
1838+555596499+554178362+552344377+550589154+549483393+549194776+549043844
1828+548120793+546464409+544746310+543241451+541853191+540668727+539825329
1818+539162799+538437188+537649922+536956089+536461894+536157952+535927962
1808+535688824+535536942+535675281+536271581+537327864+538482094+539126923
1798+539067584+538817219+539073583+540161405+541753224+543027557+543627244
1788+544089838+545017642+546371035+547692828+548854245+550178354+551837411
1778+553574696+555137647+556694598+558669833+561179356+563674743+565491206
1768+566494683+567029922+567693521+568921940+570529736+571878555+572791806
1758+573692999+574685309+575435570+576093645+577517782+580226765+583374346
1748+585570543+586674819+587632500+589170563+591369789+593997634+596597978
1738+598599586+599941693+601145639+602506873+603653144+604428233+605205759
1728+606209057+607381285+608681873+610111474+611571071+612999603+614564038
1718+616496269+618568442+620089398+620861637+621269585+621641181+622153077
1708+623077257+624568157+626211236+627633590+629422077+632351428+635650357
1698+637671091+638569195+639457974+640475528+641145780+641420497+641771126
1688+642959213+645697658+649940725+653907767+655734684+656286495+656989000
1678+658099988+659409723+660811407+662312108+664161359+666808033+670113852
1668+672910448+674440076+675315431+676311898+677354222+677894510+678020494
1658+678536369+680310422+684044028+689281542+692351549+691167739+689219887
1648+689522403+692135874+694525828+695058216+694879902+695236946+696211080
1638+697579857+699322072+700655091+700389581+699314291+699308114+701045398
1628+703577493+705859581+708305548+711805897+716009582+720068275+724593959
1618+730996812+738464380+743188930+743834175+743076489+743035029+743693104
1608+744101528+743646298+742406297+741206627+741431747+744046346+748642596
1598+753819286+758424743+762137500+765107242+767667195+770264688+772883208
1588+774668665+775006167+774777067+775605378+777948526+780574352+782212679
1578+783225244+785028639+787819177+790192381+791775289+793467788+795854535
1568+798718370+801822650+805146942+808365920+811361798+815101047+820675767
1558+826030534+827964843+827985514+828581102+830266294+832372324+834032035
1548+834554147+833849206+832469797+830715821+828294742+826060530+826349919
1538+828781215+830440866+830174642+828457672+826499544+825914113+827402281
1528+829925228+831422900+830963869+829848189+829980766+831996986+834723967
1518+836797744+838264172+840114076+842886913+846053621+848607634+850193571
1508+852126812+856750800+863406095+868328620+870490960+871331863+872370861
1498+874555950+878100966+882348072+886237242+889255454+891837503+895142550
1488+899564227+903536080+905640032+906702254+908207528+909942437+910561784
1478+909819007+908839230+908733739+910235331+913640761+917667498+920449660
1468+921986654+923301438+924222945+923396000+920746415+917606674+914231359
1458+909398823+903443538+899677084+899436105+900575248+900424970+898240177
1448+896213919+897114934+900945181+905013081+906795568+906348714+905895682
1438+907229533+909820255+911617591+911814675+911043624+910012052+909570365
1428+910233786+911360634+911914702+911441772+910184307+909207203+910315281
1418+914589769+920692362+925771699+927119508+923746035+918358004+915365394
1408+916149096+918312268+919203185+918670143+918148566+918298725+918219844
1398+916483094+913172107+910562853+911128980+914871199+919241378+921934383
1388+922618593+922170967+921691622+922404759+924995837+928482583+931178143
1378+933017355+935357118+938311655+940088974+939832492+939469270+941425260
1368+946009273+951566708+956300821+959420069+961119280+962307961+963984481
1358+966296683+968265147+968945437+968727860+968769677+969701994+971849604
1348+975782491+981531248+987825520+992691260+995032805+995603446+996327334
1338+998065153+999419437+999273198+999357307+1002227676+1007731295+1013888891
1328+1020140337+1026621536+1031395624+1032299192+1030576163+1028755602
1320+1027150775+1025782117+1027045759+1033300412+1043431406+1053752118
1311+1061072260+1064454881+1065453606+1066924667+1070323563+1073659972
1302+1073741823+1070491661+1066566138+1063715608+1062215798+1061761519
1294+1061051352+1058281128+1053324568+1048114377+1044810162+1043919898
1285+1043385907+1040403631+1034877559+1029282822+1025581826+1023153500
1277+1019301394+1012362946+1004310659+998727089+996767298+996396949+995152196
1267+992402406+988842837+985595466+983417386+981683427+978770172+973851568
1257+967835577+962338729+958271957+955455522+953076497+949874863+944081439
1247+934741929+923288726+912366486+903103482+894300934+884409553+873753834
1237+864114243+856520275+850334464+844526012+838948382+834017066+829985280
1227+826920322+824741113+823065484+821532886+820245425+819493263+819142990
1217+818590348+817485062+816416900+816513185+818109636+820174206+821693261
1207+823440050+827337833+834025798+841747592+847768928+850786368+851676037
1197+851963466+852530899+854003267+856950913+861043939+864989420+867771463
1187+869624575+871879873+875846559+881413972+887078562+891777927+895842976
1177+899630991+902846821+905770708+909487683+914844172+922244799+931753238
1167+941984615+949526669+951891677+950504427+948492959+947322038+947254502
1157+949415000+954947725+962774595+970210089+975311403+977656036+978145954
1147+978332703+978698063+978397566+976902983+974634617+972442103+971687208
1137+973206976+975807914+977925052+979464243+980958232+983041988+986691307
1127+991958521+996760289+998666503+997746303+996902489+999453176+1006162108
1117+1014509248+1020398720+1020739192+1015235929+1007140875+1001312584
1108+1000315047+1003307658+1007468873+1009650814+1008265762+1004502516
1100+1000956312+998935934+998675413+1000858899+1005502548+1010769049+1014837959
1090+1017925370+1020185004+1019957984+1016742748+1012266008+1007072092
1081+1000263014+992873851+987594044+984873656+981926367+976150821+968629200
1071+963017178+961516715+962736045+963126352+960879548+957688962+956285437
1061+957992250+961148860+962758320+961621850+958965137+956883460+955585961
1051+953951020+952035183+951363862+952988350+956008937+958820324+961025312
1041+963445203+966767653+971562115+977385833+981082731+979069362+972704169
1031+967589430+966443873+966888410+966172184+964974534+965394778+966970024
1021+966725243+963218064+958735859+956526713+957679399+961017115+964438404
1011+965904357+964275593+959510355+952093275+942981736+933915994+927047339
1001+923215547+920910236+917215595+910240261+901205524+893165830+887912099
991+884273650+879943505+874566820+869749252+866452521+863891083+861126622
981+858502519+856593869+854788336+852367672+850019296+848746270+847897466
971+845520698+840880494+835837331+832881487+832040881+830730314+827242737
961+823023251+820170880+818940145+818944659+820583046+823972319+827650863
951+829432875+828817745+828352358+831382450+838350181+846595394+853390453
941+858057209+861280820+863781909+866319231+869932437+875612767+883076890
931+890459638+896594425+902487342+909242843+916148443+921975309+925919363
921+926993168+924967504+921385542+918043134+914959584+911160699+907253708
911+905382064+906315807+908359766+909546903+909292737+908037292+906601751
901+905852619+906634658+909419434+913298269+915865350+916019726+916170895
891+919142895+924342157+929273948+932878422+935152491+935876201+935019498
881+933703763+933707743+935122791+935863905+934213639+931205110+929826472
871+932175442+937609862+943310625+946929414+948299023+947608160+944419653
861+940405983+939401675+942559948+946564411+948790248+951116943+955524365
851+960027418+961304662+959563160+957875948+957618100+957047697+954529204
841+952026274+953436689+959314340+965234224+966997822+966114687+966807926
831+970421487+975081353+977727552+976331749+970931839+964585296+962004613
821+965206544+972377774+981029985+990344072+999197287+1005066920+1006266055
811+1003322388+999413497+997751530+999082767+1003274751+1009957785+1015317186
801+1013852658+1007846290+1006159732+1011806620+1017523955+1014168301
793+1001724333+987001486+974630459+966491094+964483428+968700775+974549083
783+975119011+969315430+963118809+960440118+958791456+954077063+945931462
773+937354687+930734139+927150930+928685488+936920425+949025169+958467853
763+961454822+960694106+960901288+963974027+968447975+971004661+970139761
753+967858683+967032986+967570482+966390652+961318265+954745711+951649509
743+954475627+960832445+965167995+963731741+958842539+956283120+958808979
733+964126681+968717703+971575242+972217577+968320090+959512493+951306246
723+949882941+954334140+957375814+954557418+950474074+951352577+956765614
713+961872155+962679854+958072795+950917008+945618491+944670255+947840764
703+953587026+961540533+972399574+984557360+990894874+984177388+968671670
693+956789848+956424845+966516517+979357326+985111131+977183462+957491937
683+935534304+920805457+916661645+921244946+930964487+940358643+943055984
673+937666944+928380299+919476714+916061543+923737244+936450999+941447178
663+936207406+929114879+927588221+930614570+933742907+935057037+933679113
653+927163701+917654668+913709485+918799632+926226869+926931215+921093420
643+917275171+920246043+926722846+931455355+932537535+930960982+930838265
633+937383139+946177371+942964986+927161265+914187523+910421188+906540927
623+893369804+876631449+866642418+863854494+862488568+861760878+866405181
613+877118635+885107722+882116774+870573524+858862770+853676516+855525826
603+863714433+877959598+890936786
##END=
