##TITLE=<SNM>
##JCAMP-DX=4.24
##DATA TYPE=INFRARED SPECTRUM
##DATE=29/4/2025
##SAMPLING PROCEDURE=Instrument type and / or accessory
##ORIGIN=Admin
##XUNITS=1/CM
##YUNITS=ABSORBANCE
##RESOLUTION=4
##FIRSTX=4497.3318
##LASTX=599.83466
##DELTAX=-1.4281778
##MAXY=2.113122
##MINY=0.39048225
##XFACTOR=1
##YFACTOR=1.9679982e-09
##NPOINTS=2730
##FIRSTY=0.40126285
##XYDATA=(X++(Y..Y))
4497+203893910+202942143+202488217+202583379+203047329+203417102+203233230
4487+202450586+201488112+200987424+201319217+202046588+202194176+201433217
4477+200619891+200725184+201667078+202600854+202911280+202488005+201546475
4467+200630022+200370191+200958348+202033852+203031565+203460897+203053296
4457+201950518+200752730+200188575+200587757+201607912+202567205+203187406
4447+203736175+204305010+204506796+204141218+203596719+203249025+202924894
4437+202385166+201923881+201931831+202248420+202493987+202641015+202767145
4427+202684401+202299499+201874377+201541599+201118309+200551534+200007671
4417+199547022+199158017+198989455+199172433+199581216+200002871+200250285
4407+200058871+199354533+198614124+198415956+198739345+199210262+199679800
4397+200032749+199931121+199360924+198951641+199241215+199991619+200498986
4387+200414879+200111101+200110586+200314690+200237428+199861673+199569692
4377+199411639+199230024+199255859+199827479+200728288+201330681+201258537
4367+200706633+200269608+200464959+201223571+201808911+201480465+200340752
4357+199277196+198989515+199314025+199596677+199531106+199472970+199952276
4347+200943553+201784727+201991087+201855796+201822116+201637154+200861006
4337+199965466+199936936+200719066+201129954+200666337+200146234+200143175
4327+200265443+200298062+200552639+200861521+200655706+200124776+200078316
4317+200731408+201511145+201902619+202005413+202329120+203144671+204049888
4307+204322394+203646859+202391117+201431445+201677769+203296424+205307189
4297+206266498+205502328+203669272+202203429+202176852+203471301+204997732
4287+205772806+205680824+205082278+204086096+202683901+201352063+200897623
4277+201649647+203085703+204307781+204791509+204625476+204175730+203708766
4267+203369628+203408849+204093940+205176365+205824505+205624854+205241285
4257+205384815+205755542+205779393+205646751+205814178+206167460+206291545
4247+205994355+205319001+204613421+204533767+205343185+206353770+206662696
4237+206286729+206046357+206443358+207146985+207579376+207614494+207525753
4227+207601940+208030682+208719740+209098054+208635027+207726889+207430001
4217+208097480+208888923+208880897+208103961+207167443+206435181+206011361
4207+206091803+206824096+207939654+208916378+209528129+209872098+209890542
4197+209437540+208869206+208810540+209266828+209754781+210221306+210979509
4187+211879789+212383203+212331549+211935728+211243505+210291663+209563428
4177+209722768+210970756+212918282+214829706+215830690+215353897+213811399
4167+212454468+212109288+212340937+212253560+211807812+211731413+212297763
4157+212866476+212765394+212192107+211964789+212611218+213923370+215247348
4147+215996965+215957683+215274682+214235219+213152961+212397589+212282529
4137+212775767+213480756+214004660+214238354+214328094+214562333+215184139
4127+216056358+216609200+216372054+215472244+214504758+214054542+214343646
4117+215154715+216048286+216676362+216893867+216749929+216524881+216536921
4107+216747793+216857190+216914356+217404036+218517535+219685611+220075813
4097+219468560+218571749+218358241+218992222+219664713+219720048+219478630
4087+219529134+219903072+220453264+221222265+221951574+222071571+221587692
4077+221221114+221411498+221798383+221817767+221360949+220743398+220298543
4067+220133162+220152893+220213225+220257141+220308205+220395992+220563160
4057+220813861+220972095+220864712+220753620+221068513+221594052+221705296
4047+221550242+221987010+223145319+224061605+224020278+223403288+222908278
4037+222626140+222288426+222015343+222280914+223225700+224423700+225328735
4027+225717407+225786991+225944287+226355205+226724039+226664707+226144635
4017+225395063+224598411+223879111+223417856+223360932+223617447+223911109
4007+224126676+224407633+224852700+225426698+226131157+226829771+227094660
3997+226712848+226086151+225739365+225720103+225769546+225857530+226300037
3987+227312469+228594379+229550235+229840065+229496824+228718464+227898597
3977+227587747+228002420+228708954+229007689+228540983+227518223+226541742
3967+226235283+226806389+227867114+228832419+229517191+230140421+230791348
3957+231272910+231472062+231528502+231687644+232199736+233071122+233711978
3947+233474135+232822057+232995192+234155349+234782379+233597070+231297579
3937+229629041+229797149+232049195+235584241+238431834+238792991+237209090
3927+236018950+236591509+238020689+238628987+238266483+238258548+239406165
3917+240719907+240378437+237999155+235089125+233160877+232468730+232824419
3907+234892154+239644569+246352536+252134570+254780346+254468603+251798703
3897+247232432+242490209+239900024+240333657+242154826+242835858+242543332
3887+243549161+246106000+247815955+247936740+248382109+248989241+247365558
3878+244193804+242964684+244985035+248617878+252346669+255397443+256138655
3868+254252294+252162994+251457945+250956408+249119611+246589168+245013989
3858+245639521+249802233+258419474+267381622+267929967+260513240+252092517
3848+246500245+244663569+246148856+249635155+253669330+257685136+261497354
3838+263905680+263655268+261497747+259088906+257037995+255100964+253326906
3828+252176215+252082249+253849008+258574331+265173855+268817738+266991223
3818+263280316+260521024+257624320+253572034+249859400+248438624+250350578
3808+254883019+259304670+262174146+265165102+268882612+270572169+269039983
3798+266497122+263770177+259965804+255645796+252703949+251919396+252658413
3788+254273131+256504854+258851093+260958276+263333742+266253585+268450508
3778+268486974+266940129+265723381+266566994+270274024+275692116+279978808
3768+281760256+282292216+282787801+283662972+285792508+289803589+294356443
3758+297362361+299387619+303468844+312206778+325166106+336655548+340543664
3748+339306685+339281880+342599450+345862777+346166343+345989771+349032185
3738+356644656+366577197+373970997+375953065+373871958+370794230+369463119
3728+371554220+376791801+383032425+388543255+393169252+396874647+399573002
3718+402107776+405865931+412162556+421839203+433444341+442421451+445660397
3708+444727953+443446603+445367946+451715089+459545536+464009649+464227139
3698+463361569+463929994+466571561+471428344+478383134+485698248+489366784
3688+486669823+480315593+475358287+474922609+478871208+483990156+487399950
3678+489997025+493569067+496270329+496720968+498104476+502495870+506771326
3668+506728137+502960078+498674476+496119924+496099086+498670448+503520205
3658+509260549+513191309+514784645+517954294+526313550+538473757+546851306
3648+545476400+538451466+532169288+528897148+527927663+528053959+529087289
3638+531313016+534248547+536684162+538114493+540272922+546263800+556023161
3628+562863588+562292497+558891274+558507841+562765337+569140011+573441362
3618+573919593+572698000+571954698+571842030+572872150+576564188+581893478
3608+584363984+581830482+577957751+576864938+578530962+580197773+580555704
3598+581520222+585285797+590610544+593847613+594288712+594980344+597657043
3588+600287949+600681861+599947342+599542769+598351281+595249232+591952377
3578+591076176+593128419+596345195+598854953+601035128+604970068+610908065
3568+615297309+614958701+612098402+610349755+609806650+609134037+608407332
3558+608115487+607987616+608078295+609327207+611707337+613801982+615418032
3548+618037792+621927302+624865135+625205257+624580680+625673675+629091617
3538+632651544+633283753+630612324+627106732+624365824+622360829+621949532
3528+624602426+628859316+630550539+628153206+624654216+623046101+623349576
3518+624575894+626760613+629824500+632303547+632820484+631680302+629845640
3508+628195971+628192458+630384384+633101850+635067291+636867849+638186543
3498+637412469+634993875+633667610+635066382+639062078+645208146+651531938
3488+653838712+650091673+643643462+638934388+637032671+637225901+639124529
3478+641388963+641769488+640062031+638324530+637316035+635607004+632485511
3468+629350328+627897948+628519981+630686648+633903121+637749926+641293680
3458+643695313+645008797+645224198+643921496+641645311+640130237+640390887
3448+641589523+641792385+639534433+635196495+630862918+628491451+628761671
3438+631571209+636081176+640397368+642767018+643196245+642937776+642952132
3428+643285652+643301219+642577483+641404772+639989040+637810197+634829417
3418+632335469+631494461+632230737+633783306+635578050+636991299+637078828
3408+635603733+633864596+633534771+634651633+635933073+637182167+639434970
3398+642452640+644388218+643940819+641130736+636722048+631894915+628180343
3388+626807315+627957916+630969710+634270562+635446301+633038914+628585461
3378+625755813+627101098+631970269+637338569+640510944+641086214+640797943
3368+641761189+644340304+646706744+647256633+646864963+647471125+649482481
3358+651901317+654064290+655983270+657639602+658411919+657457517+655308962
3348+654083794+655058246+656922710+657251384+655130572+651815908+649316690
3338+648523657+648770799+648989107+648607491+647656663+646606252+645975193
3328+646041703+646740726+647812580+649091416+650412533+651392860+651437867
3318+650257039+648441519+647020092+646540650+646931715+648197709+650348506
3308+652646437+654337599+655704994+656950635+656348894+651807246+644996622
3298+641078340+643335565+649805279+655437923+657069784+655821477+655294484
3288+658261272+664129427+668792586+668243363+663441308+659126085+658128918
3278+659533929+661073233+661598227+661254106+660090846+657874871+655538658
3268+654980651+656619296+658946363+661106609+663756959+667003840+669891094
3258+672050431+673839844+674861544+673792839+669969416+664829480+661262526
3248+660976496+662766030+663951946+663243292+661563639+660460588+660846808
3238+662889965+665870866+668114765+667607216+663689843+658399138+654699528
3228+653776442+654898150+656872616+658766943+659602257+658582677+656351256
3218+655023416+655904948+657750210+658163809+656340595+653544323+651194057
3208+649816001+649381565+649593634+650155942+651231855+653051070+654670271
3198+654227960+651151110+647321993+644972756+644055485+642960673+641370003
3188+640695513+641644948+643260574+644763958+646446215+648077349+648259313
3178+646292661+643213993+640335219+638205684+637059868+636926909+636915036
3168+635943250+634372629+633326458+633127897+633163817+632793408+632140361
3158+631627118+630902836+629046853+625804575+622171838+619587454+618889521
3148+619833202+621091321+621292608+620236866+618726154+617583306+617096898
3138+617106650+617319870+617376265+616606552+614568181+612308412+611797774
3128+613454833+615378720+615874154+615537666+615915828+617608505+620210214
3118+622616269+623036409+620393450+616000450+612486196+611090452+610957190
3108+610896919+610799516+611099720+611691891+611858650+610861907+608728313
3098+606515186+605166751+604459187+603612001+602388893+601134651+600227738
3088+599740664+599449182+599148009+598859374+598367878+596996425+594615387
3078+592194975+590695893+590305131+591157890+593537959+596617050+598265084
3068+597216671+594645492+592712276+592299041+592801683+593344668+593304023
3058+592285533+590761919+590128982+590876585+591399519+589784377+586406717
3048+583682225+583209506+583956746+583694461+581900505+580237328+580197834
3038+581470128+582634418+582729761+582029467+581402648+581029755+580068569
3028+577863074+575252945+573919896+574437560+575676902+576302873+576104493
3018+575356830+573975563+572110312+570499592+569565906+568910921+567856208
3008+566086361+564024244+562765822+563065844+564283682+564993426+564589459
2998+563673097+563068933+563063058+563421837+563485318+562318484+559585390
2988+556335177+554269366+554157183+555265382+556234382+556263761+555551896
2978+554842152+554553275+554347930+553650240+552559910+551945691+552474925
2968+553747764+554542554+554095155+552962302+552275879+552250559+551803524
2958+549738015+546084138+542280038+540137782+540391768+541985709+543014739
2948+542543110+541101634+539518535+538134362+537070563+536416426+536157957
2938+536225679+536640852+537510814+538724351+539542038+538878572+536658903
2928+534378296+533436736+533376586+532581130+530576377+528819613+528836210
2918+530395927+531861997+531910698+530614902+528827972+526968778+524849480
2908+522418286+520130835+518595953+518097673+518365530+518793182+519084603
2898+519471246+520043608+520478771+520639595+520655647+520427162+519857041
2888+519260085+518772526+517954173+516621184+515318785+514482018+513804983
2878+512837013+511736688+510997869+510712505+510509764+510149168+509822614
2868+509723212+509565115+508851070+507642409+506663262+506374416+506405036
2858+506264656+506024359+505804506+505291779+504316509+503238900+502332230
2848+501324280+499756113+497594989+495542503+494616783+495119304+496146940
2838+496522710+496013193+495130328+494255066+493549350+493095833+492616209
2828+491561436+489886326+488336392+487703335+488040549+488646833+488669851
2818+487826481+486690539+486140498+486360442+486565091+485992334+484918057
2808+484155189+483750616+482924267+481368276+479833273+479166930+479379756
2798+479803562+479717183+478792614+477292199+475858021+474959135+474564436
2788+474310843+473816863+472865581+471540709+470254786+469429982+469086346
2778+468926340+468778388+468689920+468655393+468579100+468409615+468054106
2768+467402634+466570773+465800607+465072206+464131493+462943276+461835047
2758+461081326+460545156+459883084+459041803+458329212+457987757+457881541
2748+457641759+457022088+456059933+455009370+454085648+453215747+452221639
2738+451245248+450669766+450535716+450361687+449763550+449002288+448597291
2728+448627306+448735491+448635332+448314502+447844873+447194976+446229034
2718+444917186+443532648+442458128+441798479+441354260+440909709+440380051
2708+439793362+439275849+438904168+438496324+437815716+437032102+436650820
2698+436854711+437190351+437049063+436241037+435000575+433670797+432527071
2688+431751816+431368868+431120606+430585103+429688064+428960844+428884703
2678+429152076+429082083+428555605+427985302+427581698+427195388+426735299
2668+426307314+425972401+425617499+425113615+424482011+423811792+423080453
2658+422238264+421473004+421143906+421377449+421896506+422279999+422303956
2648+422035554+421642671+421129611+420332034+419225380+418127327+417491301
2638+417478823+417726509+417609602+416855275+415832940+415100420+414823415
2628+414800518+414826444+414815298+414712444+414439589+413941944+413336175
2618+412930815+412883900+412904526+412569067+411869045+411187498+410829628
2608+410804005+410968281+411162239+411172688+410768600+409960907+409135498
2598+408685222+408572100+408488538+408326533+408173887+407957154+407489523
2588+406887752+406574676+406754732+407126958+407238929+406973797+406579431
2578+406342012+406356671+406556141+406843897+407170602+407521416+407821923
2568+407835945+407279574+406200875+405123053+404590185+404657028+404953628
2558+405100096+404954870+404618988+404307365+404158747+404161655+404248942
2548+404366425+404447927+404458134+404454560+404490844+404493660+404331989
2538+404010341+403710289+403611069+403749359+404032511+404246307+404142514
2528+403725826+403311743+403114787+403007874+402846445+402764094+402950632
2518+403288482+403434405+403288997+403193169+403472869+403931232+404067129
2508+403681758+403030559+402550783+402589854+403133747+403677912+403673581
2498+403198137+402846445+402919224+403106549+403057908+402881638+402880639
2488+403069235+403197955+403163216+403155190+403324978+403519481+403567637
2478+403664979+404148147+404987186+405798876+406254967+406249970+405828103
2468+405190714+404680622+404558989+404783082+405072111+405189503+405081348
2458+404768000+404312454+403938319+403928082+404296250+404735502+404961957
2448+404998241+405044095+405170937+405307168+405491524+405860328+406293310
2438+406392409+405955036+405182355+404391987+403821836+403607919+403638812
2428+403600438+403412326+403399878+403872172+404766243+405781855+406626558
2418+407089070+407065658+406645184+406168316+406056376+406390259+406750734
2408+406734924+406511619+406546237+406950507+407465082+407890008+408170253
2398+408245485+408154019+408155442+408482450+409034339+409463142+409510571
2388+409225904+408927184+408880088+408873425+408208172+406299277+403233481
2378+399627064+396087732+392890037+390032101+387517558+385463921+383787145
2368+382048524+380090655+378521943+377945734+378135178+378616286+379557271
2358+381435819+384281125+387867523+392247166+397290033+401889741+404412461
2348+403884136+400698555+396623932+393639881+392285752+391890114+391955049
2338+392395754+393075605+393745340+394246710+394580442+394831460+395069182
2328+395343612+395746580+396345928+397107645+398021038+399152861+400459803
2318+401735792+402776754+403451396+403732156+403864631+404319723+405358746
2308+406780112+408183155+409331454+410211926+410934087+411687081+412649358
2298+413795537+414870693+415671147+416250778+416761143+417212631+417478459
2288+417492694+417419309+417531371+417841236+418031045+417855411+417357584
2278+416647325+415831819+415160812+414879628+414983573+415299708+415626867
2268+415723361+415461198+415077159+415018917+415505841+416361810+417194459
2258+417669328+417784569+417938518+418496949+419281774+419792382+419902929
2248+419915771+419954447+419813007+419454682+419199696+419254425+419326780
2238+418890043+417759522+416302327+415108022+414565855+414698118+415175289
2228+415480097+415299980+414855943+414698936+415109687+415820037+416368382
2218+416563612+416493377+416304325+416164006+416231334+416496738+416823444
2208+417211086+417826547+418768289+419934306+421090026+422017927+422654497
2198+423081331+423389380+423662447+424051089+424649407+425329743+425918127
2188+426462232+427068728+427589542+427834019+427993086+428436971+429178062
2178+429902223+430390721+430621447+430675812+430759858+431067301+431502888
2168+431785041+431845312+431919636+432256336+432862771+433527388+434048596
2158+434443538+434921132+435654773+436603299+437549887+438325930+439007053
2148+439829464+440901470+442083933+443171022+444089746+444898287+445721819
2138+446768717+448282307+450312198+452565002+454609128+456239110+457595511
2128+458975414+460615452+462624809+464998699+467616612+470268657+472751126
2118+474899985+476542688+477555301+478035349+478328618+478829624+479782209
2108+481249702+483242462+485825908+489008005+492555696+496111898+499511819
2098+502804070+505938223+508544687+510030928+509912082+508155924+505207823
2088+501580084+497429743+492633836+487277954+481913865+477202186+473371615
2078+470147540+467170667+464381603+462022856+460341386+459288278+458524442
2068+457774355+457131727+456885858+457057948+457285918+457223103+456895004
2058+456566028+456392302+456315918+456218546+456089251+456062325+456311769
2048+456920688+457883358+459175035+460720124+462391933+464212662+466466859
2038+469476866+473375885+478165644+483800408+490103696+496712882+503169906
2028+509084097+514268434+518661676+522118203+524538069+526184104+527400730
2018+528041541+527706992+526458685+524758195+522918808+521042956+519128943
2008+516952342+514232271+511100784+508064063+505498154+503424074+501610643
1998+499821685+498233892+497474447+497824533+498602302+498869887+498546302
1988+498266632+498519134+499345695+500490390+501649229+502833176+504362757
1978+506309390+508317293+510143595+511903933+513709155+515562413+517539121
1968+519555322+521140723+521976036+522480375+523397463+525013877+527100284
1958+529371199+531678094+533927748+536093991+538218014+540343673+542598111
1948+545253065+548538895+552404114+556343052+559429533+561082716+561898343
1938+562995518+564802800+567013262+569311799+571608336+573787663+575685746
1928+577329782+579124586+581603329+584722218+587696941+589923758+591467604
1918+592352710+592388206+591958313+591909915+592630078+593926298+595478383
1908+597008055+598358489+599608613+600765937+601434249+601261008+600661387
1898+600596754+601493187+602774628+603882342+605248041+607275752+608913124
1888+608710505+607014860+605447026+604853947+604864790+604745460+604161406
1878+603377156+602795586+602441653+602395617+603372431+605859292+608619038
1868+609135309+606472542+602263384+598349585+595290482+592906416+590972110
1858+589218435+587374324+585515675+584020227+583136030+582829829+583051227
1848+584083951+586300773+588887218+589313900+586260795+581774451+578284244
1838+576289001+575111263+574366992+574513399+576015874+577950846+578254866
1828+576451824+574175154+572080934+569149400+565247594+561895557+560207544
1818+559719440+559357329+559003093+559545532+561311867+563127084+563533535
1808+562549149+561437921+561405453+562987461+565824500+568637551+570110223
1798+570292187+570755274+573205003+577707460+581507926+581221775+577680080
1788+574776471+574655202+576655231+579254214+581896992+584531531+586759984
1778+588712886+591689365+597033678+604478086+611040116+613108411+610927569
1768+607431548+604685915+603835761+605410743+608353482+610607679+611955872
1758+613683923+615576191+616720795+618309466+622564781+629355961+635265307
1748+637365403+636575823+635502090+635620815+637112386+639573079+642147408
1738+644538986+648191470+654323001+660206481+661141015+657970093+654257460
1728+651510374+650442638+651661627+654732238+658785660+664232463+672179333
1718+681429509+687096135+686199581+681854859+678171846+677188187+679615503
1708+685318110+692762580+699296927+704341822+710774829+720679446+730398404
1698+734494834+733399658+729381429+724143303+720499784+720488881+723897433
1688+729638687+737830395+748203127+755847672+755991899+752129466+749430596
1678+750253977+754897692+761377159+766927120+771492876+776123507+778811109
1668+777181006+774083984+773594305+775766727+777723505+778232992+779593360
1658+784201216+792866552+805582039+818639527+821886589+816111536+813212531
1648+816522712+820400591+817577364+810097398+804634300+803736171+806666190
1638+811953806+817298542+818322422+813267047+806762139+803236194+803460863
1628+805622684+807538394+808498005+807784687+804056970+798742460+795828372
1618+797032944+798963434+796488203+790494963+785502161+783504253+783411272
1608+782771066+780206429+776641232+773911833+772586356+771604150+770131296
1598+768896922+768872086+769592310+769915471+769609937+768977848+767860563
1588+766356150+765456992+765698924+766156135+765902573+765827037+767889033
1578+772690482+777462856+777753005+774549495+773004497+774628907+776050758
1568+774139046+770871812+769370246+770500797+775077517+784899814+797775762
1558+802066028+794002615+783787072+776628269+772571030+770508672+769537248
1548+770368443+775049653+784241255+795614789+805569137+810586047+807286891
1538+798770748+792931547+792706394+795604854+797281539+796949352+797519171
1528+800553135+805292072+811204507+818993641+827969782+834605530+837065919
1518+837924312+839446776+841506954+843852375+847456702+853673036+863709159
1508+877394859+888354127+886902474+876714917+867670146+864445617+868378497
1498+877634065+886239978+889433796+889815048+892485024+898564279+904736515
1488+907691430+908183775+908301167+908629962+909151685+910367039+913308022
1478+918607449+925439820+932111851+937957533+942964207+945865030+946168323
1468+945906402+946964991+948724117+949136746+948403136+949291876+953795483
1458+960357028+963584465+961039150+956489083+952840960+950824637+950988732
1448+953568634+957386909+960379985+961554573+961430094+961226202+962356572
1438+965850473+970664219+973368055+973052223+973021391+976098605+982347103
1428+990425418+998820473+1005199084+1007181062+1005513887+1003601388+1003399616
1418+1004057388+1003943570+1002334061+999558142+997310608+997362763+999277927
1408+1001009977+1001714087+1002571511+1004752716+1007915762+1011078991
1400+1013320588+1013452094+1010650310+1005582699+1000304351+996944076+996361295
1390+997914833+999827211+1000509152+1000247715+1000413082+1001399527+1002830888
1380+1004700683+1007471816+1011618523+1017053878+1022809487+1027498995
1371+1030123904+1030549133+1029881487+1030198410+1032244232+1033913164
1362+1033307425+1032474897+1034239414+1037101530+1037460612+1035626556
1354+1035533757+1039079025+1044809072+1051218637+1057326665+1060977816
1345+1061252700+1061040449+1063235283+1066723733+1067681648+1063992457
1337+1057577562+1052047287+1049988139+1052128820+1057470588+1063606965
1328+1067787168+1068791725+1067855374+1067823997+1070399114+1073741338
1320+1073741823+1067658752+1056927967+1047233481+1044453867+1049623121
1311+1058341156+1065722447+1070331271+1072166296+1071017816+1068273213
1302+1065928277+1064033647+1061643523+1058478053+1054724532+1050422817
1294+1045424139+1039606139+1033969497+1030330582+1028956161+1028276037
1285+1026351363+1021739631+1014959112+1009098043+1006446240+1005319445
1277+1002136590+995547787+987255647+980148090+975927726+973309904+968975661
1267+961293924+952169438+944475283+938824285+933433270+926659596+919309016
1257+913850764+911201626+909182456+904861540+897827337+890166256+883707505
1247+878263730+872183385+864274556+855252319+847047586+840709862+835526071
1237+830227976+824486057+818934945+814355196+811186153+809163591+807280470
1227+804861210+802697814+801985889+802191113+801612027+800237060+800195870
1217+802889954+807141150+810868867+813751517+817061274+821203316+824893901
1207+827190620+829019224+831718760+835493119+839907622+844324548+847894833
1197+850590432+853538320+857061358+859819347+861066987+862291004+865313883
1187+869921859+874256647+877138752+879372717+882491605+886875519+891786849
1177+896977122+903373603+911899740+922074880+931672933+938026648+940960665
1167+943150472+946073585+948242191+948743803+948943455+949436829+949534414
1157+950053835+952582067+956585032+960881658+966326402+972910056+976851659
1147+975593237+972492581+971347250+971306908+969864038+966943165+965166654
1137+967324781+973605020+981005149+985896066+987746417+989126290+991272483
1127+992453189+991392843+989679814+989920898+992131845+992988541+990143265
1117+986418395+987017955+993281355+1000646654+1003261932+1000292479+995847810
1107+993565144+993993462+996847279+1002315768+1008187255+1009280250+1003890931
1097+996990294+994223703+996875082+1002187351+1005994359+1006242348+1004876347
1087+1005213622+1007004065+1005381472+996618310+984017004+975000037+973869667
1077+977962039+980596821+978455292+973785349+969725869+967157900+965081851
1067+962014450+956880814+949568335+942367312+939479997+942937070+949824138
1057+955227450+957505512+957724366+956443834+954245608+952237099+951374769
1047+951860027+952286588+950993214+948820732+948684380+951645050+955352474
1037+957124563+956970766+956861370+957950670+959470650+959572414+957018741
1027+952328263+947007332+942148156+938615426+937768179+940243107+944499755
1017+948181920+951261375+955407112+959585680+959075042+950982856+938907635
1007+928600686+921377917+914371760+905901836+898020083+892816726+888880090
997+883486229+876529985+870166153+865780120+862656749+859150490+854690375
987+850379574+847537447+846097606+844888067+843237247+841532698+840348539
977+839685800+838651865+835805740+830584514+824197483+818286563+813145112
967+808267824+804076717+801823127+801787873+802608649+802728888+802206741
957+802395187+803941456+806440068+809875273+814687141+820359461+825605523
947+830103558+834749816+840083165+845304876+849259139+852208299+856121009
937+862706964+871437720+880145458+887206676+892383320+896256899+899899630
927+904233389+908556304+910973323+910954545+909537662+907443865+905076153
917+903271718+902157098+900257380+897033819+894787498+895134283+896451704
907+896937870+896860578+896492531+895622872+895399899+897123590+899711245
897+901324146+902510183+905202026+909358484+913040165+915418113+917461694
887+919663737+921134349+921494885+921664492+922042231+921825497+920910287
877+921188502+924379716+929324483+932948800+933962686+933972741+934373801
867+934535473+934550374+936374496+939823027+941051708+938144222+934636328
857+934625546+938018107+942291231+946349439+950818338+955411594+958152502
847+957232324+953272367+949238510+947961007+950374331+954515586+956957016
837+957231779+958537025+963296012+969047986+971142995+969866218+969814791
827+973079663+976308311+975926514+974272363+975639333+979741881+983231300
817+985089949+986363939+986795528+985879106+984774420+984275594+983842975
807+983605950+984249365+985076683+984189337+981198925+979053641+980938155
797+987336392+997307216+1008924318+1016171740+1010735416+992514914+971861825
787+958248209+953059813+951426802+947407725+939267201+929926709+922011944
777+915557554+910388603+908164028+911359361+919888708+928637697+931587584
767+929446600+927810076+929507416+934208252+941959529+951693812+959183833
757+961363463+959365918+955975658+953479166+954222893+958878359+963832696
747+964269798+959817920+953719766+948332991+945237969+946276205+951710591
737+960064395+969819274+979917243+987282542+985575449+973223102+957760649
727+947679641+945480083+948146181+952633373+958525516+963812586+964192808
717+959506994+955643774+958437017+968618457+981241327+987525140+983531747
707+976063896+972339632+972368525+971206537+965743863+958289459+952388231
697+948379088+944921410+942459627+942622570+945600201+950736018+957313857
687+962056065+958631036+947049734+935471218+929889032+928473299+926622706
677+924472394+924501954+925777398+925153608+921363500+915280066+910250919
667+911281523+917421716+923114631+927317852+931615206+935720479+936930503
657+932488984+924280375+916115258+909454251+905380052+904337576+905491811
647+907167709+908091278+908599614+910389088+914707339+919282848+918027091
637+910285749+902312833+897766582+897271693+899949725+901840539+897320637
627+887532806+880994704+881836620+886059104+886425092+878384999+864917608
617+854671415+854985369+866623732+883219037+897429670+905146176+902495282
607+888425544+867554753+850351952+846918746+855985323+871310697
##END=
