##TITLE=<SNM>
##JCAMP-DX=4.24
##DATA TYPE=INFRARED SPECTRUM
##DATE=29/4/2025
##SAMPLING PROCEDURE=Instrument type and / or accessory
##ORIGIN=Admin
##XUNITS=1/CM
##YUNITS=ABSORBANCE
##RESOLUTION=4
##FIRSTX=4497.3318
##LASTX=599.83466
##DELTAX=-1.4281778
##MAXY=2.068769
##MINY=0.40579522
##XFACTOR=1
##YFACTOR=1.9266913e-09
##NPOINTS=2730
##FIRSTY=0.42057633
##XYDATA=(X++(Y..Y))
4497+218289429+218717587+218326027+217506664+216669714+216060115+215760869
4487+215944290+216873229+218390854+219753875+220266087+219812917+218667641
4477+217150572+215708540+215040378+215620356+216946609+217823204+217771046
4467+217472681+217508304+217668507+217801827+218146566+218552682+218498450
4457+218078351+218041908+218710719+219477042+219554584+218869747+217992286
4447+217463137+217511428+218095103+218757031+218803219+218137006+217485952
4437+217349106+217341155+216904938+216062111+215292633+215017083+215270297
4427+215665523+215673969+215099699+214265981+213655408+213481608+213697651
4417+214142066+214485258+214309787+213621301+213083814+213310855+214037022
4407+214415868+214222841+214225811+214958242+215703590+215454816+214459550
4397+213823964+213937995+214245440+214293453+214148470+213862511+213276098
4387+212458607+211803593+211493303+211363045+211479521+212143645+213032305
4377+213283275+212736817+212125640+211862001+211628339+211213159+210845079
4367+210677714+210617667+210673120+211068826+211960394+213227884+214550905
4357+215551229+215965342+215866980+215662275+215536225+215136992+214340368
4347+213770754+213889487+214172972+213812502+212756817+211622276+211000302
4337+211099190+211686886+212214984+212220351+211712130+211156453+211160537
4327+212074162+213508832+214353578+213909255+212906425+212662230+213400493
4317+214229616+214595329+214800235+215124231+215343724+215284574+215170604
4307+215181324+215125654+214772888+214270220+214094053+214540402+215226537
4297+215289910+214388164+213287637+212983039+213591756+214563032+215422317
4287+215814033+215399378+214280290+213082700+212322518+212069058+212179763
4277+212426294+212522305+212395095+212352418+212778782+213694063+214631633
4267+214962744+214451754+213499968+212773430+212675053+213268240+214480834
4257+216052458+217424776+218061151+217943206+217523432+217220983+217180132
4247+217378882+217679892+217894311+218006579+218147633+218255724+218068993
4237+217535543+216908929+216403430+216022528+215707674+215536921+215740714
4227+216407591+217182514+217477878+217047725+216193713+215426246+215074516
4217+215141725+215436517+215837405+216308054+216663001+216603495+216068236
4207+215399239+215097564+215374784+215949858+216418620+216724487+217019758
4197+217272291+217317504+217140719+216868774+216596612+216363507+216242191
4187+216365038+216796244+217382749+217809221+217803250+217329229+216755702
4177+216730829+217564097+218796815+219679736+219996524+220137763+220433019
4167+220791400+221076679+221360875+221557011+221365902+220877357+220593362
4157+220665830+220783728+220877357+221216356+221762877+222048155+221782026
4147+221221987+220850071+220887860+221263070+221868833+222532200+222890426
4137+222697477+222083794+221296466+220509076+219973074+219869376+219975626
4127+219947706+219822693+219814185+219842492+219715854+219581374+219737881
4117+220073153+220140408+219830612+219502193+219366630+219282561+219223426
4107+219365903+219663433+219950769+220419454+221255259+221985912+222021488
4097+221585318+221387403+221735761+222484914+223355553+223945477+223928833
4087+223432569+222850550+222435013+222426429+223164568+224525733+225572771
4077+225450124+224551364+224046824+224295227+224554349+224237933+223606647
4067+223189487+223273185+223761251+224067985+223659115+222918114+222791539
4057+223521588+224344276+224422669+223695806+222817278+222344525+222090832
4047+221615388+221164817+221423274+222392167+223226503+223219542+222438246
4037+221440583+220816196+220924983+221635017+222318662+222418540+221990892
4027+221564111+221598481+222128435+222774121+223092719+223001565+222844331
4017+223019168+223519500+223886420+223715512+223168513+222759844+222781036
4007+223250942+224108619+225078967+225752233+226110165+226550187+227207104
3997+227636839+227269502+226006838+224439823+223497845+223655666+224493034
3987+225239278+225570559+225586894+225310710+224712310+224042493+223684205
3977+223791847+224279156+224887440+225225156+225093228+224761839+224660414
3967+224976939+225705906+226763849+227934756+228872450+229178208+228627527
3957+227538539+226608595+226131001+225778714+225406473+225527682+226515864
3947+227729014+228129762+227647481+227189362+227381012+228011632+228653653
3937+229008198+228828907+228265944+228042228+228683321+229722903+230197527
3927+229781094+229019737+228514037+228173939+227658340+227273153+227707714
3917+228962319+230157743+230526442+230089096+229267413+228284196+227178704
3907+226318150+226462514+227912775+229844204+231263452+232238270+233092900
3897+233227735+232003773+230089544+229007301+229454392+230382789+230594502
3887+230462249+230776129+231201239+231163791+231316492+232263931+232956873
3878+232320142+231204797+231069312+232068630+233361225+234333305+234615103
3868+234105119+233381690+233166899+233504275+233822299+233598213+232578692
3858+230932867+229775588+231111741+235405076+239007946+239320634+237818291
3848+236270194+235250704+234727851+234562156+234682730+235364024+237102179
3838+239636803+241543065+241705125+240470381+238986878+238043353+237585960
3828+237215158+236711051+236199783+236292808+237603532+239452732+240427704
3818+240675101+241288521+242117907+242051116+241005965+239961417+239967264
3808+241306217+242768203+243062933+243051131+244420370+246699012+247832007
3798+247487856+246994005+247279980+248179452+249113403+249786189+250413175
3788+251522008+253360381+255460861+257185419+258832837+261461739+265329640
3778+269325987+272603685+275646144+279194194+283411396+288256047+293773005
3768+299793946+305660793+310474323+313929193+316804843+320376250+325402404
3758+331414343+337374742+343244064+350316560+360011802+371535656+381233775
3748+387002740+390730530+395381304+401336907+406195882+408890060+410504469
3738+412316252+415219466+419700864+425299834+430595567+434432562+436691652
3728+437625123+437248412+435863798+434489361+433829026+433662744+433753170
3718+434125767+434307023+433601366+432301579+431675831+432559989+434725374
3708+437537450+440202208+442028654+443265177+445132985+448498573+452893040
3698+457074603+460095530+461866353+463073641+464495596+466269667+467899514
3688+468901385+469318684+469617374+470127977+470702433+470746424+469991703
3678+469214274+469371740+470088441+470282906+470169741+470514712+470738381
3668+469737005+467891501+466500916+466016732+465842932+465622078+465851069
3658+467002455+468726564+470146168+470660298+470450364+470519940+471657528
3648+472833447+472617852+471372141+470238543+469767941+469996962+470896589
3638+472510720+475124525+478938751+483101722+486080482+487594813+489062306
3628+491870206+495401458+497699311+497892508+497184284+497808485+500160477
3618+502140522+502765713+503550505+505603745+507963842+509108237+509239623
3608+510351566+513606742+517439592+519471177+519560954+519525934+520394934
3598+521383038+521658928+522017912+523677953+526403995+528725824+529706504
3588+530151058+531487938+533881230+536440279+538375652+539395311+539915783
3578+540815348+542259824+542953787+541648153+539369510+538772131+540934576
3568+543612977+543827922+542002373+540871033+541620186+543208454+544127509
3558+544099605+544192537+545434814+547604746+549575696+550579392+550542578
3548+549548781+547930381+546658034+546692374+547919059+549297641+550048526
3538+550387402+550719843+550371129+548274083+545053246+542807582+542712855
3528+544195569+546005774+546954837+546352817+544933770+544126272+543971776
3518+543620587+543261108+543616937+544429756+544999046+545201060+545117037
3508+544797465+544405688+543735670+542252647+540356873+539691805+541544825
3498+545672776+550675480+554907501+556959318+556116676+553184165+550295459
3488+549104722+549565796+550694847+551952035+553581510+555729725+557389023
3478+556729028+553264413+548886498+545868912+545059805+546070802+547781887
3468+548668583+547695451+545280256+543074933+542594864+543861952+545311316
3458+545423244+544221246+542583727+540915520+539162980+537381174+536029631
3448+535952104+537484254+539395683+539927168+539129569+538661936+539212230
3438+539470301+538023535+535397417+533437109+533106772+533762249+534623020
3428+535632099+536265674+535487565+533611590+532199349+531640702+530881464
3418+529806119+529605404+530518952+531252018+530982873+530506702+530877875
3408+531729798+531705853+530359074+528797596+528415471+529372330+530502680
3398+530700858+530089557+529515813+529327040+529204099+528825191+528182954
3388+527718354+528189884+529679280+531179442+531994613+532689132+534002500
3378+535749472+537098974+537339596+536550164+535675596+535539105+536193964
3368+537465074+539336471+541627178+543943748+545979354+547217919+546842291
3358+544826421+542445380+541050959+540992984+542095924+544422332+547684005
3348+550254871+550413760+548643648+547158521+547567684+549668319+551591256
3338+551544233+550259078+550128465+551532044+552497379+552165433+551602022
3328+551098874+549786063+547884843+546874464+547485332+548988464+550113863
3318+550087382+548946390+547283813+546265762+547413560+551113229+555230104
3308+556519961+554126174+550550374+548553376+548297657+548243889+548000297
3298+548618095+550175488+551101659+550703385+550480025+551780772+553645858
3288+554102848+553038331+552520210+554092144+556865828+558849957+559509457
3278+559879207+560441567+560501459+559695322+558666753+558129390+558234016
3268+558619235+558406640+556851783+554510774+552849372+552685163+553764096
3258+555317963+556340840+556201874+555465220+554969806+554429845+553333277
3248+552364848+552441447+553305125+554157791+554782580+555324707+555565268
3238+554866232+552960681+550769217+549813287+550907069+553692076+556526891
3228+556993657+554152594+550049640+547588659+547893072+550325962+553465561
3218+555535631+555453464+554131433+553552492+554367106+555111247+553897060
3208+550875267+548053322+546526617+545633796+544927707+545012967+545860250
3198+546097902+544819492+542962449+542046859+542080518+541622537+540015274
3188+538281358+537311444+536683066+535829782+535103894+535093932+535843518
3178+536918553+537390022+536124419+533070824+529858834+528260728+528521397
3168+529700440+530835925+531124808+529982889+527902548+526291387+525650449
3158+524973254+523632600+522622160+522886912+523530015+522925335+520924129
3148+518879025+517935562+518030041+518185991+517531782+516225312+515073090
3138+514366320+513859058+513559193+513669419+514074437+514442145+514525333
3128+514250804+513862987+513655590+513329801+512365919+511008745+509898597
3118+509100998+508350422+507693583+507224001+506701581+505978012+505373239
3108+505183445+505151302+504815303+504129601+503413581+502788049+501948037
3098+500688528+499513476+499216828+499739156+500128706+499895570+499549393
3088+499627383+500020459+500224206+499749210+498639588+497715491+497600872
3078+497809444+497579835+497144438+497290767+498041002+498609456+498428881
3068+497547909+496200016+494654934+493388744+492780444+492680705+492645469
3058+492316647+491374823+489690962+487747948+486406984+486224151+487193570
3048+488765380+490071571+490658834+490773670+490636715+490161812+489573126
3038+489322975+489262062+488816022+487913457+486901748+485683818+483853566
3028+481738608+480332214+479943747+479673983+478662243+477287466+476492868
3018+476424994+476330978+475680110+474916324+474632732+474451414+473639461
3008+472533427+472264931+473131147+474072352+473905203+472569839+470919234
2998+469692456+469090653+469097273+469607939+470186880+470173175+469167839
2988+467328894+465353521+464135219+464075760+464669303+465003322+464707602
2978+464179427+463811657+463313706+462139458+460419711+458922798+458150381
2968+457948831+457944500+458017138+458278704+458686104+458863617+458528298
2958+457920679+457486148+457344182+457316772+457180529+456805210+456323439
2948+456030875+455911708+455567233+454793950+453946049+453572648+453782086
2938+453969436+453263285+451416792+449158630+447499332+446825478+446811309
2928+447065543+447542178+448140084+448336746+447725012+446622969+445709359
2918+445318046+445343661+445519379+445613766+445594214+445625553+445688106
2908+445390994+444484685+443285688+442244435+441412404+440721566+440399828
2898+440700343+441513318+442400601+442798534+442298573+441021214+439609716
2888+438667428+438242580+437857517+437024898+435818538+434864030+434682744
2878+435153501+435643191+435508464+434490196+432894905+431500793+431059240
2868+431611205+432321904+432269529+431388556+430377033+429843475+429811116
2858+429838371+429481026+428813761+428319555+428142073+427927778+427489875
2848+427067440+426933331+427194650+427768023+428251340+428184054+427568143
2838+426738464+425826462+424809401+423895451+423388003+423288915+423313540
2828+423145339+422552600+421507790+420310989+419360843+418785738+418474333
2818+418315785+418215304+418073925+417905292+417766542+417534428+417018194
2808+416324634+415827240+415641344+415323289+414375711+413062806+412333700
2798+412752794+413834821+414653673+414815501+414457970+413592466+412116620
2788+410402194+409155710+408564084+408140567+407498794+406765944+406236099
2778+406071363+406211133+406288010+405938368+405311661+404845452+404583638
2768+404201204+403589161+402971982+402536306+402275359+402117244+401968316
2758+401672133+401133501+400528975+400182025+400100106+399868424+399221175
2748+398456586+398002565+397874148+397836499+397755075+397533849+397049820
2738+396329098+395537006+394836268+394433602+394468343+394672615+394534640
2728+393934321+393238905+392792494+392643010+392643413+392577425+392301226
2718+391858869+391352349+390741420+389941005+389088711+388497581+388265188
2708+388127459+387842629+387484604+387167476+386788971+386273882+385775931
2698+385427434+385132364+384730873+384185993+383563122+382987212+382649604
2688+382681190+382937745+383062573+382868046+382512526+382203782+381907969
2678+381464591+380837481+380157131+379580386+379165345+378912627+378877669
2668+379079033+379331071+379397831+379273900+379108453+378962310+378783375
2658+378474909+377983270+377456085+377137070+376991484+376756307+376387546
2648+376041648+375694636+375224992+374726361+374370811+374152493+373981663
2638+373807059+373560435+373204730+372864214+372741737+372867988+372987650
2628+372779325+372234909+371658318+371226324+370847107+370530567+370492268
2618+370741646+370955384+370902700+370674576+370378175+369930156+369289435
2608+368611621+368042549+367582557+367193008+366830373+366459014+366232375
2598+366420096+366951612+367386236+367491264+367430320+367339615+367206712
2588+367144778+367315051+367574916+367554312+367119194+366534251+366105226
2578+365838834+365583765+365329221+365141902+364967359+364747805+364597702
2568+364640208+364775524+364771471+364533200+364213071+364066062+364214432
2558+364554391+364864589+364975155+364860598+364614872+364363081+364200016
2548+364141021+364085985+363906833+363605947+363323777+363187225+363178098
2538+363109729+362782795+362260003+361862410+361805085+362038777+362480083
2528+363102985+363772817+364257125+364426377+364331588+364177371+364209421
2518+364444536+364593866+364446919+364177185+364073487+364144145+364163016
2508+363993671+363749739+363653434+363796483+364072373+364302694+364366484
2498+364252206+364050223+363852633+363652135+363405511+363183512+363177913
2488+363516510+364040478+364310366+363999394+363331697+362940477+363191401
2478+363794937+364197696+364243946+364270211+364576480+365029913+365264564
2468+365111275+364716188+364331774+364093131+363970160+363879516+363772044
2458+363607123+363373677+363176830+363156288+363290675+363437097+363553881
2448+363705840+363848611+363808672+363545838+363256522+363103542+363040370
2438+363053611+363305339+363808239+364239089+364319121+364137865+363931087
2428+363783985+363665778+363583889+363662468+364076735+364793065+365416307
2418+365534700+365215499+364921110+364972216+365327767+365799855+366214988
2408+366426500+366412671+366332979+366350768+366481659+366697563+367060508
2398+367630075+368278005+368752041+368985362+369190408+369548372+369986584
2388+370390890+370850665+371556260+372591727+373888978+375288411+376706499
2378+378393887+380923546+384699597+389458059+394422774+399052882+403435686
2368+407806548+411991452+415457738+417596919+417955842+416577723+414052210
2358+410923594+407230267+402824602+398135653+394319292+392141657+391210970
2348+390876147+391479373+394324335+399828949+406136082+410944352+413807875
2338+415631135+417017421+417852267+417941642+417457334+416744315+415849391
2328+414359840+411908976+408835643+406061649+404214197+403051086+401866350
2318+400270874+398377234+396435550+394579961+392883787+391464586+390406411
2308+389584125+388714753+387681853+386697554+386016708+385615186+385314579
2298+385087290+385027119+385130879+385299327+385458216+385549880+385529029
2288+385450977+385461433+385651506+385959352+386197283+386209689+386070197
2278+386029733+386165914+386216309+385900945+385314238+384861919+384851525
2268+385226163+385676131+385931139+385941317+385874216+385978069+386375662
2258+386985571+387711459+388604775+389661434+390587388+391053969+391132083
2248+391186500+391361785+391437486+391188789+390695665+390296247+390311560
2238+390732262+391149345+391117141+390555059+389704652+388859504+388225868
2228+387818468+387459514+387075997+386864981+386965400+387219418+387463969
2218+387799349+388368607+389085061+389758172+390390788+391199864+392293090
2208+393469163+394540456+395734565+397439463+399594453+401696418+403436026
2198+404997967+406673692+408469636+410185795+411696567+413075459+414508365
2188+416087600+417694430+419124769+420254004+421049005+421596360+422141643
2178+422882876+423739904+424500441+425052622+425320530+425252099+425037402
2168+425003743+425114155+424882040+423963635+422566429+421088789+419620306
2158+417990769+416144987+414310404+412777357+411479704+409938119+407835226
2148+405407502+403077227+401202458+400344131+401002579+402889382+405183492
2138+407563574+410328132+413592126+416952331+419902506+422362621+424820507
2128+427811303+431275794+434751515+438050868+441313810+444620124+447975688
2118+451488409+455332241+459659019+464495812+469635688+474879851+480471705
2108+486975778+494734502+503801955+514305778+526425712+540035878+554575554
2098+568997302+581768785+591654347+598718583+603863780+607618948+610019603
2088+610984567+610189567+607219747+602161852+595611715+588103110+579738314
2078+570475994+560753899+551450929+543167557+535998880+529903011+524706089
2068+519992453+515552170+511577880+508103984+504779727+501337571+497816559
2058+494326793+490905798+487582129+484461587+481688429+479289940+477174332
2048+475302378+473730846+472612160+472261188+472967710+474748186+477589373
2038+481744424+487509738+495061808+504657745+516497891+530253024+545048234
2028+559845239+573721828+586168232+597224547+607019280+615356543+622002521
2018+627033130+630784276+633725450+636163042+637724581+637526156+635303014
2008+631861354+627904171+623093519+616864872+609529449+601926860+594438302
1998+586832929+578830953+570485770+562115776+554076738+546587995+539693908
1988+533425786+528009897+523788395+520818822+518659223+516737060+514915254
1978+513558574+512988728+512958720+512852670+512440135+512125049+512311100
1968+512919957+513750225+514854619+516256403+517751893+519275969+521044038
1958+523138238+525334033+527436277+529439400+531362090+533243634+535192866
1948+537205456+539186801+541317939+544008590+547282885+550604513+553524154
1938+556069219+558385604+560443732+562257340+564156703+566598256+569684582
1928+573031639+576191346+579005310+581444697+583445160+585089361+586679052
1918+588432829+590258688+591991552+593661987+595337620+596889630+598122503
1908+599086168+600041047+601098943+602176268+603293872+604543512+605766299
1898+606689499+607373376+608083364+608736985+608998768+608938442+609074129
1888+609694339+610543292+611257487+611714230+611898301+611742939+611282174
1878+610842817+610824441+611249196+611719551+611822940+611398185+610498249
1868+609360846+608352262+607706436+607308039+606776677+605805155+604387593
1858+602640003+600610769+598420852+596356165+594699219+593596836+593027732
1848+592767682+592473663+591786940+590388497+588362851+586356325+584938392
1838+584036971+583114637+581823171+580233294+578519053+576868046+575526155
1828+574473950+573293793+571713135+569991841+568553490+567473752+566522524
1818+565470381+564295484+563240680+562647323+562684075+563232575+563949616
1808+564389777+564226743+563588342+563074676+563171754+563724400+564243758
1798+564525154+564591606+564470274+564488588+565263603+566800950+568313425
1788+569422181+570533659+572098601+574095228+576219498+578239451+580030909
1778+581509106+582680106+583780323+585276278+587370106+589473835+590938172
1768+591909448+592777705+593619666+594444118+595284038+595924666+596248817
1758+596767989+598054443+599848932+601442336+602778474+604430965+606582521
1748+608684208+610324387+611680757+613129317+614977697+617352056+619835002
1738+621712153+623102243+624975249+627652721+629974983+631303634+632341237
1728+633455252+634269619+634619199+635015183+636045237+637755703+639810800
1718+641950538+644088853+646012471+647441479+648472337+649477704+650616778
1708+651755295+652862937+654110225+655642375+657755385+660846351+664292404
1698+666776092+668697668+671253189+674041290+676050168+677591784+679441216
1688+681487094+683365792+685726724+689458567+693674809+696902824+698925994
1678+700160290+701350408+703505181+706984893+711234361+715705147+719642531
1668+721717055+721830777+721788147+723387738+726845608+730670631+733317972
1658+734330516+734156159+734060875+735638687+738337444+739406725+738919479
1648+738540138+738940639+739676922+740045497+739667765+738523247+737159328
1638+736260815+735852023+735509745+735099406+734486125+733392961+732123213
1628+731552872+732011780+732848483+733339070+733325582+733210623+733648618
1618+735060179+737015413+738240242+738167047+737356702+736499210+736101370
1608+736362719+737044802+737827490+738646992+739416872+739844782+739993029
1598+740622768+742498496+745531983+748740260+751069266+752369765+753506116
1588+755450585+758396151+761845731+765106476+767412713+768237969+767820453
1578+766817376+765510999+763847246+762059191+760586687+759696712+759408138
1568+759197772+758116982+755677781+752332889+749130490+747255381+747878252
1558+750295488+751134294+749459405+747166717+746044288+746509260+747943960
1548+749700769+751385559+752683892+753594347+754854195+757483902+761021713
1538+763458810+764499011+765492189+767447919+770200381+772710426+774436484
1528+775644793+776820619+778612201+781951524+787290877+793298701+797998477
1518+801848868+806678020+812613205+817934244+821222089+822635939+823668530
1508+826464117+832407346+839639194+845434053+849867345+853646829+856860922
1498+859976019+863963519+868423044+871806483+874264617+877828909+883537641
1488+889573864+894110421+897953510+902169444+906190912+909086856+911112378
1478+913317329+916144410+919138484+922339398+926885174+932663822+937493655
1468+940052641+940926715+941510792+943105061+946028663+949271898+951053332
1458+949543333+944768876+939785414+936657757+934935225+933735826+932350561
1448+930533241+929122114+929274197+930934546+932892812+934175863+934968636
1438+936417320+939760170+944460132+947946155+948519713+946627898+944238133
1428+943456559+944410139+945050334+943785041+941904239+942149935+945476017
1418+949621911+951003958+948447694+943852915+940405005+940197671+942774043
1408+946271203+949089560+950047656+948715416+946290446+944811568+945328946
1398+947078021+948361072+948352410+947708750+947539467+948117913+948431421
1388+946979830+944060868+942721266+945410927+951334914+958325336+965315325
1378+971611846+975602687+976483690+975811816+975476405+975779766+976658356
1368+978594967+981366548+983737999+985539294+988249683+992145982+995228844
1358+996465985+997255170+998938474+1001227820+1003525643+1005981426+1008953411
1348+1012653513+1016971413+1021173053+1024238095+1025894609+1027211999
1340+1029541748+1032809485+1034960236+1034171114+1031583295+1030160907
1331+1031468273+1034612265+1038006469+1041459328+1045710962+1049835014
1322+1051115900+1049264921+1047635198+1048466889+1050772136+1053275994
1314+1055856945+1058047728+1058822868+1058282968+1057809519+1058404857
1305+1060013667+1062596103+1066466354+1070751770+1073384818+1073741823
1297+1073213926+1072575526+1070734075+1066356097+1059574000+1051987808
1288+1045448622+1040294021+1034976880+1028440355+1021837626+1016845502
1280+1013833918+1012068385+1010270740+1007322266+1003861115+1002116681
1271+1002623417+1002727734+999928373+994754405+989018140+983544090+978883912
1261+975867378+974078333+971573361+966968807+960958013+955589827+952094647
1251+949420268+945269734+938384929+928992305+918049713+907399097+898900099
1241+892307950+885706212+878242032+870714556+863851653+857840488+853024639
1231+849641201+847273091+845284940+843380565+841325469+838758068+835756012
1221+833217196+832404438+833885728+836778951+839295926+840362608+840467235
1211+840684284+841503105+843174654+846421848+851533449+857198066+861535207
1201+864224992+866658935+870093789+874450915+878828026+882614626+885623921
1191+887551127+888433058+889275329+891306667+894943597+899300043+902589868
1181+903734324+903799290+905299019+910091976+918297017+928620575+938960777
1171+947433417+953643997+958718845+964071872+969804673+974481990+977062879
1161+978571517+980994013+984994754+989646579+993973574+997547270+1000401512
1151+1002969285+1004664283+1003914945+1000808139+997924383+997549435+999022188
1141+999810877+998756136+996965359+996341436+998935009+1005441278+1013963788
1131+1021119348+1023984418+1021634746+1015963138+1010620072+1008464247
1123+1010046699+1013945845+1018383963+1022434696+1025696246+1027335311
1114+1026772580+1025909335+1028496783+1036152149+1045719995+1051129636
1105+1048363314+1038656626+1026620250+1016701958+1012036458+1013171510
1097+1017051352+1019981017+1021615875+1023735752+1025514897+1023193687
1088+1015598461+1007162758+1003863590+1007290092+1013740119+1018837798
1080+1021298036+1021190687+1018410197+1013619529+1007750609+1001083781
1071+994449683+989805158+987454249+985276150+982409409+980311683+980230258
1061+982357622+986302739+990443745+992052493+990059455+986611545+984271278
1051+983087904+981413262+978440781+975103685+972824239+972240038+972846946
1041+973809806+975158690+977070799+979455862+983031847+988618443+994275326
1031+995413966+989827371+980613373+972364526+967166675+965830599+968946624
1021+975054558+980743120+984376523+987063153+989336165+989450752+986317589
1011+981852618+977791676+973148760+966383554+958303309+951353662+946392102
1001+941652418+935079079+926951873+918937955+911678511+905045032+899288101
991+894862915+891668992+888808748+885510261+882060743+879453249+878208930
981+877572199+876280115+874003329+871194563+867639305+862521456+856414202
971+851433339+848623583+846776378+844417797+841775468+839707316+837808510
961+835214689+832437230+830851623+830896604+831909705+833410609+835642785
951+838863932+842713146+846737337+851207009+857052480+864533860+872124817
941+877648303+880815868+883946433+889603006+897760592+905877032+911940851
931+916331203+920094229+923391726+926593507+930657605+935154687+937563509
921+936007971+931757080+927637235+924883535+922879236+921293381+920975604
911+922744849+926122904+929266153+930409682+929785326+929564008+931292788
901+933286136+932227992+927946412+924132155+923973143+927193794+931470486
891+935267357+938656364+942291623+946499699+950449147+952338487+952239305
881+953182861+957483498+963675393+968057763+968076696+964094703+958879405
871+955349019+954794889+957154646+961510906+966166382+969091654+969400893
861+968458574+967916075+967713443+966856199+964973850+963197304+963290298
851+965873415+970354720+976264971+983263312+989147391+991042114+989343527
841+986877040+985710186+986164269+988083555+991759898+996894515+1001801750
831+1004952857+1006769620+1008684142+1011058996+1012289393+1009867516
823+1004281725+1000531692+1002588088+1009383673+1017250025+1023937024
814+1028976666+1032226831+1033931791+1034516919+1034619628+1035545179
805+1037987907+1040429521+1041565378+1042006281+1040509461+1034076820
797+1023823921+1015796639+1013700521+1014193707+1012056629+1007716146
788+1004973398+1003894341+1001341727+995822387+987895772+978729292+970418077
778+964647844+960399180+955643285+951456989+951734858+957725358+963859155
768+963322905+958192248+957219117+965513069+979266594+989851439+992503791
758+990012741+988224934+989788700+993769518+998355635+1002206706+1004504157
748+1005020483+1004376823+1002867999+999743188+994917377+989978773+987504118
738+988100075+989623439+991038588+993896233+999690349+1007520567+1012142508
728+1008370263+999248950+993286788+993872721+997266059+999381358+999026766
718+995754575+990843937+989467272+995071749+1003259281+1005773781+1000724549
708+993755102+989735614+989575797+991387425+992870139+994550226+999794543
698+1009290369+1016393956+1013520286+1002301927+990161977+981627031+976368360
688+973109719+972220115+971782800+968387977+961793478+953522480+944690607
678+937355988+935298974+940618528+949181378+952533880+946440425+935057547
668+928835953+933639428+939621699+938668181+934025451+930771574+929119453
658+925794114+920629984+917785146+920550415+928749208+939058968+946180622
648+946929218+944732247+944718388+945197962+942086144+935755779+929984308
638+925767385+920549611+915550310+915282711+920147749+925395716+927924695
628+928683809+927616693+922698878+914597349+907493143+902989069+899545739
618+895699432+891877379+891686564+896236919+903295895+909550405+909439406
608+902719119+896077102+895343974+899263723+901035073+896035338+889948750
##END=
