##TITLE=<SNM>
##JCAMP-DX=4.24
##DATA TYPE=INFRARED SPECTRUM
##DATE=29/4/2025
##SAMPLING PROCEDURE=Instrument type and / or accessory
##ORIGIN=Admin
##XUNITS=1/CM
##YUNITS=ABSORBANCE
##RESOLUTION=4
##FIRSTX=4497.3318
##LASTX=599.83466
##DELTAX=-1.4281778
##MAXY=2.1550744
##MINY=0.58181518
##XFACTOR=1
##YFACTOR=2.0070694e-09
##NPOINTS=2730
##FIRSTY=0.58697885
##XYDATA=(X++(Y..Y))
4497+292455683+291954748+292232656+293288486+294777660+296006655+296105101
4487+294758624+292748944+291493311+292121113+294633449+297379266+298141479
4477+296691179+295150153+295064001+295670629+295795299+295852318+296766788
4467+298111098+298540195+297671607+296501977+296019484+296290947+296828262
4457+297274732+297625903+297862234+297471566+296003626+294228080+293638261
4447+294469342+295300957+295089482+294377577+294040245+294011557+293796370
4437+293443209+293339417+293535152+293876048+294405641+294999261+295090254
4427+294526271+294132306+294623619+295502186+295763701+295330773+295076207
4417+295554037+296389275+297061475+297610935+298131025+298218009+297629051
4407+296989518+297020077+297468537+297567251+297224543+297073681+297395184
4397+297764144+297779824+297557807+297387166+297139460+296271941+294537824
4387+292561881+291320947+291040693+291004314+290599836+290188468+290631583
4377+292189773+294096759+295230039+295227812+294805070+294760405+295084255
4367+295429962+295899269+296784102+297836368+298307249+297720905+296304935
4357+294630866+293218578+292532183+292791085+293573907+294143681+294257570
4347+294187751+294027267+293679867+293468927+293952637+295023078+295806079
4337+295654533+294836223+294053252+293668820+293697181+294184752+295096817
4327+296014673+296412914+296065663+294941708+293180358+291447013+290703153
4317+291254455+292562742+293960448+294951716+295084047+294270310+293098304
4307+292197643+291634136+291423611+292017350+293611771+295524370+296756216
4297+296737417+295520925+293840381+292737036+292562237+292752360+292849529
4287+293073239+293665048+294225111+294009538+292824524+291498805+291061897
4277+291450279+291663863+291234736+290849769+291285904+292322609+293015508
4267+292880355+292513088+292627334+292788204+292089218+290939485+290626772
4257+291124737+291131924+290340994+289882942+290450666+291505991+292352722
4247+292861943+293052926+292780958+292145494+291797322+292341467+293472996
4237+294206342+294073417+293504712+292953886+292520542+292530996+293478519
4227+295122268+296371279+296355450+295226476+293887303+293336150+293975445
4217+295112675+295603127+295154489+294418054+293935829+293738252+293730085
4207+293713069+293282873+292309156+291288221+290875992+291231558+291945720
4197+292520572+292913022+293521313+294495891+295276902+295070654+293681649
4187+291757112+290288667+289915609+290644234+292124023+293903785+295266716
4177+295379328+294089572+292250504+291055245+291236993+292729641+294582162
4167+295511095+295160785+294344078+293715742+293252374+293234555+294161291
4157+295337930+295210944+293472253+291410841+290186033+289959056+290368197
4147+290898829+291107037+291144367+291750044+293259056+294938144+295747842
4137+295521697+294912456+294473410+294300156+294254660+294137533+293897608
4127+293806586+294140592+294748883+295158766+295017377+294386248+293674047
4117+293229952+293068993+293110361+293397921+293934760+294628549+295344255
4107+295773412+295647079+295299650+295371488+295733885+295445612+294072615
4097+292448645+291815438+292547299+293849706+294613017+294597040+294566214
4087+295033235+295366053+294760702+293583499+292804211+292591548+292445289
4077+292265353+292224341+292040811+291499725+291200821+291827703+293066973
4067+294022248+294434922+294748705+295093016+294989253+294267221+293583826
4057+293513770+293668553+293365669+292776147+292624839+292988483+293223508
4047+293065340+293068993+293778611+294970989+295864167+295832242+294928552
4037+293746033+292835720+292391091+292360206+292567048+292758745+292802370
4027+292902688+293417758+294313490+295011942+295017139+294498148+294003361
4017+293784402+293663415+293490755+293424025+293616939+293823424+293613523
4007+293010133+292511544+292369680+292324035+292178458+292140624+292403386
3997+292800944+293052926+293143741+293340902+293840441+294502187+295098777
3987+295664363+296300243+296748287+296490246+295362371+293889145+292920833
3977+292940581+293709832+294548248+294893984+294667156+294188256+293745201
3967+293366471+293169845+293563988+294625015+295736349+296355688+296675558
3957+297024828+297153418+296678854+295933659+295772640+296452620+297140856
3947+296915364+296011466+295457313+295666739+295972473+295659433+295005765
3937+294806407+295348502+296382504+297658659+298827517+299289548+299016452
3927+298854304+299314910+299711904+299098802+297599086+296167882+295662255
3917+296283375+297245064+297344164+296346660+295195442+294725333+294961486
3907+295818463+297605115+300189230+302294772+302885007+302562909+302288803
3897+301869239+300789532+299510378+299039526+299504587+299865855+299603717
3887+299401537+299700233+300141625+300829386+302495407+304612294+305323991
3878+304300056+303257411+303342524+304316181+305769986+307140221+306939942
3868+304661383+302240515+301575977+302289634+302620968+301834166+300434411
3858+299262227+299783623+303916188+310546329+313702415+311293604+306983152
3848+303698952+302154897+301980485+302579480+303551386+304949537+306953009
3838+309037466+310035357+309519633+308246626+307025501+305920462+304655088
3828+303293048+302274518+302298306+304169536+307656480+310275341+310018251
3818+308359149+307453172+307361229+307120532+306641246+306538345+307422821
3808+309148386+310474313+310814615+311346406+312890846+314361400+314830766
3798+314973343+315030570+314233434+312644952+311481053+311600704+312907091
3788+314900050+317095961+318997394+320368312+321673184+323624479+326238261
3778+328965488+331736934+335079935+339577361+345677019+353077034+359981164
3768+364599547+367213657+369194440+371406091+374135159+377151222+379498946
3758+380458319+380880734+382609803+387156319+394628885+402525856+407703441
3748+411133040+416291796+423729349+429310877+430608800+430763375+433484573
3738+440101499+448735261+454898471+455976693+454211601+453200436+454468424
3728+457674847+461588126+464778008+466587468+467074207+466018021+463348556
3718+460114900+457824700+457086453+457479438+458357945+459316784+460153329
3708+460970006+462322096+464566236+466956309+468213101+468181948+467510847
3698+466369548+465249156+465577075+468391136+473198306+478346757+481820427
3688+482376480+480577563+478113336+476655850+477141193+479413516+482929029
3678+487627120+492349029+493397642+490085912+486016009+482761269+479406240
3668+475583597+472261800+470210188+469532940+469882448+470635870+471572792
3658+473058699+474826285+475597198+475277150+476007052+480195893+486995190
3648+490896205+488449915+482584510+477484168+474857200+474323093+474941837
3638+476076929+477311805+478182323+478416160+478575724+479869192+482387171
3628+484285337+484768720+485306599+487194430+490222491+493299344+495380594
3618+495881143+495033075+493781213+493321676+494666343+497772478+500947986
3608+502256748+502092581+502645724+504786962+507152059+508153098+508214037
3598+509325787+512601583+516884119+519992481+521293641+521902615+522341898
3588+521477587+518630204+515377751+513757819+514587801+517369908+520332516
3578+521405481+519889788+516817300+514090964+513542217+516169898+521389682
3568+526674861+529192721+528826018+527827296+527893640+529157143+530809920
3558+531700246+531111348+529640438+528565810+528315105+528363511+528422847
3548+528609881+528709901+528134485+526673673+525026004+524267059+524913867
3538+526282915+527127151+527217966+527326777+527650478+527599161+526774644
3528+525093239+522740674+520711098+520095175+520542417+520922424+521210370
3518+522038272+523112544+523663490+523860561+524408715+525100366+524746433
3508+522592366+519600655+517771773+518024557+519600061+521505264+523408211
3498+525048634+525831931+525419969+524265514+523481683+524062800+525705836
3488+526571454+525001593+521500453+518302583+517145218+517763279+518492706
3478+518229528+517318829+516530008+515788762+514353964+512187008+510467591
3468+510432666+511977701+513490840+513414993+512128860+511384764+511689043
3458+511565086+509899124+507670753+506540888+506979815+508302772+509423372
3448+509450337+508549795+507953294+508140447+507774694+505553332+502190582
3438+499303881+497466417+496367318+495771084+495621766+495987192+496989121
3428+498046911+497822369+496091816+494734261+495609026+498213305+500207631
3418+500016380+498365207+497165434+497411685+498537749+499432768+499421067
3408+498545470+497420475+496566468+496003436+495688436+495802949+496384602
3398+497217137+498172442+499155573+499842532+499974328+499709606+499501131
3388+499709488+500235546+500499259+499915112+498458160+496761996+495902525
3378+496809868+499264918+501730927+502885322+502998410+503250481+504228118
3368+505199399+504855385+503179088+501934651+502627312+504949823+507551786
3358+509345031+510022368+510277231+511445346+513962850+516380096+516773051
3348+515150447+513608798+513847209+515205625+515830695+515269771+514432425
3338+513593831+512226089+510349276+508582165+507243112+506317801+505952583
3328+506444134+507836583+509608684+510770919+510825741+510442288+510494199
3318+510913585+510903251+510212609+509725751+510484756+512228762+513309271
3308+512614115+510963002+509925673+509998848+510514512+510653615+510101006
3298+509192980+508548726+508418236+508618812+509015628+509462513+509495180
3288+509173380+509568058+511386070+513891517+515747483+516253704+515426751
3278+513942656+513064208+513541979+514791703+515688444+515587651+514421377
3268+512810712+512005735+512673450+513975857+514559351+514138777+513450986
3258+513079948+513038787+513145044+513159537+512811484+512102014+511367480
3248+511010696+511133999+511333625+511029821+509956440+508212196+506208099
3238+504717649+504434514+505293183+506676367+508148881+509425154+510149116
3228+510322905+510219024+509580174+507927457+505751354+504308716+504273911
3218+505255527+506265059+506354745+505313318+503722015+502185831+501062202
3208+500772237+501472203+502557404+503303461+503616233+503461807+502383140
3198+500302306+498090210+496885566+497191805+498533235+499721604+499769298
3188+498761667+497541937+496724250+496404855+496282027+495777350+494483853
3178+492503574+490318354+488552608+487582366+487149290+486623320+485713007
3168+484725154+484177595+484367569+485008794+485054498+483587776+481263126
3158+479951335+480543767+481840057+482095899+481142525+480044109+479227878
3148+478197825+476734399+475278130+474254848+473719821+473482361+473224439
3138+472715486+472032804+471466178+471277956+471457833+471497212+470736752
3128+469215356+467782934+467219130+467621114+468595305+469524714+469736486
3118+468988409+467764403+466646506+465526619+463967508+462236538+461257951
3108+461461734+462255456+462753124+462559052+461783327+460858373+460338046
3098+460382859+460529386+460280700+459627775+458704989+457640962+456971436
3088+457154668+457566125+457169398+456231942+455997065+456723255+457343751
3078+457003123+455967962+455071013+454910618+455463107+456093493+456079476
3068+455248425+453991188+452701521+451390175+449952378+448681093+448148323
3058+448506592+449244719+449700039+449629805+449267081+448891588+448445979
3048+447794984+447268004+447379666+447958705+448200798+447741825+447109539
3038+446890046+446878197+446421778+445405357+444367553+443689503+443194716
3028+442614726+442032332+441715194+441723152+441783141+441555155+440951586
3018+440267893+440072336+440751485+441918353+442418991+441381544+439267865
3008+437495734+437021201+437471947+437735095+437336171+436840017+436798025
2998+436972764+436904995+436584026+436207196+435787097+435224481+434497579
2988+433754076+433227097+432928519+432648889+432353074+432180295+432053695
2978+431771897+431393552+431053904+430581538+429732312+428640549+427701697
2968+427149237+427018598+427218758+427385449+427201237+426976962+427148138
2958+427312929+426846443+426191675+426233964+426769378+426816597+426046871
2948+424949019+423992557+423287007+422766739+422359915+421989886+421496999
2938+420757119+419937977+419398109+419361017+419819010+420512205+420932690
2928+420654545+419667761+418242407+416746017+415646354+415217227+415214703
2918+415236738+415221147+415254230+415322148+415551233+416047951+416365446
2908+415967204+415229373+415027580+415419496+415698235+415602610+415529554
2898+415687514+415826023+415651996+415038033+414056981+413036372+412316152
2888+411925751+411717662+411676174+411846459+412094462+412158964+411896440
2878+411356720+410663020+409924654+409296644+409052116+409397408+410085168
2868+410448248+410104086+409390934+408830841+408498944+408152049+407585810
2858+406732308+405785734+405226266+405390878+406126868+407011997+407658479
2848+407756956+407187271+406201022+405277316+404714551+404385772+403876878
2838+402929235+401799786+401100413+401194880+401801478+402287565+402305175
2828+401982038+401583351+401309423+401322460+401573195+401722751+401498595
2818+400944294+400199692+399326887+398454082+397828121+397632149+397815114
2808+398054475+397945277+397383582+396686288+396179918+395804009+395281900
2798+394585705+394051895+393983087+394234178+394368885+394249056+394211489
2788+394514818+394856515+394692705+393927463+393058133+392632392+392696330
2778+392827355+392616622+391992503+391111976+390153405+389282887+388661470
2768+388375811+388375514+388480524+388465140+388194271+387708066+387182185
2758+386793714+386584556+386444236+386238017+385945142+385657909+385452107
2748+385271666+384997114+384653575+384399811+384233595+383924683+383367739
2738+382784809+382442636+382315680+382169243+381922517+381720159+381585482
2728+381293260+380783891+380378641+380316425+380402815+380349448+380167819
2718+380019333+379880497+379565913+379038102+378521072+378226177+378097469
2708+377945388+377705018+377464856+377346898+377385118+377478249+377520776
2698+377521874+377475517+377283553+376970513+376747457+376710751+376681439
2688+376420489+375894400+375297840+374858497+374643013+374527520+374294218
2678+373817011+373275866+373052393+373221787+373374550+373181666+372839493
2668+372687829+372709983+372665675+372445231+372078320+371598886+371079984
2658+370653827+370378414+370202131+370099289+370088717+370107753+370023947
2648+369784497+369453579+369112891+368793971+368508194+368298887+368206053
2638+368182473+368117822+367950834+367723649+367575133+367646674+367894082
2628+368099380+368142115+368038322+367691606+366981483+366163677+365776631
2618+366002183+366383616+366343910+365863170+365440131+365434162+365706249
2608+365925178+365941036+365785422+365547071+365327192+365173567+365045512
2598+364917547+364840957+364808201+364661258+364288497+363839622+363580334
2588+363614456+363868785+364197297+364401169+364356712+364196970+364198366
2578+364507812+365040197+365480311+365446813+364906024+364272817+363903501
2568+363734701+363568930+363384807+363212087+363023865+362917371+363116937
2558+363584492+363877070+363651370+363117679+362737761+362684840+362825101
2548+362988644+363071114+363058938+363060037+363186933+363400428+363523642
2538+363394845+363022262+362603410+362349884+362284282+362255357+362153614
2528+362070016+362186934+362490857+362722200+362716616+362645729+362758608
2518+363014600+363152425+363062442+362924528+362967262+363186785+363348873
2508+363256128+362983388+362784712+362759292+362763152+362709311+362698115
2498+362766419+362833832+362946593+363222986+363580423+363833177+363931416
2488+363887464+363693036+363427244+363219660+363120085+363169471+363449577
2478+363919300+364356415+364527739+364320422+363778089+363130093+362721932
2468+362788217+363244903+363723178+363847967+363524503+362977003+362551143
2458+362465110+362661676+362894474+363005542+363042753+363055820+362939168
2448+362628178+362344330+362449667+363014332+363647717+363891592+363731167
2438+363542619+363592213+363813726+364029804+364145534+364150405+364132378
2428+364238101+364468641+364619920+364559426+364409573+364331974+364313591
2418+364315076+364428045+364688936+364945076+365138198+365476510+366049164
2408+366553158+366711445+366663602+366636518+366567294+366390446+366377171
2398+366839737+367704197+368665233+369640405+370863669+372691660+375550535
2388+379974727+386527953+395734072+408078221+423868808+442999634+464947877
2378+489049980+514758739+541780596+569940575+598357970+624582929+645773058
2368+661506121+673682926+683489585+690065588+691659148+687327552+677635049
2358+663595864+645107006+621561045+593917325+566098866+543819795+531423229
2348+530680855+541068810+558826698+577027788+590528679+599379678+605568547
2338+610165756+613008089+613503976+612169674+610514700+609286358+607926160
2328+605695948+602398948+597892435+591752032+583801754+574507968+564570284
2318+554524502+544831168+535827822+527445210+519181981+510441754+500918051
2308+490767259+480561853+471082370+462962609+456241980+450221703+444067343
2298+437634748+431459273+426035467+421405739+417326095+413566381+410078308
2288+406960918+404286345+402051114+400276609+398960095+397945515+397027837
2278+396149241+395361251+394687508+394128960+393677293+393256452+392775563
2268+392264946+391841135+391515296+391125103+390499647+389674328+388914402
2258+388490146+388396272+388319950+387982113+387520824+387340680+387505471
2248+387588890+387315794+386975195+386915295+387047567+387167693+387353806
2238+387725290+388139479+388372039+388360576+388163861+387876212+387613391
2228+387425525+387193114+386715937+385959308+385156291+384563532+384150412
2218+383692212+383160689+382822792+382889255+383208026+383415462+383348762
2208+383191663+383190119+383374213+383636470+383914378+384158282+384274369
2198+384272409+384358769+384742191+385408956+386141590+386681963+386897566
2188+386918235+387066603+387504283+388002545+388218801+388142004+388113910
2178+388451450+389151506+389919598+390417920+390531245+390457179+390523256
2168+390872764+391341240+391687303+391890374+392079902+392228715+392162698
2158+391894501+391696717+391768020+392016379+392239496+392372421+392487795
2148+392664970+392939373+393310412+393773037+394375507+395174336+396067425
2138+396791090+397192836+397410963+397699443+398173709+398794622+399546202
2128+400552230+401966922+403775729+405772252+407718973+409500843+411181595
2118+412942499+414912681+417028023+419083822+420944658+422662205+424292144
2108+425603014+426188854+425986675+425451706+425079183+424961700+424914511
2098+424832101+424785031+424862897+425054890+425312366+425629683+425960274
2088+426142140+426030953+425642453+425082093+424371347+423381534+421986798
2078+420316025+418749074+417580839+416789791+416186757+415676140+415313417
2068+415145983+415058732+414891358+414696217+414675102+414861393+415125017
2058+415456707+415943268+416486789+416872379+417148416+417647094+418542974
2048+419614247+420509176+421070130+421385011+421719611+422364192+423332266
2038+424303310+425067304+425870795+427084081+428663623+430223566+431599118
2028+433044933+434813054+436850441+439077712+441648731+444665417+447853636
2018+450771638+453220571+455274202+457004786+458397384+459498175+460376861
2008+460954533+461195706+461426187+462036675+462946038+463750480+464255097
1998+464554120+464832770+465352919+466339227+467677331+468993309+470131460
1988+471240775+472346823+473244812+473944422+474840332+476221823+477924610
1978+479661132+481365523+483028931+484577232+486142371+488106703+490586847
1968+493118933+495199024+496980687+498980655+501246801+503362084+505199280
1958+507155861+509541330+512147273+514584653+516765211+518852341+520957230
1948+523171405+525726149+528683114+531521052+533574506+534985961+536607377
1938+538897993+541557272+544154900+546623046+549114654+551718577+554401555
1928+557143214+560072977+563263126+566342444+568795802+570813558+573109461
1918+575742725+577939616+579278907+580167927+581095910+582256304+583715691
1908+585379456+586979014+588402112+589786068+591143236+592231050+592994035
1898+593833579+595129393+596709827+598136903+599246099+599997502+600273746
1888+600301603+600633084+601358591+602064794+602616036+603264745+604007238
1878+604476456+604525279+604519458+604968482+606041210+607460565+608611515
1868+608717594+607430749+605318614+603358410+602076970+601239861+600269826
1858+598998423+597887446+597353368+597189142+596990942+596712143+596437858
1848+596220711+596309625+596684228+596390699+594640218+592138870+590006541
1838+588549410+587415922+586281721+585357420+585145738+585511847+585406065
1828+584199283+582514255+581007234+579523316+577721162+575683152+573777710
1818+572407059+571800164+571817151+572023250+571970211+571510377+570929675
1808+570558161+570334718+570107712+570106583+570619397+571338370+571595787
1798+571375135+571579691+573172954+576137878+578901573+579526108+578215207
1788+576849010+576631151+577525635+579024282+580806479+582622948+584090710
1778+585145203+586459311+588917598+592511809+595708551+596895495+596620794
1768+596455558+596956434+597963590+599438301+601147799+602421934+603109190
1758+603792289+604714391+605765915+607383114+610198304+613779745+616687710
1748+618248959+619055480+619761208+620786420+622502689+624659370+626220322
1738+627027853+628811238+633236440+638809623+641269277+639769560+636997669
1728+635052790+634854233+636418274+638891172+641428514+644372947+648709057
1718+653941968+657197689+656731975+654450743+652680900+652236805+653210285
1708+655553762+658604333+661023420+662524324+664508582+667812353+670999592
1698+672633778+673282724+673241148+672452089+672032585+673091533+675443266
1688+678442817+682427251+687815182+692478260+693658314+692720116+692261113
1678+693067693+694643197+696124145+697211662+698753133+701685687+705300923
1668+707572414+708375134+709689717+712418666+715188656+716459050+716981664
1658+718514285+721938211+727212164+732597778+734118580+732060434+731037598
1648+732601995+734619277+733969855+731004218+728378082+727601912+728949577
1638+732058059+735673533+737485368+736572175+734969468+734743768+736373262
1628+739033551+741691285+744435558+747840597+751342627+753921902+756023762
1618+759084371+763626996+768330700+771741025+773606435+774099292+773909407
1608+774433922+776424357+778938297+780255315+779622880+778031281+777205397
1598+777918371+779497142+780899451+781941590+783119209+784512371+785546849
1588+785943486+786407894+787990762+790908587+794287492+797213869+799727690
1578+802102290+803073928+800571451+795781744+792153262+791339851+792671481
1568+794420417+795687662+796348666+796242647+796109246+797891028+802352520
1558+805860728+805493074+804144874+804095280+805044763+805969301+806259741
1548+806358277+807840650+811768303+816972467+821278405+823886010+824415514
1538+822627852+820451155+819958179+821277514+822955592+824047326+825086674
1528+826749548+829040104+831608628+834464801+837930719+841824814+845667829
1518+849478534+853045899+855632241+857431188+859765875+863370242+867929498
1508+873137048+878529730+882730658+885535810+888007521+890516650+892873967
1498+895062958+896962817+897969438+898051522+898206007+899356007+901663967
1488+904829051+908307858+911262745+913418832+915601587+918508482+921788377
1478+925210521+929577220+935234803+940626476+943726998+944714910+945514422
1468+947349540+949742375+950934545+949393074+945752238+942367275+941416603
1458+943550239+946792774+948224246+947484129+945753545+943900609+942152385
1448+940461240+939128066+938625171+938739565+938976431+939760857+941731573
1438+943811517+943400683+940133737+937392612+937746011+940333244+942165333
1428+941841157+941715002+944442229+948930033+951546964+951164581+950244913
1418+950504527+950631810+949317999+946699525+943066826+939138876+936748239
1408+937154321+939334522+941120046+941321631+940246647+939077521+939529218
1398+942837919+948167880+952774474+953820355+951230628+948443294+948960503
1388+952845273+956420240+956608343+954780411+954048134+955650544+958778150
1378+962119161+965248134+968677465+972341999+974774569+975158259+974739170
1368+974811097+975403143+976906363+980490596+985527920+989241158+990724244
1358+992120376+994872548+997889561+999601554+999651921+998238684+995999919
1348+994633425+996004314+1000568975+1007080773+1013497420+1017979582+1019725430
1338+1019481674+1019266903+1021047437+1024862834+1028837171+1031978676
1330+1035291118+1039302280+1042693124+1044644596+1046893636+1050905985
1321+1054823660+1055787874+1053462215+1050240290+1049261584+1052066202
1312+1057222256+1061656189+1064112516+1065832230+1067052316+1066189787
1304+1063674659+1062747507+1065484178+1070340288+1073741823+1073245758
1295+1069000581+1063109221+1058426186+1056100171+1054056043+1049369920
1287+1042855034+1038654403+1039166266+1042558298+1044865307+1044056232
1278+1040662656+1035549129+1029878241+1024288962+1019006516+1015371917
1270+1014326927+1014727722+1014207543+1011166653+1006077121+1000507442
1261+995505636+991437931+988658912+987885652+989223577+991097421+991113220
1251+987639164+980779433+972216914+964003340+956958950+950015887+941475404
1241+931022709+920378406+911620716+905137963+899852903+894777923+889176528
1231+882301828+874694555+868604103+865622370+864578330+862948065+859917509
1221+856748327+854655733+853814644+853908904+854309283+854061845+852814972
1211+851640620+852094395+854542289+858012959+861474363+864473202+866583020
1201+867519912+868102396+869758558+872647516+875501551+877776308+880539588
1191+884638832+889436914+893962671+898147147+902269555+906293546+910205281
1181+913907591+916653823+917478400+917129872+918405017+922881596+928961653
1171+934763506+941077341+949539542+959923755+970864913+981469243+990236910
1161+994423881+993141252+989166024+986308723+986515832+989102650+991916117
1151+993511103+994400123+996047375+998063944+998855557+998687826+998723344
1141+998568918+998008945+998824790+1001445403+1003070918+1002966858+1005179073
1131+1012248468+1020766025+1025775493+1027150005+1027682538+1027768542
1123+1025564642+1020618489+1015978456+1015279142+1017925414+1020140361
1114+1020247747+1020138698+1021930755+1025481608+1029346421+1032298932
1105+1032991712+1030761203+1027092155+1025546348+1029382058+1035931156
1097+1036774560+1029662876+1021739385+1019786369+1024572869+1032250703
1088+1037634714+1036853318+1030328691+1022385362+1017266370+1015928326
1080+1017189038+1020017295+1023814636+1028537465+1032491252+1032338132
1071+1026152531+1015853727+1006476135+1001098301+999424202+999287475+998390615
1061+995882733+993471130+994060801+997890393+1001512520+1001946932+1000281980
1051+998387645+994705590+987626454+981121605+981227625+987611368+993249766
1041+993852504+992732201+993452718+994619111+993684832+991072416+989573531
1031+991755217+998000748+1004991030+1006832503+1001378169+993260338+987546449
1021+984980598+984759947+986918172+989557554+988071023+980908675+972794528
1011+969537263+972430379+977879546+980973178+979403139+974224752+967272602
1001+959639611+952224301+945254511+938014118+930365269+923417098+918203847
991+914700272+911914898+908697309+905021787+901776698+898892135+895162920
981+890613998+886955700+885041528+884030155+883193699+882389376+880899044
971+878009254+874525933+872122645+871364175+871219846+870418255+868677575
961+866405430+863635499+859981834+855842261+852729562+851802174+852965775
951+855666037+859550688+864029642+868222849+871938759+875769896+879936731
941+884087708+888394774+893503016+898740975+902023542+902775836+903558123
931+907478649+915084437+924271432+932111829+936774729+939049724+941607201
921+946025573+951312177+954924503+954597476+950574138+946479348+945677164
911+946898259+946023197+942030091+938239878+937599959+939327929+940617210
901+940465278+940292559+940658252+940227224+939047527+939557312+942982782
891+947286701+949537997+948871054+946948151+946610314+949952157+957245232
881+966871213+975236838+978017876+974240789+968026677+964439772+965306994
871+968690235+971006331+970427114+968344261+967463319+969125895+971856151
861+972243939+968263959+962020329+958289391+960405030+968265860+978800579
851+987929783+992595296+992158032+988263818+985214732+987962331+996191645
841+1003346509+1003987734+999843172+995693680+993566637+993177423+994153932
831+995930784+997471423+998812436+1000457313+1001549819+1000546880+998072735
821+997381262+1001001963+1008054846+1014916716+1018270735+1017712425+1016407285
811+1019320596+1028705552+1039932577+1044589715+1041221560+1036841676
803+1035611256+1034832116+1032830158+1032598756+1035131584+1036337059
794+1032587590+1024661011+1015382489+1007778542+1003688266+1002165030
785+1002552164+1005379233+1007852904+1005189764+995697778+982839063+972995757
776+971085267+976462150+981805298+980061826+973259054+968684592+971245217
766+981147086+993136560+999711791+998275033+992143005+985049318+978934990
756+975174414+974443978+976590621+981877819+990194146+998876464+1003625427
746+1002226444+996955402+992174900+990333367+991421063+995406091+1001159953
736+1004180648+1001840141+998300454+999737331+1006517830+1011793861+1010250074
726+1004818547+999938322+995966480+993174275+993188827+994306457+993176948
716+991911544+995604291+1003558192+1009462025+1010687338+1011112485+1012858689
706+1013044001+1008138949+997637253+985711866+978672049+980274815+989929780
696+1002275504+1008710682+1004079559+991895923+980673651+976950434+981073674
686+987545440+989941956+985810223+978145634+971758506+968627395+968550182
676+969883712+969769555+967447104+962965358+955686656+949886704+954170368
666+966856780+978222253+982514411+981150056+979663763+979287497+976035756
656+968463644+960440905+954674926+950555963+949185965+952120123+956614223
646+957805859+951752351+939731694+927405037+919330268+918061656+923246814
636+932198367+940516358+943541092+941336777+937239790+932346438+927905734
626+927451662+931353418+934719732+936255679+939981093+947410123+952342378
616+948237135+939933577+938785477+944119597+939395936+917804299+893172366
606+881802200+885522922+891985541+890215103+885551906
##END=
