##TITLE=<SNM>
##JCAMP-DX=4.24
##DATA TYPE=INFRARED SPECTRUM
##DATE=29/4/2025
##SAMPLING PROCEDURE=Instrument type and / or accessory
##ORIGIN=Admin
##XUNITS=1/CM
##YUNITS=ABSORBANCE
##RESOLUTION=4
##FIRSTX=4497.3318
##LASTX=599.83466
##DELTAX=-1.4281778
##MAXY=2.067827
##MINY=0.4419626
##XFACTOR=1
##YFACTOR=1.925814e-09
##NPOINTS=2730
##FIRSTY=0.4544197
##XYDATA=(X++(Y..Y))
4497+235962410+236706797+237758429+238707553+239139310+239103795+239101474
4487+239427087+239607326+238954955+237582198+236286971+235615952+235532463
4477+235762610+236155200+236786030+237694795+238580208+239082903+239271004
4467+239404865+239376545+238912754+238363416+238676030+240183854+241898535
4457+242556834+242029486+241038626+239957143+238705232+237508799+237096571
4447+237984011+239693802+240926029+240779262+239653876+238608403+238172498
4437+238078843+237883670+237454048+236796306+235919188+235247441+235612578
4427+237249868+239293536+240670951+240901810+239913534+237988081+235951995
4417+234700904+234575184+235418194+236820091+238077821+238386118+237473593
4407+235880345+234395471+233387433+232854297+232905551+233700248+234871921
4397+235587323+235406201+234749512+234396136+234656166+235095986+235032151
4387+234258221+233257689+232753523+233064388+233819670+234258716+233884372
4377+232906990+232055143+231907216+232431918+233268305+234208376+235094871
4367+235555769+235325606+234638199+233950482+233413864+232817404+232051538
4357+231567505+232014088+233183594+234026620+234217119+234682613+235887634
4347+236739466+236087867+234428030+233128100+232741994+232927758+233360614
4337+233896675+234208391+233998749+233444443+232905365+232369537+231668372
4327+230955601+230460921+230056291+229608641+229493923+230166707+231417566
4317+232550225+233090154+232959281+232305052+231472642+230876631+230718614
4307+230964158+231468030+231945672+232094884+231992051+232144621+232863118
4297+233686614+233804613+233129214+232411924+232181730+232251384+232391032
4287+232652563+232885897+232770035+232398197+232247113+232521163+232835851
4277+232635277+231956690+231593132+232183061+233355740+234227209+234508238
4267+234512602+234394805+234112259+233823678+233676989+233534292+233394567
4257+233603729+234235999+234884069+235387662+236060600+236899742+237211753
4247+236355464+234524162+232731130+232098752+232830620+233890778+234201273
4237+234002587+234280815+235053135+235265857+234471856+233553141+233469776
4227+234110418+234658626+234627861+234283245+234243396+234802298+235605568
4217+236043160+235971742+235870998+236213247+236819023+237046880+236615958
4207+235902738+235333236+234910810+234502079+234173850+234122504+234525942
4197+235350181+236125581+236302245+236000618+235917362+236319980+236647806
4187+236297092+235447040+234864879+234965654+235376117+235530823+235339101
4177+235095862+235094825+235452426+236075147+236751412+237342332+237762406
4167+237836424+237451664+236761781+236028536+235417281+235041529+234987273
4157+235195909+235477139+235747646+236168013+236894836+237709852+238135188
4147+237951838+237327847+236514193+235782898+235483082+235711882+236070690
4137+236074543+235706420+235398417+235529105+235976709+236309998+236480132
4127+236920076+237750846+238362379+238115024+237152529+236236770+235997322
4117+236527827+237543525+238671604+239493584+239507991+238444119+236721762
4107+235280450+234836219+235498975+236939606+238550325+239576252+239564321
4097+238771249+237864898+237209091+236616035+235717980+234491355+233477235
4087+233357860+234219595+235465812+236514766+237216952+237560347+237477369
4077+237021903+236363790+235731412+235563150+236270908+237526998+238275702
4067+237892042+236940813+236494277+237068189+238318321+239400423+239555531
4057+238694894+237444886+236488056+236092959+236242186+236752913+237262991
4047+237511863+237579041+237542720+237259014+236850794+236862060+237534271
4037+238425796+238963729+239017784+238911067+239070833+239543894+239856214
4027+239624009+239139481+238984326+239254554+239540829+239545132+239367368
4017+239158840+238784387+238097212+237382382+237156970+237580573+238340017
4007+239025413+239380042+239313143+238986183+238898671+239539762+240679741
3997+241290160+240644148+239273821+238344056+238432698+239289466+240317080
3987+240971278+241061514+240878597+240816867+240830082+240493002+239726284
3977+239181991+239566611+240766154+241976840+242557917+242437288+241859213
3967+241147927+240655894+240616540+240987047+241559598+242197717+242825298
3957+243239027+243209500+242841082+242586763+242844270+243633799+244640970
3947+245566912+246369749+246992517+247103180+246554120+245809733+245356465
3937+245168240+245221645+245895388+247275125+248499738+248570537+247681286
3927+247000719+247267433+247999131+248227173+247923798+248037076+249016810
3917+249815066+248919827+246507896+244400377+243755882+244032935+244402033
3907+245227464+247422185+250853219+254093335+255816760+255709904+254010558
3897+251319378+248834590+247900569+248953810+250625053+250691519+249244341
3887+248806224+250653140+253052149+254086944+254238539+253954043+252399747
3878+250120423+249279640+250863402+253863653+257000921+259328001+259664153
3868+258287744+257387553+258031181+258719084+257665874+255198495+252787415
3858+251852761+254134809+261014920+269050440+270127110+264031435+256816828
3848+252109680+250645929+251825370+254610098+258005508+261434855+264431531
3838+265932252+265205940+263303545+261865281+261282765+260857506+260233795
3828+259668920+259205732+259080228+260463880+263743288+266364505+266185828
3818+265032154+264598694+263555697+260782421+257670486+256053747+256840381
3808+259596728+262455567+264360964+266532658+269548276+271298550+270434602
3798+268544030+266904558+265442370+264452918+264731533+266341818+268598843
3788+270983445+273356223+275552833+277612177+280255400+284162481+288624719
3778+291981503+293851710+295610526+298928777+304677962+312346193+320179669
3768+326797507+332004287+335863983+339081273+343449143+349763761+356126630
3758+360438077+363975395+369786573+379583602+392771676+405608092+413677874
3748+417876198+422204080+427990839+432450942+433657015+434050859+436612404
3738+442589229+451213393+459430870+463571688+462638163+459133127+456374367
3728+455668079+455876932+454997292+452332094+449138852+447188051+446757810
3718+446376006+445245358+444985035+447630331+452211821+454823011+453495302
3708+450131399+447482884+447442339+450597481+455521405+459477791+461233295
3698+461966076+463362340+466119213+469924746+474229199+478515824+481442243
3688+481420857+479235606+477244352+476814669+478061752+480759416+484877115
3678+490057649+493942229+493138170+488704251+484798625+482696259+480438306
3668+476931444+473407962+470866906+469239412+468025570+467044072+466680807
3658+467280192+468400286+469669529+472388890+478324273+486726801+492786016
3648+491873507+485572910+478510532+473254015+469930255+467561747+465557557
3638+464457519+465212027+467970540+471914452+476459451+481795666+486925503
3628+488826289+487063634+484598252+483946933+486082477+490492130+494927194
3618+497121110+497928234+499898225+503238543+505876349+507378309+509381014
3608+511763635+512497963+511632220+511514794+513153863+515201756+516507088
3598+517387038+518022820+518013566+517690382+518214867+520494145+524331433
3588+527895491+529142358+528697849+528818803+530129798+531663141+532879243
3578+533710879+533654054+532505672+531148499+530723302+531487529+532924430
3568+534516022+535785730+536202569+536079201+536568403+537802579+538190821
3558+536789326+535147162+535297333+537156955+538916174+539477304+539579316
3548+540304421+541387251+541633739+540878674+540066660+539605191+539038489
3538+538060644+537126747+536786974+536986171+537148784+536777256+535931135
3528+535096775+534681916+534553162+534124748+533069340+531709195+530549671
3518+529858673+529719334+529729239+528895250+526882857+524893058+524489527
3508+526084152+528762349+530891425+530951468+529099089+527674815+528593732
3498+530616895+530786998+528929357+528297103+530841719+534514908+536047570
3488+534702777+532299047+530869574+530946826+531246178+530298663+528606236
3478+528039472+529184326+530602534+530857194+530299035+530208288+530844814
3468+531131971+530063131+527834581+525417915+523541889+522455160+522231760
3458+522700968+523084381+522460545+521013863+519936234+519684607+519153344
3448+517231884+514835954+514087017+515316954+516430610+516063291+515822497
3438+517612078+520252361+520779074+518483764+515677123+514471854+514409613
3428+513649193+511727175+509907077+509073863+508895465+508854765+508887975
3418+509023413+509052754+508854053+508640248+508677729+509029201+509415586
3408+509407291+509084200+509225953+510368021+511877037+512389978+511195108
3398+509044243+507647639+508254761+510475728+512626779+513476892+513257640
3388+512751478+512123742+511136797+509943877+509059966+508722328+508799983
3378+509398037+510931380+513136222+514816486+515478453+516302816+518476924
3368+521653917+524802869+527382149+529019671+529370091+528977392+529073834
3358+530089377+531196657+531436027+530809530+530291112+530823582+532015913
3348+532198583+530541748+528480639+528017807+529494325+531736060+533640931
3338+534922710+535418287+534656722+532581191+530172015+528727994+528529231
3328+528863681+529304228+530021843+530662392+530159015+528204500+525849177
3318+524225088+523685437+524318620+526105508+528433966+530367497+531366018
3308+531304179+530300459+528845296+527526749+526602014+526220767+526566049
3298+527318205+527778128+527914185+528397321+529434220+530496560+531201424
3288+531736122+532436219+533386891+534314783+534823173+535038402+535627202
3278+536616747+536922908+535951438+534666193+534090455+533892805+533352350
3268+532699978+532620622+533317191+534689158+536363387+537247577+536196503
3258+533373273+530214107+527973239+526980660+527042066+527711399+528409763
3248+528832545+529234899+529991264+530837076+531087464+530564713+529842579
3238+529546631+529841403+530710241+532012447+532947581+532389422+530463629
3228+528779124+528421833+528711157+528427404+527439840+526549398+526364005
3218+526952681+528012484+528679278+527849685+525581828+523455104+522807499
3208+523294039+523518057+522599698+520935435+519648519+519455389+520112094
3198+520894147+521341442+521418508+521159268+520479908+519524594+518845667
3188+518750989+518748544+518189859+517126498+515978549+514868018+513696857
3178+512424023+511213183+510421534+510213393+510190861+509891478+509424283
3168+508873768+507713285+505760781+504024063+503734677+504998783+506634788
3158+507057570+505519925+502681158+499817723+497645750+496250260+495673035
3148+495834225+496242553+496471524+496640977+496971125+497210650+496810152
3138+495520017+493725669+492108327+491041654+490594607+490926828+492038472
3128+493100070+492831142+490955921+488668256+487236028+486708788+486334351
3118+485675046+484836229+484003448+483182985+482227299+481156107+480503890
3108+480900674+482243765+483763675+484813914+485195904+484963621+484200416
3098+482847421+480907854+478936316+477823217+477787005+478155903+478346031
3088+478394251+478491405+478555596+478268129+477383815+476122680+475139356
3078+474910973+475341369+475974026+476291143+475925031+474983583+474084908
3068+473709295+473640368+473373112+472776265+472027885+471338001+470940630
3058+470888695+470800641+470333786+469740436+469404532+469205459+468782058
3048+468014304+467028751+466031314+465214657+464794135+465109921+466315438
3038+467759830+468279641+467484495+466158117+465173370+464628427+464170083
3028+463633156+463121175+462716901+462365831+461968645+461354961+460227099
3018+458509539+456769943+455807573+455669070+455540130+454920814+454443807
3008+455083736+456880003+458771410+459564947+458884101+457183997+455093733
2998+453015912+451275263+450249227+450141799+450725089+451363967+451420173
2988+450842855+450168354+449682310+449047672+448057973+447079879+446464988
2978+446174086+446021810+445788135+445284882+444621863+444082770+443675339
2968+443172334+442512658+441927789+441761399+442120145+442612937+442673816
2958+442164466+441361087+440592156+440234339+440583336+441290490+441381948
2948+440336166+438854882+438149089+438594156+439343866+439284782+438199477
2938+436799406+435776342+435183952+434764450+434483978+434409016+434335478
2928+434047423+433719504+433554724+433295670+432669358+432017389+431832058
2918+431943758+431708628+430900359+429977357+429418765+429180602+428944203
2908+428543675+427941133+427180404+426562201+426374425+426364521+426096894
2898+425779095+425946134+426427908+426456568+425732051+424681998+423757417
2888+423000062+422263010+421588137+421253161+421364026+421554958+421418065
2878+421064797+420830008+420713789+420591071+420535670+420440219+419813691
2868+418467598+416996960+416193179+416271050+416791604+417109248+416898166
2858+416377024+415978198+415866684+415930782+416042884+416075568+415907971
2848+415660430+415600077+415687233+415630099+415401871+415212269+415000971
2838+414440429+413423276+412221350+411204661+410567424+410246221+410015146
2828+409670668+409138477+408513434+408057133+407919682+407803061+407255333
2818+406331650+405530716+405118612+405009977+405173085+405565505+405804534
2808+405470518+404636684+403699414+402905352+402325435+402018933+401985816
2798+402082567+402101540+401881545+401368697+400684756+400083731+399711986
2788+399430616+399011146+398501703+398200122+398242153+398433550+398516683
2778+398356546+397867994+397062666+396169840+395444673+394902113+394476855
2768+394300191+394506289+394869647+394940801+394484222+393587094+392508134
2758+391572752+390992618+390678720+390392150+390010501+389496230+388830704
2748+388156822+387741097+387679134+387805411+387818596+387412497+386510077
2738+385455629+384752437+384595890+384818980+385113813+385145228+384711737
2728+383963636+383238252+382670251+382243569+382082472+382231808+382291852
2718+381855111+381194661+380896950+380962038+380886860+380458816+379872585
2708+379254507+378623367+378168025+378126459+378445433+378786228+378837048
2698+378532682+378024879+377534254+377220975+377097607+377040132+376940131
2688+376780118+376468138+375800539+374790102+373800897+373183840+373018070
2678+373223178+373565798+373592725+372998262+372041462+371234184+370753339
2668+370456834+370234116+370036900+369794744+369554074+369494773+369641323
2658+369749649+369584096+369150265+368604053+368079413+367664492+367420851
2648+367326019+367239791+367013637+366649289+366292060+366057488+365932046
2638+365842042+365737956+365582276+365329504+364994621+364701985+364560109
2628+364482578+364286941+363991922+363780129+363619280+363252735+362659261
2618+362154523+361987236+362171174+362614909+363056293+363079691+362586590
2608+362016825+361763279+361645946+361264421+360636903+360193136+360230215
2598+360598060+360936750+361096918+361209979+361377514+361494816+361465970
2588+361388501+361351918+361210877+360767420+360083417+359434821+359009068
2578+358781707+358677156+358717020+358921076+359133674+359117178+358826554
2568+358432525+358074367+357757776+357491850+357375446+357504757+357848306
2558+358252270+358571925+358750044+358722530+358373348+357719366+357014534
2548+356540127+356382899+356457706+356621928+356775349+356953376+357248364
2538+357559105+357579625+357161486+356558294+356207843+356325300+356725241
2528+357036694+357115370+357151149+357306581+357444713+357365170+357119734
2518+356935641+356955790+357156905+357440999+357716797+357876254+357789190
2508+357473930+357209304+357238274+357407913+357358299+357003732+356573243
2498+356285126+356240310+356505710+357012027+357427690+357410265+357024964
2488+356731957+356878290+357309243+357551801+357333446+356879281+356682127
2478+356968449+357462076+357751462+357781917+357797795+357909092+357984054
2468+357919275+357770156+357608502+357440380+357282409+357175383+357104321
2458+357025800+357003453+357151613+357358361+357283245+356831462+356413663
2448+356450773+356815801+357082377+357138707+357196831+357358918+357530600
2438+357650254+357733975+357792626+357877244+358076936+358346606+358484119
2428+358389349+358223300+358226829+358476753+358873165+359256052+359487685
2418+359559087+359650174+359922382+360258039+360399358+360304712+360159369
2408+360122786+360291063+360774013+361539384+362251057+362507016+362266532
2398+361898780+361764920+361877981+362063250+362306891+362725681+363255613
2388+363632372+363695975+363477806+362928406+361767086+359706627+356736135
2378+353156633+349418602+345895615+342692748+339699971+336884293+334372454
2368+332200048+330281125+328724786+327839667+327788630+328599468+330409260
2358+333293029+337037249+341538423+347114533+353597861+359441538+362679781
2348+362445982+359460572+355688558+353101170+352261548+352599959+353493063
2338+354454134+355048195+355100594+354806349+354589820+354872335+355832725
2328+357252728+358569016+359275056+359539310+360246030+362029948+364459830
2318+366534959+367723391+368226149+368538190+369034201+369804617+370696019
2308+371521836+372271671+373094734+374027052+374793661+375107962+375151045
2298+375403260+375993174+376632020+377188879+377866971+378755215+379606536
2288+380166954+380467297+380676119+380835884+380885312+380814900+380626196
2278+380250273+379710282+379249338+379091924+379168403+379202634+378981741
2268+378477683+377826364+377267803+377014783+377074239+377245797+377384919
2258+377578916+377934876+378327884+378562580+378673599+378865306+379247233
2248+379782025+380392582+381000757+381540934+381987548+382271734+382186063
2238+381560649+380569340+379667663+379156394+378933458+378679944+378170006
2228+377423142+376672008+376172500+375991162+375996083+376038856+376055910
2218+376006297+375855568+375663305+375561199+375597783+375724494+375923040
2208+376154797+376247679+376109114+375973737+376167765+376740161+377543756
2198+378520240+379684531+380917903+381927968+382471240+382624042+382730666
2188+383024601+383423954+383748469+383961469+384140610+384364536+384679456
2178+385092086+385567948+386044459+386433567+386653129+386712492+386731248
2168+386814443+386960931+387171300+387557716+388191115+388877996+389280289
2158+389296321+389184993+389248906+389498582+389736931+389908644+390181502
2148+390650307+391157615+391488412+391592096+391552355+391467706+391440872
2138+391606519+392026360+392514633+392752487+392701790+392688079+392951467
2128+393416063+394011764+394819507+395760027+396535859+397017014+397383280
2118+397823302+398334695+398831788+399276948+399717557+400275654+401019051
2108+401810142+402436175+402895664+403364562+403915200+404477135+404987321
2098+405381040+405574387+405609145+405632234+405665815+405633688+405613478
2088+405778846+406088163+406293488+406277301+406172875+406147805+406257462
2078+406493118+406784051+406985972+407052453+407169353+407567653+408266233
2068+409084344+409809759+410318305+410628242+410857893+411098470+411364582
2058+411641587+411908225+412158366+412467188+412975827+413745098+414642566
2048+415442942+416085100+416752266+417594519+418473509+419172616+419764789
2038+420511869+421434778+422287182+423012535+423889699+425079029+426373745
2028+427572205+428730646+429893080+430982873+432115068+433629222+435649290
2018+437833674+439679802+441050562+442340388+444048384+446251369+448598428
2008+450711564+452427700+453793106+455052291+456519833+458224146+459745604
1998+460650098+461104232+461791702+463104771+464670519+465892904+466737601
1988+467642497+468913164+470519364+472275024+474047675+475911135+478065032
1978+480504076+482955561+485236975+487396444+489476618+491493096+493595430
1968+495878329+498153769+500249790+502305915+504467829+506588424+508490881
1958+510288695+512265155+514616454+517378341+520427044+523517934+526435067
1948+529126387+531692482+534293427+536989080+539610081+541960637+544176498
1938+546589574+549258424+551939282+554500425+557090537+559860038+562694720
1928+565299688+567567607+569807114+572411525+575289290+577908310+579873658
1918+581123929+581799142+582298062+583210541+584844287+586883916+588721996
1908+590038501+590877256+591426439+591975746+592813325+593953289+595177004
1898+596379302+597566682+598622027+599504422+600558901+602104934+603776501
1888+604761218+604747228+604205473+603818532+603925372+604367591+604713988
1878+604612842+604008938+603213762+602857832+603565729+605370074+607239971
1868+607560431+605837919+603246755+600971036+599158397+597564330+596298831
1858+595560974+595087929+594258521+592735082+590960574+589768304+589411261
1848+589485046+589782046+590175982+589661711+587307750+584049605+581547949
1838+580290498+579556417+578663313+577847338+577668259+577827777+577231549
1828+575600032+573799278+572140957+570047474+567515796+565413090+564211969
1818+563507167+562759344+561949373+561396414+561252619+561291740+561161253
1808+560816218+560558154+560727205+561540457+563010352+564748586+566082980
1798+566792486+567550461+569286219+572064881+574436669+574659574+573106856
1788+571701957+571688772+573116451+575419901+577933380+580025562+581357233
1778+582345169+584055919+587495557+592643841+597403759+598898724+597174912
1768+594736766+593452821+593947779+596049247+598619675+600225566+601064878
1758+602362379+603973469+604974218+605961102+608489128+612592527+616180665
1748+617508188+617089924+616594471+617407661+619913217+623126422+625417801
1738+626667453+628748308+632906366+637220723+638426363+636879031+634771558
1728+633221874+632910451+634097831+635997131+637826174+640400254+645341046
1718+652303888+657442763+657815777+655385863+652896030+651314652+651318614
1708+653939058+658887526+663708045+666946939+670275155+674859895+678125654
1698+677887769+676073768+674437484+673210364+673091020+674806289+677944656
1688+681832703+686905344+693075361+696923420+695798807+692779352+691236971
1678+691989560+694643616+698178024+701457029+704517154+707847227+710310938
1668+710239505+708813374+708659612+710426569+712392598+712836178+712338497
1658+712693064+715318336+720952045+727984649+730829792+728723744+727345338
1648+728595671+729626813+727193186+722836179+719950429+719732415+721841249
1638+725619670+729688033+731022056+728200992+724185120+721780029+721089527
1628+720823539+720499365+720909829+721985787+722123578+721111873+721295161
1618+724372989+728283010+728819566+726182595+724056367+724151137+725426973
1608+726094448+725480641+724223870+723594959+724662189+727272481+730039567
1598+731925683+733275799+734808895+736425928+737733209+739018021+740892684
1588+743463174+746252421+748624209+750339974+751938622+754368164+758133399
1578+762604861+765380984+763915485+759985531+757614362+757977038+759050768
1568+758441789+756364338+754235201+753015447+754058784+759103879+767145836
1558+770756630+766055083+758517803+752079075+748063512+746933267+747834604
1548+749290075+751049170+754187475+759667485+767619810+776110671+779326724
1538+775061949+769683828+768026869+769873801+772431044+774455570+777437080
1528+782169081+787211948+791140911+794704289+799018832+803489117+807425755
1518+811504209+815840850+819585720+822915918+827165217+833223442+841214764
1508+850350693+857135013+858009422+856280659+856847422+860950202+867372403
1498+873599864+877483330+879575637+882310349+887038636+893124407+898304755
1488+900426341+899902165+898980216+899442800+901903168+906353954+912800420
1478+920970202+929433518+935987939+939505262+940700008+941011987+941526383
1468+942844868+945191401+947892377+949003991+947288474+944233363+942464055
1458+942940814+943706031+942574486+940058283+937154458+934415041+932546939
1448+931827343+931382339+929851967+926914096+923936609+923146323+925889949
1438+931251790+935570109+935117986+931044732+927422982+926331548+927008681
1428+927873619+928565855+929241935+929506066+929739926+931760366+935893045
1418+938555890+936569372+931681381+927399522+925823467+927159904+929849367
1408+932004379+933367990+934766823+936095027+936713353+937021743+937759599
1398+938869975+940315295+942385317+944075950+943594238+941152502+938797798
1388+938067803+938879012+940171066+941576151+943997584+948490586+955072491
1378+962543166+969087806+973196282+974610837+974456952+974088952+974131725
1368+974574439+975092920+975497813+976432823+979039092+983295819+987706556
1358+991473463+995238698+999006843+1001398130+1001668575+1000648698+999647268
1348+1000263985+1004076884+1010440341+1016131123+1018915232+1019619477
1340+1019771134+1019779985+1019934366+1021076868+1023785705+1027669172
1331+1031602406+1034821058+1037818477+1041066780+1043496507+1044507470
1322+1046049293+1050449569+1056442550+1060118587+1060122053+1058016066
1314+1054973150+1051913150+1050521374+1051924911+1056030786+1062081830
1305+1068188832+1072034477+1073412264+1073741823+1072656208+1069314559
1297+1066187458+1066472573+1069394163+1071406927+1070349911+1066517389
1288+1061565826+1057426152+1054323935+1049887015+1042321631+1033690998
1280+1027891086+1026502405+1027374586+1027494302+1026135457+1023530551
1271+1019348909+1014298366+1010703915+1009941050+1010356775+1008602075
1263+1002570716+992941129+982668950+975143307+971836880+971306514+970918520
1253+969187962+965833747+960648199+953521568+945076885+936435295+928364678
1243+920567167+911874262+902165751+893585753+888080611+884631008+880610184
1233+875218259+869901543+865896133+862919574+859953601+856261593+851856180
1223+847701527+845260039+845180434+846395422+847077692+846481464+845457378
1213+845468954+847381686+850797059+854366998+857071131+859121841+861603255
1203+865585081+871179360+876885122+880561344+881861012+882639228+884199683
1193+885890440+887124431+888974087+892976526+899361215+906707965+912794354
1183+916215298+917699554+919163382+921839784+926364603+933258859+941596826
1173+948897645+954005694+958540046+964501643+972236635+980919698+989066824
1163+994726222+997062851+997776071+999604185+1003356855+1006997113+1008346302
1153+1008663295+1011343287+1016669969+1020405926+1018657973+1012108999
1144+1004622292+999763889+998914549+1000861884+1003332776+1005570549+1008346611
1134+1011915188+1015809301+1020102179+1024570607+1027436611+1027717392
1125+1027570749+1029185059+1031416085+1032396654+1032981740+1035181382
1117+1039003381+1042783659+1045530318+1047147908+1046853384+1043763176
1108+1039886581+1038800470+1040864364+1043961877+1047850976+1053032562
1100+1056771119+1055505001+1050019482+1043146149+1035456469+1027309466
1091+1021473713+1020049006+1021394109+1022812131+1023940024+1025442107
1083+1027177865+1028576698+1028932813+1027264155+1023772706+1020885409
1074+1020463803+1021684300+1022085911+1019630929+1014435724+1009589083
1065+1008409750+1009844980+1008778678+1002638869+995482030+993270255+997025710
1055+1001631868+1001152694+995663028+990572869+989493382+990642631+989787225
1045+985657579+981821591+983193807+990891224+1000949598+1008043855+1009804064
1035+1007308907+1002414602+996623975+992105902+990998684+992980126+995124553
1025+995331611+994460482+993542990+991942856+990096790+990664234+994931052
1015+1000124275+1001938029+999029870+993347879+986819518+980216691+974342497
1005+969909353+966468477+962713207+957664460+951184134+944095696+937961953
995+933840850+930780602+926215113+918699127+909640945+901965502+897552475
985+895757045+894234596+891271346+887211958+883627968+881609819+880525565
975+878509830+874993126+871797253+870685392+870554472+868374266+862880143
965+856186075+851320120+849070029+847936131+846633863+845750354+846828789
955+850299748+854568361+857461477+858612893+859487860+861127548+863459596
945+866733340+871714925+878161762+884710240+890581958+895919906+900524763
935+904308569+908607822+915088395+923886222+933648277+942588661+949284958
925+952975480+953629523+951889865+949186041+947305063+946993517+947558299
915+948075665+947905624+946770365+945370046+944546952+943551217+941072836
905+938381392+938627386+942426048+946946472+949373538+949015442+946603109
895+944032557+944026863+948234565+955467789+962171019+965209169+964830398
885+963940575+964320150+965306786+965925546+966110381+965773332+964568805
875+963438560+964916564+969508731+973106092+971941925+967950814+965776736
865+967452451+971503978+975794255+979847329+983767998+986095775+985291189
855+982924043+981695685+981278474+980211739+980200349+984303687+992241589
845+999940740+1003372330+1002136668+999547918+998990440+1000490604+1002847041
835+1006797917+1012780622+1018505945+1020710663+1018340855+1012659730
827+1005777607+1000602954+999938635+1004402359+1011995969+1019629443+1024525976
817+1026011594+1027493064+1033569240+1043457262+1049791316+1047771248
808+1042478736+1041406862+1045884142+1052033237+1056216612+1056892444
800+1053185333+1045687793+1037335651+1030790949+1026738185+1025635733
791+1028521049+1033043517+1032702939+1025136194+1015689833+1008490716
783+1001754493+993836090+987574088+985247611+984615295+983078795+981339942
773+980398803+978761219+974760080+970602084+971106080+976963498+983948872
763+988329524+990186423+992139267+996001749+1000803388+1004481220+1007467683
753+1011491354+1014422230+1011785073+1003839805+996908966+995979155+999567478
743+1002919217+1004965284+1007643109+1009981409+1009539005+1007426209
734+1006211717+1004509509+1000104900+995648295+995110192+997310949+997038710
724+991860961+985423719+984317552+992914264+1008786354+1022550600+1026859077
714+1025502460+1025498932+1025443593+1020964951+1016077331+1018990132
706+1030844927+1043529810+1046789626+1039331950+1030553993+1027354963
697+1025464391+1017955709+1007603369+1002134625+1003548005+1007650228
688+1008251346+1001005865+988613587+980257112+982572261+992275387+998679079
678+995143247+985524245+976955451+973870628+976744246+980012047+975693481
668+965226872+961047211+965767389+970194777+969589140+968446143+972533139
658+979291708+982977154+984145097+985937185+986463651+977435739+958881181
648+946072744+950843185+970598060+990950463+996150991+984855841+971288377
638+969135037+979539992+993740453+1003432684+1005361201+996458885+976261606
628+954157041+940958939+937368696+933723362+922662568+911261878+910517893
618+922453344+939015751+947757620+946018147+942715867+944760077+952803148
608+960913753+959611795+946061292+932567861+931689242+940690847+948802566
##END=
