##TITLE=<SNM>
##JCAMP-DX=4.24
##DATA TYPE=INFRARED SPECTRUM
##DATE=29/4/2025
##SAMPLING PROCEDURE=Instrument type and / or accessory
##ORIGIN=Admin
##XUNITS=1/CM
##YUNITS=ABSORBANCE
##RESOLUTION=4
##FIRSTX=4497.3318
##LASTX=599.83466
##DELTAX=-1.4281778
##MAXY=2.0631564
##MINY=0.42704245
##XFACTOR=1
##YFACTOR=1.9214641e-09
##NPOINTS=2730
##FIRSTY=0.43837446
##XYDATA=(X++(Y..Y))
4497+228146058+229967267+231872278+232828421+232860372+232749459+232988052
4487+233218674+232926942+232333320+231966844+231787267+231546735+231521701
4477+232083062+233000678+233744796+234054535+233885070+233277039+232412515
4467+231469525+230551925+229914471+229945413+230764973+232039199+233121673
4457+233350154+232577342+231388903+230437165+229721989+228876093+227916786
4447+227337417+227600052+228680788+230018606+230937990+231129603+230717745
4437+230086401+229700910+229764502+229902279+229404293+227986907+226344034
4427+225711807+226591546+228100303+228944555+228744768+228048111+227601230
4417+227963596+229158472+230431395+230914910+230533685+229820944+229163993
4407+228638848+228318097+228349567+228706783+229002237+228712227+227799017
4397+226929948+226814428+227460754+228219095+228561561+228607781+228770127
4387+229126660+229302220+228855076+227801809+226763431+226404788+226672944
4377+226853948+226476569+225788505+225229238+224966153+225089211+225665587
4367+226382469+226647693+226306453+225775073+225271503+224497605+223311694
4357+222278760+222248469+223517034+225548779+227400761+228316825+228097976
4347+227180686+226340390+226057033+226142541+226176245+226165279+226406354
4337+226896291+227356433+227629537+227660774+227254236+226213718+224811749
4327+223830992+223799925+224333585+224682611+224763326+224955731+225118557
4317+224770988+224142266+224061427+224769127+225499891+225455035+224915776
4307+224868330+225610696+226459663+226801477+226681924+226358071+225997738
4297+225713622+225429816+225052700+224864546+225211634+225959738+226734954
4287+227334284+227619424+227443290+226786169+225720741+224501312+223709547
4277+223780475+224458923+225194200+225835067+226545000+227354820+228027916
4267+228258972+228085087+227915529+227946550+227924960+227668591+227343063
4257+227106548+227016495+227268645+227995764+228925089+229564219+229550399
4247+228806731+227665799+226821160+226862587+227787772+228995351+229725587
4237+229585297+228652032+227244061+225924778+225441417+226056630+227113139
4227+227801747+228045893+228125941+228009832+227682225+227566441+227931334
4217+228314824+228249092+228142583+228601655+229232983+229113709+228207804
4207+227370469+227196802+227633492+228369870+229004750+229201978+229062479
4197+228970891+228916683+228484041+227645016+226975781+226817654+226783284
4187+226536873+226572407+227578725+229271882+230487495+230393348+229198317
4177+227785151+226963668+227022653+227800382+228996126+230253788+231115380
4167+231249280+230752146+230074148+229632681+229457493+229199186+228653692
4157+228196156+228338431+228954853+229398802+229345928+229122984+229225569
4147+229807372+230559060+230945140+230672269+229925235+229108870+228529269
4137+228344495+228564539+229060354+229668742+230280884+230916865+231718634
4127+232521846+232534254+231171139+229145381+227865897+227899414+228713375
4117+229560496+230035156+230123191+230162696+230535965+231179825+231520104
4107+231070199+230115033+229540023+229818959+230504153+230885581+230772666
4097+230492753+230397939+230360591+229828141+228665355+227600563+227363428
4087+227889286+228787343+229898138+230939355+231299564+230706732+229742850
4077+229366619+229977597+230970918+231313880+230601651+229292542+228080325
4067+227537468+228054982+229432227+230732029+231121429+230652865+229907274
4057+229285423+228937373+228975342+229436353+230139214+230702870+230832567
4047+230720459+230928715+231591792+232065272+231708506+230713758+229924707
4037+230028548+230985497+232153727+232973147+233424525+233696962+233702841
4027+233248593+232433686+231638276+231225766+231268947+231546254+231781823
4017+231871038+231950590+232240196+232703347+233008914+233059074+233249120
4007+233849598+234539493+234913118+234997540+235001154+234944108+234739668
3997+234419893+234114901+233904349+233864612+234196577+234976943+235790035
3987+236059122+235795572+235536226+235526795+235435223+234968055+234454233
3977+234536732+235348273+236326099+236895386+236956217+236692776+236353149
3967+236256225+236627695+237340374+237973904+238106873+237592896+236693055
3957+235881080+235500769+235691250+236447497+237516570+238363118+238441305
3947+237650501+236623290+236364409+237254339+238439676+238772820+238297695
3937+238015813+238492302+239422341+240311371+240890554+240963390+240561582
3927+240217131+240406837+240697188+240215673+239155612+238800537+239854983
3917+241435474+242011896+241049192+239275165+237805649+237355093+237979007
3907+239457751+241651733+244261342+246592249+248040205+248418623+247554626
3897+245501353+243180777+241926279+242309428+243374437+243386240+242235569
3887+241658387+242691926+244279908+245172552+245820026+246524019+246280757
3878+244951314+243935349+244123115+245273663+247087769+249054588+249785414
3868+249005855+248622303+249871977+251343834+250908524+248457554+245337829
3858+242986511+243196426+247989719+255769441+259249562+256082825+250718276
3848+246772601+245382715+246168882+248174973+250587106+253099218+255511615
3838+257067740+257161964+256402119+255487528+254146654+252065013+249972529
3828+248853886+248779158+249543207+251725075+255353039+257989248+257682099
3818+256225163+255446472+254366511+251983398+249615888+248979038+250583647
3808+253586239+256269150+257900902+259515034+261562941+262587019+261799007
3798+260419590+259278256+258149158+257201283+257202570+258353769+259992113
3788+261540886+263159315+265142916+267341924+269671031+272369653+275158545
3778+277132933+278204069+279596638+282681496+287943336+294588750+300977005
3768+306205250+310732062+315118009+319630179+324900085+331499496+338888221
3758+345763435+351647855+357434158+365009068+376172515+389580817+400294964
3748+406350028+410479561+414505889+416703810+416500720+416622040+419408451
3738+425368996+433428010+441134385+445580047+445825202+443985411+442719994
3728+442717947+442777692+441604066+439430309+437433586+436177724+435374046
3718+434848746+435277449+437842714+442853537+448102815+450292640+449549298
3708+448741805+449504225+451861685+455138745+457966071+459195007+459256242
3698+459218025+459681904+461309298+464779802+469832875+475125209+478921055
3688+480085003+478888793+476614127+474938621+475078864+476801894+479161339
3678+482171717+485588028+486489171+483009392+477918536+474043805+471066837
3668+467801998+464723934+462863918+462441109+462907471+463877542+465885618
3658+469469967+473160747+474434942+473782210+474334374+477689792+481438487
3648+481712800+478912369+475969833+474451135+474428614+475037204+475321134
3638+475476825+476697572+479368214+482288198+484654468+487329887+490608095
3628+492488833+492228137+492090717+493623281+496529151+500103915+503702253
3618+506349940+507457339+507248261+506395261+506485841+509209218+513407119
3608+515101238+512830357+510089639+510719819+514978459+520033549+523401096
3598+525562786+528168502+530737800+531117552+529231386+528029468+530146427
3588+534982450+539590411+542238501+543181274+542738054+541309873+540352893
3578+541076351+542611366+543070841+542169263+541577331+542987272+546579872
3568+550536404+552076755+550520335+547948556+546266628+545807960+546063878
3558+546317998+545978882+545131900+544618264+545220681+546913466+548898401
3548+550141762+550149393+549519492+549049533+548696024+548520510+549410797
3538+551687386+554141599+555303438+554805064+553287606+551761649+550665821
3528+549462601+548134120+547978087+549407074+550816394+550990667+550745047
3518+551273760+552578913+553924021+554451927+553341830+550615258+547739106
3508+546678703+548377816+552009130+555337002+556283994+554384302+550561344
3498+546416519+543876255+544061944+546379790+549409928+552259093+554656724
3488+556324134+556872017+556354100+555468653+554809655+554107786+552654355
3478+550555327+548946421+548638202+549089425+549116847+548228794+546861041
3468+545829674+545790836+546620757+547359167+547161319+545950281+544025526
3458+541936486+540643120+540644423+541197703+541295852+540883032+540340050
3448+539647240+538950273+538978626+540114160+541772884+543003837+543174884
3438+541941511+539445855+536902056+535703923+535606395+535152628+533915595
3428+532937645+533160682+534364461+535244821+534519997+532544058+531018101
3418+530743384+531010408+531349833+532329520+534403795+537080113+539318113
3408+540220932+539554861+538049378+536837409+536304603+535813735+534590662
3398+532622663+530886264+530815103+532910161+535654476+536754895+535794254
3388+534569258+534857375+536862288+539381333+540958536+541230461+541008727
3378+540932913+540926461+540932479+540602918+538984892+536375950+535001000
3368+536362487+539537304+543140947+547164297+551362106+554038052+554107910
3358+552739599+551676157+551197201+550895807+551266315+553212102+556605365
3348+560194181+562642189+563254471+562120053+560216950+559000143+559124659
3338+559656411+559203513+557832223+556736954+556180261+555336940+554033834
3328+553108742+552812187+552229499+550847601+549584821+549563914+550460776
3318+550945502+550684868+550596087+551182932+552168699+553445934+555034925
3308+556451628+557264115+557790222+558391274+558852113+558940335+558664688
3298+557850029+556321590+554489586+552993346+551982825+551567337+552503596
3288+555210749+558509523+560660046+561560135+562684811+564793891+566712690
3278+566660514+564458746+562055097+561443684+562590633+563916074+564266295
3268+563720087+562838983+561951861+561029623+559717149+557860080+556267367
3258+556331641+558420743+561052144+562256357+561566835+560133381+559268407
3248+559439082+560498926+562324416+564510054+565739021+564608140+561422652
3238+558345674+557284092+558129709+559231183+559282180+558459022+557703613
3228+557457931+557656896+558333638+559239682+559624398+559077197+557732524
3218+555778795+553758744+552615828+552312138+551503621+549742281+548580504
3208+549351610+551195712+552145682+551326619+549350307+547191409+545696969
3198+545739715+547548330+549961099+551345045+551306579+550663712+549774108
3188+547998312+545093497+542170132+540571711+540367038+540572766+540447381
3178+539803645+538372797+536017415+533564196+532240306+531995368+531356534
3168+529479487+527535499+527310042+529082364+531362179+532391499+531814891
3158+530754303+530158028+529714374+528811121+527774604+527358744+527542075
3148+527441755+526287981+524359007+522763130+522099292+521777300+520989381
3138+519675852+518152067+516694386+515805061+515953276+516859786+517622145
3128+517564912+516788812+515966708+515690440+516091690+517025467+518186561
3118+518929687+518639522+517438721+515986747+514558133+512864665+510834595
3108+509014378+507937721+507454175+507197915+507332202+508032923+508699180
3098+508564768+507730629+506907967+506565098+506719673+507222452+507935550
3088+508653704+508899789+508149405+506481591+504538657+502774246+501297519
3078+500225297+499508074+498732687+497723065+496936480+496751443+496843822
3068+496733979+496619948+497095677+498054488+498562106+498035224+496869445
3058+495626705+494406299+493322228+492695553+492392732+491734354+490443749
3048+489197038+488910378+489713125+490806161+491239547+490698830+489610013
3038+488705612+488432291+488643137+488803171+488332995+486955750+485230952
3028+484503895+485520341+487277121+488060139+487356534+485889733+484343457
3018+482945894+481838992+481249852+481330226+481840791+482118517+481680446
3008+480720829+479752061+479060305+478660948+478389892+477941864+477147244
2998+476236981+475672037+475701723+476026538+475939650+475016234+473616778
2988+472520640+472125161+472175383+472192630+471927312+471450746+470985904
2978+470602771+470017788+468892460+467447001+466440232+466317640+466606936
2968+466335570+465039877+463350194+462401745+462619880+463403425+463977893
2958+464015117+463439192+462412478+461558733+461434465+461755186+461740854
2948+461102237+460170724+459315646+458763730+458673585+458866377+458818854
2938+458312600+457678295+457166457+456618544+455895488+455022170+453986801
2928+452982329+452519566+452819161+453463890+453861044+453640799+452728240
2918+451549712+450844618+450874459+451221051+451461614+451457395+451007444
2908+449931997+448633388+447968620+448255342+448767614+448591976+447708173
2898+446747656+446017714+445386107+444871137+444685356+444788282+444830035
2888+444441039+443458870+442113886+441042472+440829299+441416609+442099152
2878+442205645+441696724+440945192+440109284+439088619+438022478+437345767
2868+437227207+437363852+437491439+437672195+437869702+437748784+437165414
2858+436383172+435616626+434883737+434400563+434480472+434899403+434954991
2848+434343423+433514992+433024000+432895793+432719721+432185890+431436840
2838+430818448+430353669+429742783+428918663+428208140+427799384+427479160
2828+427164551+427232951+427860557+428413030+428047455+426748505+425280898
2818+424279372+423809971+423639513+423526165+423283926+422855534+422326481
2808+421748725+421082841+420352682+419663377+419086490+418690452+418528525
2798+418461614+418235320+417813628+417420941+417223310+417152831+417003809
2788+416530778+415635622+414556483+413683103+413209762+413023484+412787698
2778+412170857+411174698+410135761+409321320+408770769+408493633+408457556
2768+408457153+408303602+408034686+407746320+407399790+406936717+406392774
2758+405855904+405420253+405139611+404971976+404808995+404546996+404138706
2748+403657268+403259369+403009128+402835599+402667065+402473591+402218169
2738+401870305+401398392+400746963+399954608+399200067+398579441+398018933
2728+397497107+397072158+396650591+396071625+395465114+395149295+395093706
2718+394891143+394377817+393883940+393690528+393578358+393161754+392432246
2708+391730905+391320443+391178556+391139904+391052892+390774980+390208671
2698+389452238+388752944+388201215+387662235+387078864+386596962+386360214
2688+386373367+386516433+386595814+386516681+386364836+386146887+385681611
2678+384964450+384319008+383989385+383862294+383675613+383279234+382718322
2668+382211480+381924820+381696199+381229311+380596587+380184543+380094987
2658+380009370+379740547+379534106+379627012+379792754+379575363+378851408
2648+377947473+377215329+376699366+376311735+376106969+376105263+376035870
2638+375658041+375177349+374962408+374998175+374911441+374459505+373827805
2628+373472652+373704592+374384280+375045729+375318243+375146700+374644138
2618+373902781+373004181+372126427+371539862+371406443+371568587+371660717
2608+371520133+371340804+371293591+371211293+370871589+370376379+370023273
2598+369983846+370228969+370545409+370581889+370108238+369256851+368447063
2588+368116416+368367992+368756243+368704812+368235131+367885779+367931875
2578+368188539+368468529+368703447+368754227+368543753+368219993+367914783
2568+367557645+367108748+366721737+366487905+366273430+366040901+366058614
2558+366453256+366820444+366707375+366233414+365821649+365614029+365517276
2548+365516594+365623149+365735009+365744098+365654107+365559030+365579999
2538+365741182+365866256+365723500+365301777+364833803+364566004+364584864
2528+364804241+365045579+365185885+365260241+365356963+365471893+365588468
2518+365794630+366114792+366321388+366170318+365768728+365484736+365518672
2508+365719343+365807193+365649640+365311673+364968587+364785473+364767823
2498+364759323+364661888+364564825+364562560+364591409+364570812+364558311
2488+364649449+364815036+364917806+364883870+364794159+364725107+364606485
2478+364426598+364417230+364752250+365191934+365319180+365064347+364760688
2468+364741114+365037545+365430853+365683732+365704578+365553229+365364190
2458+365249663+365227762+365265762+365376288+365574695+365752349+365731596
2448+365490412+365206607+365022966+364914642+364865816+364971192+365188646
2438+365214176+364868422+364443814+364393561+364785783+365283661+365583598
2428+365675263+365698435+365748161+365880836+366147115+366514552+366835955
2418+366972476+366933049+366875971+366962828+367199638+367459031+367663487
2408+367857395+368081239+368276419+368345998+368298289+368352761+368793065
2398+369596215+370357580+370743598+370860887+371044745+371457999+371991830
2388+372364757+372243498+371438301+370008538+368062813+365552857+362440453
2378+358947955+355407283+351919966+348411835+344989816+341932566+339293813
2368+336894321+334799356+333349834+332606243+332316946+332596751+334021488
2358+336910731+341031392+346045131+351761669+357696715+362727516+365603916
2348+365662049+363205510+359641293+356739177+355172459+354445929+354132344
2338+354318125+355052782+355981813+356747366+357464527+358401624+359363257
2328+359913094+360089786+360386125+361156827+362422988+364090616+366020210
2318+367939507+369563333+370840506+371905562+372793025+373437226+373975214
2308+374731089+375774585+376791187+377545169+378214404+379111670+380226451
2298+381161717+381568829+381645481+381995732+382890176+383941582+384657223
2288+385005862+385279369+385668024+386100728+386339368+386185879+385656485
2278+384965132+384389579+384141571+384225202+384404004+384395814+384075807
2268+383493461+382819294+382267564+381966635+381914118+382067141+382388761
2258+382804063+383206522+383553734+383942047+384533204+385341968+386148748
2248+386716918+387022655+387191003+387312045+387378429+387311704+387016451
2238+386447940+385629156+384614105+383508940+382538466+381963378+381838676
2228+381926867+381939399+381778217+381474031+381066919+380662164+380425075
2218+380428084+380616285+380903224+381206666+381498041+381892869+382530308
2208+383306004+383888537+384063709+383985755+384040630+384461391+385138257
2198+385879863+386728023+387806138+388974399+389884104+390324067+390376553
2188+390325835+390494927+391044578+391833397+392526083+392913590+393118542
2178+393421178+393896938+394340065+394558759+394592168+394580876+394566049
2168+394499572+394408372+394517657+395099290+396056953+396805414+396858707
2158+396451408+396265813+396646155+397360462+398007890+398390123+398549475
2148+398637108+398756351+398893399+398993998+399041459+399064352+399171187
2138+399508131+400052136+400552030+400816045+400958398+401248346+401789404
2128+402398149+402782802+402880145+402993431+403495404+404411623+405393916
2118+406089705+406458041+406717434+407062567+407502654+407969791+408480666
2108+409088574+409735536+410313384+410863532+411509315+412161830+412549616
2098+412610354+412571237+412590253+412626268+412664268+412747930+412820207
2088+412800013+412763843+412879084+413215997+413666073+413966971+413906481
2078+413621713+413523255+413796048+414183152+414374393+414380969+414417356
2068+414641169+415093478+415706162+416318257+416800222+417136111+417351765
2058+417492939+417678876+418009833+418459505+419016135+419790622+420789573
2048+421759923+422487166+423076896+423728573+424403981+424938401+425346537
2038+425825771+426552673+427584071+428838755+430113539+431243117+432267846
2028+433331444+434464000+435612314+436828935+438277528+440032974+441940947
2018+443717270+445217108+446591220+448106413+449827861+451561159+453131940
2008+454637051+456285508+458036115+459588812+460763618+461711075+462658253
1998+463601956+464424897+465239711+466367800+467913052+469582199+471045681
1988+472257370+473367622+474579311+476084795+477940189+480015145+482113615
1978+484076837+485842457+487548023+489480937+491799962+494387004+496985555
1968+499336066+501223442+502677897+504166102+506254180+508976130+511786674
1958+514197644+516166883+517893666+519655224+521776990+524389531+527300860
1948+530321754+533546824+537141286+540929687+544275178+546558716+547932487
1938+549286157+551365580+554201964+557388197+560550544+563378552+565528702
1928+566966810+568355408+570517160+573342873+575881895+577826876+579893147
1918+582310135+584224778+585225125+586134582+587732196+589738474+591287076
1908+591913751+591878325+591712614+591734763+592030263+592607988+593356821
1898+594050066+594605207+595201110+596073963+597342202+598951976+600628382
1888+602005752+602861791+603117214+602893184+602704704+603084518+603832917
1878+604093427+603345028+602038509+601147788+601301215+602350389+603385168
1868+603177579+601281424+598538784+596092389+594377952+593095629+591730606
1858+589978200+587915527+585889335+584145924+582699566+581582644+580958699
1848+581020306+581857982+583016160+583214753+581602187+578945287+576420348
1838+574384105+572628038+571156553+570475345+570892259+571545487+570858571
1828+568597678+566068520+563951934+561823808+559532825+557603975+556432768
1818+555928313+555748147+555639699+555656947+555954805+556358070+556423958
1808+555975340+555308463+555010791+555684865+557462460+559604793+560964418
1798+561134224+560866890+561328660+563014372+564949737+565499357+564751641
1788+564387089+565411693+567505883+569993597+572581818+574950662+576567261
1778+577521449+578886659+581801400+586286024+590647745+592875570+593050401
1768+592424223+591620483+591157597+591743014+593174979+594259143+594694794
1758+595449894+596941852+598801279+601218515+604810805+609026668+611961014
1748+612649110+612138575+611863052+612574226+614434584+617005929+619311864
1738+621119859+623820435+628628354+633749827+635534867+634114069+632077888
1728+630625760+629976378+630311337+631640810+633918765+637546170+642874549
1718+648624931+651715682+650995884+648660170+646794725+646274140+647646050
1708+651054451+655406369+658818182+661077958+664183910+669392054+674766592
1698+677755535+678521678+677489938+674940121+672771234+672908468+675485646
1688+679501613+684752193+691459245+697099752+698200791+696357433+695222829
1678+696625077+700525214+705306455+709076058+711820311+714423173+716279560
1668+716302701+715627759+716297180+718664659+721119678+721953879+721591499
1658+722002085+724923838+731030023+738505637+742086449+740957244+739943992
1648+740820320+741819550+740616888+737582841+734671015+733160196+733475178
1638+735160208+736684986+735931810+732581355+728809022+726558180+726314980
1628+727176541+727820215+727950129+727719151+726691568+725236648+725166541
1618+727383137+729831084+729538623+727265880+725574336+725072612+724800624
1608+723942785+722775611+722434076+723870074+726762915+729627590+731313116
1598+731903559+732031921+732140865+732526387+733575064+735767712+739236913
1588+743173591+746125744+747315439+747419234+747852155+749493384+752199358
1578+755232660+757410108+757285840+754881447+751639563+748281105+744689498
1568+741218622+738719554+737415641+737262214+739123378+744516404+752568687
1558+756520752+752961654+747379093+743549001+741796346+741106452+740330507
1548+739346229+739362421+741734368+746799756+753896424+760987198+763612023
1538+760367968+756317444+755381000+757368975+759649783+760761928+761987669
1528+764900984+769745445+775771722+782406868+789391056+795599547+799655779
1518+801808783+803242051+805140563+808750287+814700688+822399338+830858486
1508+839288908+845511607+846982844+845890242+845951601+848330309+852403912
1498+856622257+859522233+861330414+863795359+868402700+875301333+882563837
1488+887299043+889339505+890979804+893294238+895594775+897497879+899980754
1478+904296378+910626718+917853920+923950241+926961394+927066678+926719931
1468+927887540+930817730+934469393+937113823+937773131+937315084+937192367
1458+937092171+934565867+929372737+924177001+919835691+915924511+913013864
1448+911607708+910379547+908171451+906121993+905875380+907605018+910167553
1438+911922503+911714046+910363540+909879560+911043384+913369296+915743166
1428+917056695+917147523+916551930+915650539+915094528+916265488+919645102
1418+923178887+924612900+924358284+923716161+923247442+923248559+923942052
1408+924989488+925484512+924733383+923202649+922301877+922827612+924354934
1398+926300969+928442248+930128642+930952917+932276497+935354344+938340495
1388+937650973+932966081+928623283+928726085+933777017+941250584+947425635
1378+950294901+951167133+952328972+954506855+957122622+959465843+961219738
1368+962616712+964237468+965935650+967242293+968956358+972283981+976896285
1358+981623861+985921556+989584076+992246621+993897839+994970960+995661599
1348+996173374+997095301+998838897+1001109345+1003130636+1004381442+1004968721
1338+1005462256+1006738995+1009637234+1014451853+1020667106+1026765909
1330+1030625967+1031392855+1030622679+1030781008+1033467005+1038877650
1321+1045294226+1049671333+1050828768+1050830629+1051895995+1053695304
1312+1054505806+1054015683+1054127108+1056932968+1062315509+1068018057
1304+1072011007+1073741823+1073540935+1072360545+1070691522+1067294288
1295+1060750963+1052134728+1044296609+1038860031+1035603320+1034157830
1287+1034701556+1036416241+1036694060+1033143462+1025239208+1014800026
1278+1005777423+1001454168+1000866827+1000223029+998361865+997496209+998349767
1268+998560644+995977759+990710055+983964352+977006346+970973430+966226312
1258+962035513+957334305+951831219+946423117+942065863+938376355+934136978
1248+928581778+921414879+912431859+902108756+891927540+883306714+876352430
1238+869943050+863161984+856283638+850314438+846071464+843454084+841391473
1228+838857166+835930823+833443108+831805726+830680987+829586710+828449439
1218+827697628+828002745+829769607+832714066+835953095+838711804+840948625
1208+843096356+845427852+848242584+852210531+857411603+862477611+866051785
1198+868688584+871800243+875399420+878317946+880149020+881847823+884413275
1188+887599383+890270925+892193571+894705792+898960988+904520718+910406721
1178+916601935+923575142+931270505+939434586+948082896+956869123+964463855
1168+969572796+972460798+974311973+975624448+976456478+977692704+980545715
1158+985105346+990450973+995128544+997110625+995351891+991491832+988687585
1148+989142841+992893149+997344271+998319181+994227400+988548428+985947116
1138+988259131+994642019+1002674822+1009368721+1012731894+1013565227+1014375418
1128+1015655818+1015532604+1013378546+1011550760+1012487577+1015815573
1120+1019271559+1021588847+1023544375+1025806261+1027578210+1028090233
1111+1026929573+1024040268+1021185085+1020791188+1023547229+1029463260
1103+1038094695+1045261717+1045039114+1037420931+1028798244+1024104790
1094+1023421534+1024993340+1026694996+1026277461+1024126443+1022484407
1085+1020926251+1016788994+1010989848+1008405598+1010664692+1012983159
1077+1010964350+1006674968+1003274695+999623032+993865206+987456447+982901096
1067+980622459+979301113+977383492+974664303+972842970+973137167+974442941
1057+975027987+974647428+973691440+972032468+970192336+969921093+971560957
1047+972295149+969921900+967078567+967797310+972101333+976812406+979686883
1037+980520712+980021345+979221018+978655206+978158631+977846255+978109618
1027+978326823+977591143+976445993+975554217+973953625+970402096+966298093
1017+965850282+972060386+982703310+991321282+992878384+987058827+976327122
1007+963872109+952922021+945060575+939190517+933035133+925371163+916562725
997+907701925+900157198+895163591+892626616+890890465+888505738+885417840
987+882217525+879416504+877039098+874543008+872036991+870473686+869540095
977+867056413+862038176+856743547+853732952+852404160+849825742+844725425
967+839037395+835119390+833427412+833250161+833954263+834877307+835293787
957+835032905+834594338+834871227+836734996+840131423+843816899+846935507
947+850465321+855888189+862851035+869177218+873223895+875766081+879269343
937+885481618+893827107+901859475+907875640+912833325+918241986+923662185
927+928033336+931735004+934948969+935871579+933308981+929129412+925779702
917+923629800+922044718+920843359+919863423+918663367+917160179+915761282
907+915158989+915856763+917845048+921087179+925395669+929713713+932864086
897+935013244+937140563+939391591+941073085+941799521+942120521+943572959
887+947187150+950959110+950999375+946941034+943166964+943278700+946633187
877+951020593+956145540+962331821+967599586+968843071+965817710+961557489
867+959106316+959537376+962028627+964598856+965238373+963400226+959899881
857+956033308+953981989+955566885+959909993+964834673+969766549+975183895
847+980431187+984034769+985693990+985928318+984610074+981776854+979042155
837+978666063+980608624+981509954+978569962+973896610+972286277+975731344
827+982028802+988569522+995701491+1004290242+1011295958+1012185252+1008217366
817+1005541978+1007540066+1011527867+1012832400+1010497864+1007373921
808+1007076187+1011022234+1016078502+1019089221+1021690470+1026403901
800+1031880310+1033560934+1029185192+1021182604+1012815835+1005493338+999551995
790+995515617+993890952+993495442+991158859+984967057+976612510+968591123
780+961488003+955563038+951894872+950535929+950419231+951543659+954690186
770+958803433+961359330+961901939+962226165+962661320+961117681+956987000
760+953891844+956236554+964560763+975200460+983440852+986977615+987146863
750+986495496+985746786+985604651+987809893+991819656+993817806+991272766
740+986596870+983773701+984517757+988629949+994217784+998780269+1002600807
730+1007122593+1011095690+1011906316+1008473347+1003231515+998363044+992414566
720+985483795+982877273+988899765+999907489+1006156493+1002489816+993571814
710+986700355+985487952+990008497+997278880+1001154759+997804056+990738594
700+985893389+983707131+981603015+981273516+986009902+992845130+994385790
690+988873398+981046881+972861458+962652324+952570932+947530298+948548761
680+952580858+956533420+957843474+953789538+944992020+934340286+922735853
670+912656385+914449552+936255240+965088172+982467244+984291246+975815037
660+963901330+955200534+955194578+963428145+970553414+966705825+954033793
650+942414967+936892337+937159857+942864577+952566713+959391208+956765266
640+948433365+942900685+942448469+943551990+942910053+937992384+927866881
630+916708149+910856951+912473426+918323197+924568851+929285879+928567632
620+917551967+900185985+888754584+891292862+903421168+910174502+903449893
610+894059078+894794944+909551860+935804885+961847219+966810674+947382703
600+918478920
##END=
