##TITLE=<SNM>
##JCAMP-DX=4.24
##DATA TYPE=INFRARED SPECTRUM
##DATE=29/4/2025
##SAMPLING PROCEDURE=Instrument type and / or accessory
##ORIGIN=Admin
##XUNITS=1/CM
##YUNITS=ABSORBANCE
##RESOLUTION=4
##FIRSTX=4497.3318
##LASTX=599.83466
##DELTAX=-1.4281778
##MAXY=2.0702603
##MINY=0.41938052
##XFACTOR=1
##YFACTOR=1.9280801e-09
##NPOINTS=2730
##FIRSTY=0.42307425
##XYDATA=(X++(Y..Y))
4497+219427728+220347899+222278462+224578493+226307729+226705994+225968819
4487+225169275+225145100+225853092+226760959+227388405+227439784+226810699
4477+225762051+224905950+224554921+224233663+223522842+222989777+223289921
4467+223949378+224094859+223861057+224046633+224792449+225366877+225025154
4457+223889807+222991771+223160175+223952485+224173582+223344175+222160494
4447+221607381+222014580+222828638+223147346+222729574+222397511+223005806
4437+224148155+224601230+224084549+223611210+223898756+224453647+224635329
4427+224651017+224784566+224524162+223340326+221668189+220320431+219586503
4417+219359207+219598899+220433963+221932550+223691725+224794907+224720898
4407+224037576+223515748+223053661+222110599+220733241+219636676+219467345
4397+220140667+220911012+221196379+221155882+221260294+221670074+222275262
4387+222878749+223086445+222415302+220805704+218886996+217615148+217511973
4377+218194075+218840857+219104785+219273313+219628638+220060074+220319921
4367+220250968+219748631+218939009+218350005+218410735+218779045+218776061
4357+218475067+218610301+219447034+220496904+221259892+221602311+221569279
4347+221256538+220695294+219853522+218952750+218455901+218493229+218737558
4337+218954652+219173646+219322435+219168252+218610131+217873512+217539981
4327+218198990+219694887+220923053+220899528+219885920+219021225+218957279
4317+219273019+219342931+219281459+219531553+219855856+219514396+218495780
4307+217795655+218135895+218996370+219383119+219217096+219284148+219896910
4297+220337589+219873987+218883549+218507048+219294350+220600296+221351877
4287+221118522+220307077+219572622+219284334+219284674+219070687+218528224
4277+218381769+219417913+221387041+223170562+223949981+223750369+222987969
4267+222075743+221481236+221497296+221785244+221786404+221618046+221800392
4257+222179908+222064676+221441002+221133253+221696738+222798744+223627764
4247+223603852+222858114+222111866+221912718+222139596+222400927+222505401
4237+222322761+221713261+220908431+220513103+220810032+221405914+221791659
4227+221963031+222276854+222920638+223751776+224475751+224793948+224646829
4217+224451267+224775616+225617559+226279644+226094283+225000794+223398738
4207+221904031+221239149+221769169+223037833+224140164+224547564+224341213
4197+223945205+223939455+224717096+225917517+226526724+225913684+224535662
4187+223382647+222988370+223212404+223787064+224688841+225795948+226553047
4177+226462237+225772438+225279421+225557276+226570714+227787164+228478895
4167+228182137+227173583+226381026+226499025+227157137+227342405+226759073
4157+226118721+225897624+225774710+225564696+225628564+225988016+226104191
4147+225886588+225844668+226026551+225846013+225141128+224571414+224772911
4137+225699002+226840207+227660061+227910990+227852918+227979217+228347140
4127+228508836+228232774+227814415+227532046+227331646+227173181+227158126
4117+227197124+227052493+226837316+226946597+227317581+227276527+226444338
4107+225398069+225027241+225563382+226651307+227939678+229098597+229737157
4097+229858865+229987529+230399133+230776083+230902289+230939633+230884730
4087+230574601+230203525+230066731+229993294+229658295+229145710+228874919
4077+229248685+230313069+231416652+231517586+230273762+228508465+227389703
4067+227497376+228546752+229530357+229386669+228095160+226844906+226700800
4057+227477004+228213901+228341916+228033317+227712538+227602669+227742926
4047+228267444+229306818+230405285+230629071+229747791+228631672+228073659
4037+227975090+227905024+227667280+227177386+226532968+226268530+226900752
4027+228184393+229269521+229695067+229847056+230193833+230511166+230273653
4017+229531919+228896559+228739129+228832258+228757230+228357574+227791291
4007+227421467+227652194+228548035+229634491+230372872+230689246+230703621
3997+230276173+229302413+228187593+227562821+227673741+228340895+229326511
3987+230437266+231309689+231403745+230479803+228980629+227731426+227357120
3977+227920728+228879463+229471389+229434802+229240709+229428743+229995783
3967+230663850+231408135+232313513+233102762+233255848+232637012+231719902
3957+231109305+231022236+231271294+231660378+232272830+233188363+234061652
3947+234437968+234460814+234725484+235378619+235759062+235129638+233612055
3937+232199147+231962995+233272851+235490327+237276970+237644398+236907810
3927+236164994+236034197+236193883+236045851+235681824+235900679+237161398
3917+238663648+238982618+237680830+235612885+233948894+233388732+233897329
3907+235104381+236995142+239724276+242760029+245051899+245992550+245305641
3897+242894922+239763258+237921465+238652163+240809619+241661995+240764748
3887+240439749+241990920+243965350+244744815+244817711+244682400+243721748
3878+242256842+241744412+242704569+244522049+246875531+249309822+250067416
3868+248480013+246753544+246857446+247925849+247816599+246173737+244277458
3858+243541751+245493552+251369806+258427763+259576805+254388418+248241636
3848+244288618+243006105+243698933+245462700+247729808+250307942+252699371
3838+253710227+252907654+251517467+250675927+250314635+249875332+249394990
3828+249303129+249618251+250506982+252995202+257192951+260202443+259865233
3818+258423636+257853737+256761376+253806323+250404564+248694788+249780024
3808+252914192+255543968+256534235+257857385+260795497+263129132+262772941
3798+260942864+259041112+257229785+255931351+255831746+256722502+257852191
3788+259054854+260602717+262370379+264233256+266946916+271328139+276539836
3778+280596400+283055824+285466620+289462717+295578833+302871103+309371356
3768+314044561+317504764+320519589+323734860+328222983+334495895+341260988
3758+346647225+350963250+356590616+365694569+378299036+390880751+399335850
3748+404740882+410999512+419313241+426286819+428969225+429590102+431543062
3738+436161364+442489612+448354614+452170915+453637196+453455762+452931275
3728+453129434+453967141+454325249+453398385+451224019+448120069+444907179
3718+442957990+443238473+445957389+450661879+455420840+457268909+455747601
3708+453215560+451637030+451890958+454244316+457860850+461117855+463469142
3698+465562761+467690076+469721125+472112137+475745767+480485839+484259602
3688+484919616+482948355+480405123+478770082+478194711+477945050+478145929
3678+480281591+484201515+486267219+485051000+483896827+484481441+484191252
3668+480721620+475498486+470973420+468336766+467554426+468080303+469456749
3658+471218815+472565799+473273451+474804281+478992663+485519842+490279329
3648+489034731+483633872+478609731+476107646+476080998+477445789+478944932
3638+480234663+482022048+484733668+487950980+491847502+497490943+503947082
3628+507187085+505573622+501787184+498872335+498873448+502200071+506471457
3618+508689504+509089748+509516979+510269704+510893517+511855437+513347408
3608+514128604+513722332+513881880+516247387+520157017+523633728+526241075
3598+529438447+533591803+536587121+536764938+535942008+537137514+540563958
3588+543263491+542942975+540990509+539857079+540016595+540396404+540110326
3578+539227114+538329372+537789304+537733968+538483200+540636853+544266403
3568+547555960+547498584+543973957+540385399+539288571+540238248+541482536
3558+542438892+543815677+545723070+546966801+546810809+546637011+548384641
3548+551554808+553082639+551062719+547636275+546001358+546178124+545549148
3538+542598717+538866657+537108702+538492288+541957375+545470379+547366705
3528+547136890+545541605+543776540+542295636+540898324+539860912+540132461
3518+542305961+545346847+546960619+546097438+543999986+542279870+541188421
3508+540233117+539398501+539069020+539477208+540697383+542646572+544883693
3498+546651541+547256280+546592124+545173172+543566016+542176061+541504114
3488+541723975+542245185+542522112+542718169+542924118+542866061+542933206
3478+543800962+544914669+545073320+544458317+544353518+545014089+545623094
3468+545852538+545811731+544996962+542877066+540103402+537845197+536461487
3458+535855387+536095836+536811618+536982202+536057997+534697906+533956526
3448+533990717+533875593+532872558+531561682+531163633+532011295+533211376
3438+533619626+532864892+531608238+530904388+531089934+531410883+531021367
3428+530061920+529122506+528032850+526251277+524088905+522416088+521468883
3418+520915337+520613493+520507643+520217361+519441915+518459159+517839086
3408+517937516+518621736+519329635+519544240+519243571+519002689+519561304
3398+520897778+522139778+522974641+524071779+525510454+526288374+525972123
3388+525505508+525819470+526710164+527278672+526979549+526335239+526380806
3378+527207014+527815896+527839761+528269775+529819122+531760953+532880781
3368+532867427+532628214+533458564+535683134+538020170+538686675+537246331
3358+535032333+533887526+534768699+537134299+539365547+540153915+539554802
3348+538488950+537704662+537497847+537902944+538674866+539385517+539782824
3338+539664361+538802850+537521527+536608143+536346919+536194204+535616731
3328+534987631+535508841+537900718+541040157+542767074+542225832+540524327
3318+539048740+538046632+537101777+536321941+536455304+537824917+539527041
3308+540276396+540095117+540205727+541030759+541364012+540050972+537741264
3298+536192535+536407449+538114210+540478450+542488168+542980319+541583996
3288+539679138+539274289+540934988+543331688+544917328+545488866+545958944
3278+547121310+548819415+550201394+550728910+550614590+550084848+548947770
3268+547365035+546187769+545990909+546467912+547081554+547622425+547935893
3258+547687592+546622420+544876892+542907609+541179332+540215187+540704926
3248+542715572+544843011+545215586+543603298+541568292+540665789+541363641
3238+543129881+544870957+545833989+546211511+546378879+546159328+545410591
3228+544672736+544433338+544276357+543614860+542712913+542201225+542001273
3218+541443523+540442961+539779485+539825052+539887498+539248259+538151863
3208+537213562+536468659+535648572+534717072+533748228+533103053+533528306
3198+534979223+536063005+535683011+534405088+533410709+532876824+532101131
3188+530796375+529500893+528574710+527493834+525778416+523962776+522858343
3178+522395746+521934324+521236904+520618254+520472463+520741230+520946931
3168+520791001+520226635+519008377+516890089+514439166+512920547+513018019
3158+513971530+514200294+512955635+511072355+509687439+508889920+508179949
3148+507445000+506813489+506158700+505337841+504590186+504373232+504896389
3138+505826869+506476527+506390246+505620549+504368996+502754977+501024165
3128+499503568+498281321+497350316+496904722+496969765+497080808+496908338
3118+496659605+496358162+495606952+494517605+493801452+493648551+493544526
3108+493131979+492395546+491404721+490623278+490791697+491757821+492245396
3098+491592091+490802270+490951522+491499133+491324500+490477858+489607413
3088+488724293+487680544+486759864+485993846+485077401+484329715+484438069
3078+485170576+485607019+485554775+485557062+485565440+484722725+482692109
3068+480430132+479217346+479376367+480294976+481231361+481687064+481456106
3058+480725299+479847094+478934452+477935930+476956204+476262989+476126411
3048+476657915+477640887+478532384+478667819+477617949+475647677+473772125
3038+472928482+473085123+473515075+473703434+473484068+472641137+471144807
3028+469539660+468447376+467951423+467817380+467836361+467707821+467200244
3018+466617794+466531389+466948481+467194154+466664010+465378885+463812597
3008+462492229+461825724+461964899+462497392+462492600+461391382+459838264
2998+459073822+459480403+460149444+459968010+458863144+457689896+457077768
2988+456750204+456052877+454888285+453891773+453765489+454527488+455399664
2978+455542456+454838173+453738439+452641982+451755616+451136811+450638168
2968+450229454+450199251+450494264+450378862+449460314+448331985+447510446
2958+446677314+445556280+444584251+444233532+444416388+444804699+445158231
2948+445240277+444833140+443932770+442789138+441821004+441470254+441819088
2938+442270803+442027077+441065157+440202163+440067625+440487375+440921284
2928+441005061+440668624+440160985+439845786+439662281+439080449+437881295
2918+436611998+435934796+435799949+435604542+435058415+434533619+434421773
2908+434488732+434244264+433655786+433025419+432468936+432010296+431840578
2898+431989831+432018581+431451742+430330059+429119498+428284697+428040569
2888+428271960+428534544+428272269+427347725+426379097+426200012+426883799
2878+427619552+427629568+426855914+425764156+424890279+424529915+424557428
2868+424609982+424527473+424443850+424511459+424738708+424970965+424878748
2858+424147663+422830047+421411590+420474711+420275068+420533046+420590020
2848+419928863+418711933+417684816+417388166+417628491+417867672+417877008
2838+417760185+417597762+417361672+417013519+416526995+415912950+415239180
2828+414560649+413923110+413390307+412913335+412330637+411673344+411220516
2818+411070027+410931501+410492986+409770526+409001850+408419740+408145038
2808+408108281+408118854+408075420+407934236+407513682+406720367+405867790
2798+405341758+405096331+404837489+404478701+404112154+403785888+403499315
2788+403196605+402719788+401954914+401066941+400445168+400331126+400584188
2778+400873326+400958247+400658103+399843365+398751576+397961321+397744924
2768+397759546+397522652+396913615+396192238+395700767+395481278+395206854
2758+394622302+393862436+393206874+392793832+392599661+392417423+391965183
2748+391246247+390600547+390248869+389996116+389531819+388927976+388639981
2738+388901359+389323119+389363616+388962198+388366331+387626497+386725633
2728+385988983+385819358+386084044+386227145+386023514+385806003+385848974
2718+385944807+385744763+385156995+384279285+383242430+382238035+381517090
2708+381233361+381265728+381255959+380947994+380462057+380084752+379869683
2698+379631460+379267602+378898891+378661967+378486468+378215259+377868219
2688+377562974+377282924+376996012+376814021+376741930+376517154+375964845
2678+375279574+374781272+374584381+374575632+374589945+374543822+374418651
2668+374216257+374011637+373913022+373873359+373723457+373449806+373186821
2658+372905071+372403213+371660258+370969763+370669650+370840450+371243475
2648+371477309+371238189+370542841+369698734+368993401+368466472+368027369
2638+367597170+367045108+366330161+365791330+365894428+366610118+367379691
2628+367720734+367615131+367368840+367285310+367372549+367312576+366867229
2618+366233678+365789691+365590884+365391086+365092921+364859242+364751414
2608+364574679+364188409+363699009+363234248+362818548+362569721+362690070
2598+363136189+363587317+363805013+363755427+363438126+362930117+362503813
2588+362370481+362396016+362300584+362015836+361694887+361512958+361556701
2578+361804415+362135318+362348439+362223670+361710343+361067487+360619482
2568+360369697+360079878+359706901+359507073+359717226+360312258+361022198
2558+361493204+361537009+361282432+360996694+360788148+360576542+360281128
2548+359933006+359640312+359513379+359592704+359792254+359914828+359810926
2538+359574094+359477890+359644176+359909635+360073881+360092120+359994741
2528+359876495+359966331+360409452+361012738+361452892+361612810+361504827
2518+361087118+360403887+359728324+359364405+359394608+359684210+360003366
2508+360108350+359876835+359452664+359151655+359188319+359543737+360010878
2498+360296060+360226163+359939838+359735002+359735342+359849291+359961910
2488+360018421+360029086+360076477+360207738+360320698+360292072+360184275
2478+360198279+360444416+360846359+361231300+361409489+361202179+360579757
2468+359832906+359387992+359344094+359405613+359360633+359352101+359550785
2458+359835472+359962003+359876217+359735836+359717257+359858503+360046058
2448+360150393+360178741+360240167+360358784+360422219+360362401+360294730
2438+360398014+360699549+361047115+361271890+361323517+361272663+361234206
2428+361266790+361334522+361403306+361524149+361729046+361902814+361878237
2418+361643322+361399751+361424173+361826982+362400344+362795579+362879881
2408+362794652+362706670+362687256+362800742+363111551+363589172+364131403
2398+364688906+365271789+365844162+366332881+366784318+367453760+368723676
2388+370991495+374650166+380127197+387910937+398464725+412009843+428434630
2378+447558177+469452699+494256908+521590066+550266560+578274880+602725062
2368+621116411+633783479+643233699+650356097+653721950+652890054+648654467
2358+639246908+621200312+594755807+564277336+535178433+512486144+499759288
2348+498740827+509562206+529363697+550874762+566343441+573716180+576349248
2338+578433716+581123357+582565865+581615198+579606407+577791138+575104156
2328+569706698+561596166+552413660+543371567+534468400+525258443+515588764
2318+505683181+495900944+486498888+477585520+469229376+461379728+453701837
2308+445877569+438105267+430991866+424954611+419918475+415531286+411501895
2298+407760684+404417584+401618292+399389208+397533874+395726611+393850534
2288+392176603+391021224+390324794+389773566+389216929+388742152+388445934
2278+388322340+388317425+388400522+388574877+388799405+388967670+389074879
2268+389276840+389625241+389942388+390117361+390248220+390352864+390270200
2258+389979114+389743240+389865566+390431849+391221176+391824709+392028587
2248+392063087+392281495+392693145+392997679+392935511+392460672+391743993
2238+391103579+390775829+390708313+390667815+390459888+389941151+389028292
2228+387887720+386909942+386289220+385809899+385200615+384504030+383972835
2218+383787227+383934316+384218447+384409928+384475744+384599121+384952808
2208+385534208+386182969+386723345+387204336+387961667+389239033+390801642
2198+392142042+393028871+393678992+394447761+395506380+396798461+398180440
2188+399538677+400803244+401921001+402832253+403500335+404022441+404639577
2178+405483931+406342938+406848165+406891599+406721232+406655478+406791129
2168+406958405+406914259+406571578+406023998+405388036+404707372+403997896
2158+403281495+402536221+401699564+400792486+399965259+399329667+398807715
2148+398243412+397650079+397287767+397452477+398161366+399138557+400222216
2138+401622063+403572457+405928381+408376058+410895363+413757782+417149015
2128+420984452+425065562+429249955+433426899+437525290+441662508+446098851
2118+450894260+455789119+460572285+465363428+470432023+475935053+481906893
2108+488452807+495978384+505113653+516231683+529145568+543318333+557993141
2098+572046886+584377239+594688167+603327328+610411639+615773361+619443841
2088+621494736+621655365+619461956+614645866+607399380+598270418+587570283
2078+575284756+561879709+548533275+536274581+525405161+515770322+507171164
2068+499552999+492948504+487180881+481801044+476537690+471601190+467404338
2058+464131474+461548673+459181898+456797873+454599796+452844376+451564722
2048+450771531+450581936+451083391+452293056+454259031+457215552+461724913
2038+468470438+477763090+489404555+502930940+517678766+532865572+548058498
2028+563293467+578384563+592431322+604316081+613699651+621494675+629079483
2018+636802786+643533812+647959953+650049306+650834645+650944884+649861473
2008+646709483+641414906+634770624+627593942+620220956+612619640+604604632
1998+595994097+586849864+577583458+568619391+560037668+551773926+544001655
1988+537023688+530971966+525812545+521459114+517797136+514752201+512341436
1978+510590498+509463993+508834955+508447819+508122016+508080128+508713123
1968+509887174+510896330+511331043+511597614+512318868+513613082+515221568
1958+517044319+519153364+521414845+523534927+525470451+527458901+529693858
1948+532274929+535375045+539037735+542701228+545389879+546828245+547914006
1938+549595109+551848553+554102615+556191968+558446958+561045711+563728798
1928+566229060+568712627+571455996+574191699+576341643+577997149+579891187
1918+582163798+583953841+584730339+585255011+586548020+588503824+590107209
1908+590937497+591707255+593090903+594804280+596142856+596969928+597812520
1898+599095389+600562319+601599051+602080567+602564433+603489441+604563022
1888+605180189+605196079+604942893+604775216+604886011+605260194+605658243
1878+605806506+605624856+605241584+604977578+605370557+606838415+608860066
1868+609769617+608450579+605751665+603198664+601420306+600162292+598923198
1858+597266826+595087019+592875185+591340800+590618588+590063249+589031155
1848+587897601+587822603+588983485+589496967+587671496+584582817+582217279
1838+581012437+579993265+578384687+576809743+576602248+577912506+578963829
1828+578108996+575769920+573057094+570370606+567939530+566150723+565021312
1818+564130062+563227250+562624179+562790559+563594137+564146570+563746975
1808+562783943+562199545+562521050+563742895+565538503+567223130+568008469
1798+567821563+567590450+568424942+570531854+572635736+573038978+571930588
1788+571110935+571748381+573526121+575450887+577106826+578705697+580323365
1778+581916919+583857390+586819815+590972368+595115089+597362289+597410205
1768+596446802+595506769+595329199+596464917+598607380+600641026+602143817
1758+603521715+604546019+604867154+605589737+608388875+613198906+617638526
1748+619712483+619981991+620052228+620910586+622833436+625493028+628013940
1738+630213655+633442189+638519873+642860629+642828788+639811150+637257222
1728+636551517+637586827+639517962+641255142+642750390+645506619+650916876
1718+657985174+662769979+662658751+659748755+657234644+656648577+658162929
1708+661353253+665343259+668923779+671918046+675706493+681033344+685997389
1698+688697107+689799253+689487702+687623588+686009074+686386349+688616484
1688+692044165+697296637+704702515+710725858+711372950+708929075+707276414
1678+707930183+710677447+714171160+717220516+720359769+724568894+728940936
1668+731293923+731633111+732168727+734315642+737426825+739970861+741766902
1658+743922534+747665909+753974403+761495467+764228201+761273442+759044977
1648+759461141+759094624+754847475+748808119+743903677+740797006+739735606
1638+741198950+744468784+746476277+744939975+741822794+739783275+739467334
1628+740134891+741052541+742135211+743073945+743146717+742809940+743756093
1618+746695148+749695536+749929555+747992793+746348849+745643949+744978247
1608+743905284+743271857+744091572+746264640+748522906+749663447+749981923
1598+750818023+752582037+754256029+755099548+755775884+757327086+759912547
1588+762784889+765100037+766765312+768441097+770603160+773132295+775980401
1578+779091584+780911120+779179318+775330465+772931972+772911940+773506107
1568+773025827+771861236+770734235+769813679+770366544+774822239+782929309
1558+787117350+783037631+776757640+772354499+770108845+769477025+769765267
1548+770471652+772197023+776259245+783001091+790996499+797302210+798286759
1538+794415710+790455752+788793321+788417778+787553423+786602941+787565603
1528+791316644+796940331+803118244+809880061+817577025+824493597+828509942
1518+830290341+831407758+832552750+834538788+838387889+844336111+852082352
1508+861340349+869767317+873190237+872849936+873170576+875661007+879141056
1498+881976054+884148751+886933792+890930414+895909112+901311826+905957951
1488+908882847+910803842+912891958+915157520+917015451+918465441+920422914
1478+923958918+929272414+935508075+941507552+946233991+948586670+948397414
1468+947353758+947814005+950446270+952668923+951933232+949832318+949762019
1458+952791837+955701338+954803101+951648020+949256947+948959369+950714541
1448+952913762+953076122+950367995+946630742+944602351+945883736+950382339
1438+956973078+963209666+965724828+964059615+960920918+958592785+957829457
1428+958465172+959898592+960868797+959815186+956975675+954758894+954802174
1418+955729655+955570448+954948335+954998045+955047322+953783311+951591880
1408+950296460+950707307+951525291+951025845+949657097+949657901+952415552
1398+957117323+960990969+960835410+956526000+952636773+953432066+958504804
1388+964072537+966377731+964815214+962543346+963376292+968016605+973700822
1378+977646127+979707780+980985641+981965862+983229007+986033895+990978402
1368+997120207+1002803682+1006932121+1009176662+1009576751+1008487775
1360+1006540441+1004525158+1003484655+1004298806+1006548293+1008506509
1351+1009083117+1009141359+1010706657+1015001847+1020977088+1025945522
1342+1027841353+1027139606+1026429079+1027458762+1029421738+1031036623
1334+1032252841+1033108540+1033065508+1032286104+1032444755+1035332307
1325+1041137088+1047796332+1052325973+1053622258+1053206403+1053766317
1317+1057194431+1062410239+1065833778+1066244439+1066798294+1070007166
1308+1073632140+1073741823+1070087295+1065648788+1062784175+1061881486
1300+1062245653+1063568524+1066095805+1068874107+1069501537+1066788278
1291+1061721599+1055589253+1049438359+1044549127+1041043110+1037010504
1283+1030983018+1024275610+1019411418+1017541616+1018705033+1022203446
1274+1025406135+1024900567+1020387991+1014738274+1010005343+1006347105
1265+1003180338+999525377+994884446+990012340+985802349+981697652+976279728
1255+969622710+963754741+960029358+957150833+952706391+946444330+940317796
1245+934997128+928403113+918716710+907349575+897173741+889296548+883045245
1235+877763220+873364777+869737207+866543668+863438729+860074854+856189708
1225+852002841+848316472+845898875+844629917+843610374+842325280+841234387
1215+841105290+842397185+845106302+848449711+851199572+853052248+854751033
1205+856669184+858598773+860792863+863871710+867959220+872875595+878539593
1195+884318716+888728534+890752350+891177355+891818882+893714342+896747004
1185+900613231+904977977+908799008+911377729+913943095+918314148+924757735
1175+932573657+941447022+950861012+959413366+965942215+970547471+974035064
1165+977084790+979955525+982253733+982889448+981322665+979248399+979271399
1155+981936246+985827946+989608789+992382144+993498386+993684180+994426053
1145+995757581+997168619+999574283+1003168714+1004873435+1002104099+997618479
1135+996665586+1001072375+1008250727+1014757008+1018882912+1019719940
1127+1017338882+1014968460+1016947326+1023530027+1029508173+1029295918
1118+1023802070+1019828509+1022668145+1030870306+1037579383+1038155990
1110+1035957882+1037402307+1044033605+1051692113+1056188985+1057402668
1101+1056081033+1050484983+1040389217+1031635179+1031162195+1038274453
1093+1044221686+1042007997+1033963126+1025878748+1019572974+1014556624
1084+1011437711+1010812260+1010914152+1009480980+1007899235+1007995995
1075+1008213939+1007488635+1007460627+1007970399+1005270062+998675119+993283967
1065+992295029+992975445+992425115+991370515+990264783+988032917+985659589
1055+985117357+985295607+983972983+982204889+982880545+986647476+991064590
1045+993383943+993626061+994445529+997611554+1001908475+1005450476+1007844084
1035+1008735334+1006293871+999546646+991486381+986331164+983746878+979574665
1025+972834488+967483586+966353247+967689164+968499729+968930361+970685162
1015+973359779+975669857+977913656+980771593+983079755+982337510+976818930
1005+967078798+956357766+948372003+943744674+939619882+933527044+926349064
995+920393361+916346596+913044364+909297156+905085867+901229965+898571795
985+897172566+895561329+891529651+884800851+877884650+873303568+871360562
975+870755390+869784319+867158609+863263323+860132911+858967763+858448346
965+856303781+851693825+845484071+839405330+835352135+834406724+836157383
955+839464066+843725065+848688429+853542667+857312690+860025763+862618272
945+865853853+869985817+875110367+881411750+888506696+894926418+899544658
935+903606076+909740772+918923771+929380922+938448304+944713951+948278519
925+949845116+950072334+949357417+947544188+944410561+941146477+940183939
915+942476211+945654663+945759709+941380001+935314244+931667506+932296544
905+935583999+937809745+936265715+931705530+927482803+926179346+927455352
895+929464081+931571982+934525813+938691102+943300192+947681632+951969896
885+956391091+961149063+965938320+969080355+969248589+967890291+967533852
875+968574170+969889498+971328421+973040623+974107526+974084897+973925443
865+974115935+973733714+971776426+969129941+968948847+973559730+980606079
855+984813164+984519110+982801220+981861929+979821111+974465201+968795267
845+968949466+976890589+987979621+996108578+999994219+1002451510+1005306664
835+1007567466+1007407950+1005409917+1004809505+1007052253+1010047324
827+1011991876+1013471357+1015208167+1016445530+1016472425+1015921785
818+1015688817+1016040557+1016997592+1018347729+1019659163+1021230397
810+1024815554+1031950008+1041139190+1046925052+1043780729+1033601742
801+1025356240+1026169834+1034775731+1042538852+1042801621+1036937237
793+1029574144+1023388008+1018918464+1016515767+1015081048+1011087765
784+1002756136+993677564+988691200+987137772+984487268+978967761+972290711
774+965670975+960093227+958240057+961954867+968739003+972739830+971451396
764+969065146+970579004+976113844+981957515+986128059+989619547+992590752
754+994210707+995206261+997420444+1000496077+1001550244+999499162+997303033
744+998356272+1001845101+1003055013+1000033047+997965272+1002578628+1012449341
734+1020265757+1020507752+1014787427+1008220307+1004653080+1005516323
726+1009330490+1012794712+1013567252+1012092222+1011080408+1011855359
717+1011964053+1008050280+1000623380+994618709+993506795+995829116+998108775
707+997918345+994812478+991440010+992415902+1000572805+1012880096+1021959040
697+1024091919+1019991488+1009559254+992646830+974902634+966148473+970843998
687+983060031+989965412+983887723+971601020+965084784+967728054+973879937
677+978543683+981924499+984236247+983790900+979265587+969835213+956495642
667+945687680+943476217+948960049+957216371+961399528+956334580+944850529
657+936674892+939386543+951809144+964757962+969613251+966511712+960474705
647+955209620+952166818+951382840+952352859+952550832+948544008+940582544
637+934922131+937828293+947916949+956886519+957422876+948920973+936033118
627+924576950+918493016+919061153+921064627+921254933+924893386+935915521
617+950927600+962318477+968052465+974120943+978090793+964815895+939637874
607+923560437+925802010+944539287+967268672+974351314+955606123
##END=
