##TITLE=<SNM>
##JCAMP-DX=4.24
##DATA TYPE=INFRARED SPECTRUM
##DATE=29/4/2025
##SAMPLING PROCEDURE=Instrument type and / or accessory
##ORIGIN=Admin
##XUNITS=1/CM
##YUNITS=ABSORBANCE
##RESOLUTION=4
##FIRSTX=4497.3318
##LASTX=599.83466
##DELTAX=-1.4281778
##MAXY=2.169347
##MINY=0.61459184
##XFACTOR=1
##YFACTOR=2.0203619e-09
##NPOINTS=2730
##FIRSTY=0.61782295
##XYDATA=(X++(Y..Y))
4497+305798160+306298808+306935962+307865127+309060340+310250803+311466431
4487+312798858+313837180+314139840+313914917+313412705+312368395+310756998
4477+309241452+308511957+308604210+308883328+308715137+308128609+307679972
4467+307745142+307978945+307774674+307390351+307861911+309418434+310887219
4457+311339661+311319010+311583849+311972184+312321811+312933977+313454805
4447+312903649+311184747+309111644+307261192+306044531+306038188+307302613
4437+308842409+309368930+308589164+307416992+307013611+307820284+309489770
4427+311377070+312744810+312863733+311694364+310332140+309877751+310007707
4417+309670853+308935222+308816535+309566977+310434895+310794701+310600844
4407+310015613+309248267+308621055+308392091+308419675+308201419+307547567
4397+306946022+306812555+306860172+306819223+307154896+308362382+310204957
4387+312001951+313048415+312752658+311060927+308741069+306931183+306493698
4377+307592440+309477261+310893916+311101374+310238973+308578514+306294147
4367+304399206+304678708+307526591+310563878+311009977+309234578+307980273
4357+308548628+309715490+310173685+310175337+310374416+310626304+310379343
4347+309440266+308216082+307440534+307499804+308110760+308760069+309104829
4337+308924070+308180001+307190210+306349286+305767802+305341794+304987092
4327+304799312+305067603+305839109+306548306+306743845+307018125+308187347
4317+309729651+310246525+309410262+308281193+307607840+307021134+306133273
4307+305330288+305030607+305048957+305113980+305336720+306017330+307316656
4297+308845772+309736584+309594207+308983281+308760629+309386897+310691149
4287+311744989+311491508+309998886+308275410+306926758+306075832+305991634
4277+306669087+307323736+307163186+306365601+305745587+305758568+306276475
4267+307044205+307842410+308340315+308289040+307949325+308065386+308963927
4257+309908285+309905866+308842733+307416372+306439680+306431331+307357811
4247+308632030+309676164+310408874+311030481+311623264+311958200+311584321
4237+310342554+308837777+307904689+307657639+307718030+308100346+309063614
4227+310279125+310884387+310399463+309139287+307744375+306660325+306148466
4217+306495763+307812613+309549954+310624652+310414214+309400969+308478266
4207+308056329+308188734+308951153+310086654+310773902+310388430+309145217
4197+307724078+306724905+306493580+307009304+307949974+308962157+309690708
4187+309870611+309785616+309979886+310309305+309909790+308258771+305943516
4177+304265975+304198888+305541139+307092116+308048452+308975698+310615506
4167+312268383+312672826+312055969+311700559+311810100+311506820+310595474
4157+309688584+308893034+307894747+307014319+306995114+308026060+309517473
4147+310499947+310333113+309441417+308880997+308901501+308752044+308061079
4137+307379111+307250601+307762519+308922005+310503812+311732893+312045053
4127+311691915+310988205+309846774+308486054+307663864+307698706+307951272
4117+307649674+306849934+306302880+306549103+307374509+308108695+308289925
4107+308021546+307824502+308202954+309154746+310100520+310448555+310085975
4097+309145630+307671004+305992548+305074270+305760368+307774260+309947936
4087+311276970+311402058+310454632+308883800+307259156+306134895+305971218
4077+306678351+307320697+307077041+306341291+305970894+305982429+306008863
4067+306354744+307442157+308751808+309253637+308567568+307240894+306182954
4057+305927024+306113713+305923809+305284885+305131652+306205966+308123977
4047+309810693+310435279+309858220+308548894+307269511+306694400+306975908
4037+307589372+307884745+307788156+307709386+307925045+308367811+308855596
4027+309311962+309844118+310469678+310727997+310059542+308688939+307601615
4017+307542228+308336833+309155188+309307094+308842468+308314530+308045708
4007+308028036+308392415+309295411+310365566+310841167+310324882+309154244
3997+308071493+307690947+308101113+308759774+309034230+308985788+309216612
3987+309815560+310080901+309562611+308688467+308054588+307719947+307477766
3977+307378020+307588310+307960713+308232219+308567598+309250126+309911383
3967+309950119+309634861+309780719+310459116+311004903+311115358+311027944
3957+310785408+310138518+309165809+308416194+308418642+309292697+310649728
3947+311699497+311737466+310855800+309952981+309751305+310040572+310275260
3937+310474929+310983337+311720148+312178048+312014902+311344972+310608455
3927+310371613+310845976+311456902+311461298+310965104+310670439+310953805
3917+311583289+312018797+311990947+311816561+311795349+311563257+310713394
3907+309766292+309738147+310920704+312486314+313463891+313787085+313864027
3897+313655536+312955071+312188934+312107863+312743896+313212181+313019887
3887+312797442+313193771+313793782+313841664+313674270+313969201+314457518
3878+314624676+314837975+315585260+316477842+316772861+315971116+314149635
3868+312537176+312591990+314222210+315672320+315618390+314498083+313213508
3858+312331990+312711001+315584965+320390540+323046041+321528873+317878742
3848+314551393+313092314+313611785+314844967+315598152+316051774+316997224
3838+318168924+318398360+317426625+316170726+315591485+315826232+316205125
3828+316187129+316104465+316828944+318818645+321303006+322434701+321789670
3818+321171339+321732260+322387734+321442462+319132694+317227487+317337145
3808+319353811+320938244+320424791+319239462+319373164+320494652+321099472
3798+321191666+321495919+321893193+322065573+322439245+323529519+325022820
3788+326210805+327032287+327994524+329342321+331081993+333438551+336472238
3778+339756485+343071768+346690597+350784939+355169255+359461673+363336963
3768+366985323+370834208+374557976+377308857+378948340+380018347+380786018
3758+381341304+382269052+384371716+388009131+392897518+398077768+402369625
3748+405702285+409367314+414225049+418928636+421870837+424324457+428588021
3738+435544467+443934206+451272171+456239623+459179995+460777409+462045875
3728+464167184+467094281+469322918+469941279+469356462+467797873+465279143
3718+462486280+460329510+459124738+458685070+458819599+459758293+461727047
3708+464095583+465835078+466702406+467258135+467788226+468168388+468741139
3698+470290996+473057749+476275027+478904920+480807709+482651404+484279411
3688+484184503+481799476+478473838+475848399+474916196+475921977+478521926
3678+482285285+486133492+487460018+485022507+481455926+479898428+480352346
3668+480237259+478746436+477528477+477525969+477856627+477617986+477289334
3658+477685280+478645746+479409404+479607038+479493603+480172325+482888954
3648+486303364+487235951+485030826+481604291+478803817+477421945+477690265
3638+479547001+482168221+483915062+483836410+483201350+484394085+487855993
3628+490948301+492030256+492444463+493256977+494240042+495303233+496750187
3618+498185752+498888784+498826889+498132236+496902122+495909617+495952395
3608+496448618+496461834+496843826+499084323+502918103+506601011+509233589
3598+511486123+513926349+516098224+517191154+516909351+515707323+514467828
3588+513889589+513730337+513296069+512848524+513550848+515949239+519048598
3578+521422503+522662942+523129309+523146185+523100102+523401790+523897836
3568+524078742+523846915+523164063+521684539+519797830+518939440+520099989
3558+522367687+523640224+522948993+521434481+520853292+521735991+523515490
3548+525520149+527005219+527372046+526919486+526268023+525303604+523931645
3538+523326383+524908514+528051771+530048936+528833573+524973890+520734753
3528+517930768+516784676+516320787+515767625+515470009+515954845+516572262
3518+516260131+515426169+515471897+516538393+517343030+517029896+515734052
3508+513889471+512511375+513210336+516205847+519095624+519409407+517581701
3498+515861264+515682955+516905162+518512016+519439912+519157401+518028125
3488+517148730+517531253+519192862+520980327+521557563+520580104+518760540
3478+517288510+517180769+518338426+519090903+517641590+514158293+510544833
3468+508242205+507391250+507815784+509221847+510512263+510434909+509249284
3458+508604725+509494150+511178890+512245563+512052738+510836077+509009905
3448+507000408+505346410+504529206+504726161+505599596+506265455+505820153
3438+504303221+502862640+502613702+503500531+504326704+503799799+501628042
3428+498581492+495564798+493056747+491573359+492008336+494650709+498103265
3418+500184628+500088865+498799865+497316034+495661269+493892154+492834774
3408+493197649+494561347+495545031+494947794+493115751+491970219+492979275
3398+495302938+496752429+496600140+496173777+496614478+497562022+498218735
3388+498468381+498553878+498566387+498699263+499253841+499838924+499457641
3378+497979888+496597721+496502370+497970270+500658135+503843285+506322925
3368+506963944+505769999+504049150+503299387+504078534+505952440+508111393
3358+509688096+510125138+509863338+510058523+511359560+513390475+515315242
3348+516426463+516180358+514277776+511137292+508142193+506837085+507452909
3338+508609150+508963233+508778846+509192227+510214529+510395494+508948246
3328+507253712+507060238+508256071+509714176+511007719+511822504+511319083
3318+509500759+507547729+506094934+504863699+504005192+504121843+505102488
3308+506295488+507355140+507946182+507425945+505804694+504205392+503642436
3298+504195066+505417923+506594166+507013979+507009318+507855788+509807284
3288+511633161+512566780+512908472+512911009+512835189+513394015+514523704
3278+514705967+512957799+510487718+509245744+509747454+511027780+512009547
3268+512282853+512101239+512199245+513167086+514514559+514796715+513388056
3258+511461164+510472554+510410776+510308759+510026366+510242143+510888944
3248+511018517+510381746+509987364+510550439+511351240+511229456+510170512
3238+509372720+509708276+510503295+510426530+509435854+508838971+509305692
3228+509979871+509825398+508855610+507696891+506786578+506413555+506798969
3218+507728989+508544541+508606495+507517873+505231943+502419933+500303698
3208+499578481+499664509+499372734+498308362+497247354+497040899+497589872
3198+498242101+498680677+498751777+497919350+495873919+493488656+492204081
3188+492390386+492966530+492764353+491663192+490252822+489128443+488725269
3178+489024301+489106788+487952966+485846703+484048617+483199757+482892347
3168+482525549+481745458+480290569+478237084+476331788+475445844+475648847
3158+476175576+476383594+476405927+476644745+476943069+476671356+475542050
3148+473911093+472334892+471237065+470778752+470741402+470674580+470256950
3138+469489958+468595016+467829588+467311563+466891838+466317553+465589563
3128+465038997+464973916+465325963+465755423+466043450+466179749+466125112
3118+465800354+465272564+464703560+464156092+463591129+462928987+462131844
3108+461345203+460774311+460368393+459827062+458961209+457842317+456634743
3098+455550988+454901355+454819280+454937790+454771812+454471511+454663628
3088+455500422+456439794+456993929+457130553+456943333+456450591+455716111
3078+454916902+454355509+454301314+454545207+454427111+453658231+452687881
3068+452060493+451917349+452194963+452730630+453015619+452395251+450869026
3058+449364957+448806308+449053564+449178652+448721490+448131244+447839086
3048+447479310+446442138+444830800+443444768+443050770+443811832+445083278
3038+445762236+445300796+444318056+443811124+444044927+444523065+444719430
3028+444516486+444070594+443519172+442892226+442218283+441510472+440640961
3018+439517054+438388250+437625093+437201386+436719855+435983662+435323999
3008+435245730+435709294+435911943+435172093+433968059+433496499+434157963
2998+435008416+434941978+434072879+433413186+433386487+433418939+433043998
2988+432550755+432244141+431944519+431480040+430885280+430047395+428880091
2978+427766333+427234855+427348201+427762025+428275153+428991844+429827930
2968+430260458+429919711+429111622+428380741+427846165+427322476+426793328
2958+426353720+425876968+425057846+423803688+422564428+422092721+422665473
2948+423696094+424273861+424025130+423304987+422595700+422070447+421779234
2938+421729464+421641135+421195272+420591602+420271565+420297114+420541685
2928+420992387+421392404+421185418+420182853+418877302+417997377+417888632
2918+418193299+418233333+417816913+417326473+417032928+416809451+416483926
2908+416102525+415852377+415850312+415970710+415894064+415410408+414635097
2898+413894981+413431564+413191153+412911504+412408259+411737591+411131443
2888+410821820+410861796+411055535+411057246+410611619+409865573+409381210
2878+409556422+410137640+410572558+410563914+410072795+409262317+408601089
2868+408475087+408667941+408667823+408374632+408163811+408301438+408519340
2858+408333212+407743379+407276864+407195675+407122481+406675496+406043358
2848+405712287+405903843+406394284+406710397+406492702+405827079+405247306
2838+405283299+405918977+406577697+406722257+406316605+405621096+404792061
2828+403875435+403044335+402567259+402454650+402336760+401890396+401227575
2818+400687453+400499850+400764335+401398214+401971821+401930430+401134732
2808+399982179+398977018+398328063+397949877+397717490+397584112+397434360
2798+397039712+396333642+395589248+395162325+395121553+395184215+395012337
2788+394609429+394294525+394188259+394002367+393526176+392975492+392620377
2778+392442627+392358665+392382355+392421888+392294321+391982780+391537242
2768+390853829+389949534+389223137+389015827+389133540+389128967+388859053
2758+388543766+388409620+388391565+388185346+387645254+387045036+386773028
2748+386880681+387106106+387183607+386960277+386403251+385684760+385107996
2738+384796633+384553301+384153047+383715179+383570413+383747808+383870655
2728+383649154+383209280+382819411+382537903+382273772+382039940+381955299
2718+382000643+382003682+381963943+382081891+382270675+382048525+381231084
2708+380297524+379722265+379398924+379016136+378582280+378309387+378303929
2698+378552394+378936392+379180078+379051715+378646063+378243981+377940553
2688+377628776+377266699+376932353+376658162+376357743+375924979+375376891
2678+374867894+374541838+374393178+374293196+374131938+373912738+373715370
2668+373564350+373389433+373189291+373106715+373186725+373225756+373058981
2658+372845121+372854532+373093380+373319808+373334765+373137368+372865183
2648+372642295+372446078+372148344+371717586+371302375+371066536+371001986
2638+370948293+370774791+370516620+370316950+370270131+370368726+370544086
2628+370678645+370669263+370549721+370427671+370294027+370073648+369812231
2618+369590701+369351735+369022640+368700361+368574210+368776181+369300313
2608+369903362+370174928+369915045+369344241+368807394+368450863+368286861
2598+368306716+368400857+368420889+368393511+368377757+368152214+367479452
2588+366635164+366203580+366418679+367050965+367714199+367997683+367646639
2578+366889796+366273588+366051350+366049078+366107758+366293591+366670596
2568+367137730+367518896+367705702+367722931+367687617+367679976+367642774
2558+367442987+367071557+366735500+366625488+366625576+366458241+366085808
2548+365726327+365527513+365472049+365529283+365686322+365891980+366088168
2538+366268307+366488628+366795035+367085158+367163633+367018247+366824773
2528+366635902+366366785+366095160+366050996+366268101+366468567+366342416
2518+365867966+365352625+365144814+365282765+365485325+365529844+365537750
2508+365775271+366272821+366800021+367156877+367297513+367207060+366908087
2498+366589761+366509279+366738834+367086043+367259131+367106724+366729689
2488+366387790+366283825+366366726+366344540+366034209+365678357+365681366
2478+366068579+366480043+366639531+366580291+366475500+366433459+366451574
2468+366500576+366590115+366684698+366661982+366502907+366385843+366464466
2458+366689035+366890976+366940480+366867020+366882627+367155962+367528130
2448+367624808+367303384+366851738+366683725+366921009+367341323+367684579
2438+367881829+367960953+367920329+367821704+367821822+367929533+367895075
2428+367574035+367255296+367322354+367671008+367789960+367446911+367005532
2418+366947030+367310907+367783587+368176848+368575863+369070640+369565270
2408+369888287+370007947+370117989+370441655+370891885+371130320+371083471
2398+371085329+371362205+371798067+372387369+373508798+375601313+378939755
2388+383861125+390905811+400586409+413153036+428572120+446558170+466665027
2378+488554187+512054449+536533527+560447171+582462068+602708853+621535532
2368+637854956+650119218+657860298+661138969+660181276+656110477+649796762
2358+639793649+623739210+602320371+578218977+554066191+533725117+521422385
2348+519445694+527480259+542150524+557595924+569545399+577747300+583401882
2338+586874735+588112048+588267759+589452381+592310826+595004533+595030436
2328+591706744+586737138+582260982+578529869+573982790+567495485+559447172
2318+550733354+542094765+534147526+527037199+520083586+512328817+503526316
2308+494277007+485285694+476852262+468975267+461524457+454342027+447477274
2298+441181732+435531987+430377493+425712052+421685506+418213007+414986170
2288+411921890+409270607+407221106+405639977+404296753+403110803+402017225
2278+400837824+399516845+398285551+397380017+396789712+396401644+396154122
2268+395957285+395655273+395176338+394662975+394344354+394223632+394032134
2258+393602084+393085800+392672241+392341790+391991306+391547390+390982369
2248+390419501+390078133+389998272+390051257+390245557+390703723+391320048
2238+391738298+391729122+391407285+391039897+390780782+390630322+390530841
2228+390411388+390205375+389910208+389581497+389224494+388796775+388351324
2218+388029399+387871534+387771021+387612684+387320939+386841915+386279136
2208+385968215+386195262+386849232+387458566+387593537+387273913+386979837
2198+387129235+387584952+387897879+387964760+388129204+388659886+389403807
2188+389966941+390131709+390101292+390252844+390639910+391020928+391417641
2178+392156163+393198792+393972599+394098632+393844325+393661796+393688731
2168+393864475+394196549+394707198+395252070+395546234+395413623+394987467
2158+394603469+394482039+394576593+394737261+394890877+395016113+395103941
2148+395230888+395513782+395919375+396294345+396625711+397066677+397690614
2138+398423797+399187573+399899278+400397390+400584019+400610836+400767934
2128+401219462+401959755+402947953+404106347+405222701+406086076+406760727
2118+407543238+408635430+409999689+411476734+412888787+414089959+415022045
2108+415663594+415927224+415748383+415292371+414923862+414903476+415191120
2098+415587420+415948908+416167252+416110520+415792400+415477142+415423065
2088+415606596+415811724+415887780+415848011+415799451+415806856+415811842
2078+415740801+415654685+415643208+415632676+415501599+415334205+415364149
2068+415706166+416246671+416731034+416955043+416960088+416956665+417030774
2058+417135182+417354086+417842255+418529828+419228405+419921318+420639219
2048+421256164+421685712+422058116+422536431+423153347+423876233+424676031
2038+425510613+426323746+427111360+428014208+429241431+430786360+432343002
2028+433637873+434721362+435853677+437239148+438900728+440715542+442547348
2018+444316669+445943791+447367586+448653340+449914284+451129853+452212811
2008+453234907+454415162+455858192+457406249+458814407+460045996+461298767
1998+462741177+464335877+465881248+467129447+467988780+468699955+469627467
1988+470872420+472294179+473786005+475311492+476817214+478297622+479826827
1978+481455306+483178398+484956363+486707069+488416737+490230902+492258926
1968+494370558+496357811+498241747+500280864+502653766+505165740+507382518
1958+509142900+510748102+512547840+514610027+516849698+519201949+521628957
1948+524122405+526671905+529222881+531753855+534327252+536976470+539629699
1938+542195603+544689640+547277730+550087851+552924937+555417263+557513908
1928+559553733+561830872+564329039+566797822+568971586+570821477+572508695
1918+574081386+575540258+577143866+579130529+581236615+582961300+584259268
1908+585584556+587249705+589056642+590567378+591645675+592693762+594222554
1898+596188506+597928119+598827338+598985056+599085127+599639055+600520043
1888+601253403+601679116+602169144+603165956+604585237+605783666+606256464
1878+606236403+606381494+607002628+607825202+608419666+608635149+608553605
1868+608155565+607270506+605960736+604659818+603785970+603403152+603318246
1858+603317124+603230094+602948468+602433069+601657580+600650501+599672098
1848+599141239+599144957+599053382+597968241+595873720+593664672+591975684
1838+590798497+589853785+589003951+588445066+588413440+588578710+588063075
1828+586592107+584975753+583839750+582727703+580947673+578775856+577130473
1818+576442723+576324066+576187177+575800170+575227065+574596018+573999016
1808+573478601+573108116+573029935+573334101+573870741+574245829+574190543
1798+573919715+573938891+574639858+576095544+577789841+578742047+578670180
1788+578384247+578761459+580103032+582201860+584486079+586202091+587049269
1778+587625206+588687985+590294839+592047905+593714943+595305925+596763558
1768+597862506+598425522+598689151+599298603+600669795+602414423+603844502
1758+604914479+606009002+607368806+609185537+611641635+614379712+616448685
1748+617390152+617633720+617734145+618208300+619640502+622088162+624640023
1738+626504607+628195128+630614053+633419159+635270466+636023297+636470901
1728+637046839+637992554+639397968+640843446+641867991+642855126+644766677
1718+647976727+651330392+653020972+652752859+651763540+651490292+652705065
1708+655231791+657992703+659602448+659904489+660352919+662270310+665147283
1698+667511983+669192002+670363997+670703270+670688932+671508910+673647507
1688+676453970+679166676+681530196+683210864+684058750+684689089+685666666
1678+687221479+689506583+692289267+694862429+697140630+699715325+702298753
1668+703651005+703748657+703987564+705423306+707880348+710104501+711204216
1658+711649696+712542307+714730468+718442228+722290169+724347990+725093977
1648+725729036+726516503+726843208+726359375+725537864+725104598+725742430
1638+727908878+731293579+734234866+735280769+735400370+736190020+738042389
1628+740434055+742997657+746019721+749598899+752888899+755043900+756617416
1618+759194944+763584895+768173690+771169555+773346623+776159872+779661637
1608+782830679+784946914+785933637+785973936+785471518+784983909+784827372
1598+785129531+786217564+788280990+790677789+792326889+792889020+792984606
1588+793435396+794771009+796966073+799182320+800266871+799896208+798993153
1578+798865882+799766046+800247459+799414028+798434032+798495455+799318324
1568+800014924+800763743+801999050+803223381+804134343+805902690+809931125
1558+814335591+815936545+816100930+817000740+818562633+819500972+819148011
1548+818320657+818634381+820947571+824302476+826507512+826290731+824987983
1538+825189600+827567104+830824239+832669764+831528805+829077546+828425434
1528+831027154+836277677+842206746+847096638+850370353+851983461+852191745
1518+851923985+852216291+853187023+854319722+855685781+858044286+861939666
1508+867506333+874292670+880439876+884499465+886739785+888055631+889431544
1498+891915550+896392415+902471176+908163757+911814390+913397052+914121915
1488+915054649+916142151+916964017+917580372+918497883+920647278+924870720
1478+930606079+935713400+938485582+939470003+940098218+940826858+942260181
1468+945537672+950159627+952975767+951450102+947377710+943769797+941427105
1458+940179408+940282782+941386097+941943094+941352111+940682062+940842494
1448+941280067+941060985+940302608+940109075+941265493+943462150+945901019
1438+947713206+947881544+946289972+944302779+942823256+941474249+939880376
1428+938773816+939608131+943046939+947482088+949989047+949567287+947859831
1418+946555490+945612312+944404266+943011596+942043932+941772160+941476314
1408+940259417+938455136+937130497+936348636+935628906+935441274+936307865
1398+937401739+937431949+937218295+939139640+943301482+946861721+947868564
1388+947802597+949357174+952774327+956367962+959133004+960673773+960917696
1378+960927254+962180262+965074935+969053570+973256656+976259543+976383688
1368+973838730+971609208+972459277+975647200+977587250+976664428+975679417
1358+977462043+981529420+986060745+990299174+994049464+996789842+998166640
1348+998162038+996809196+995054065+995270609+999521488+1007030564+1014115284
1338+1017445938+1017687382+1018290048+1021149025+1025287206+1028352342
1330+1028447811+1026049891+1024777176+1028749085+1037844422+1046572874
1321+1049713181+1048541245+1048244691+1051017994+1054703615+1056962758
1312+1058457445+1061114982+1065176695+1069242065+1072224360+1073741823
1304+1073330330+1071157097+1068743836+1067034846+1065116511+1062334003
1295+1060137877+1060753642+1064372471+1068129133+1068357832+1064354298
1287+1059151213+1056009372+1054812300+1052987899+1049749409+1047064140
1278+1046254489+1046249060+1045029921+1041830610+1037439892+1032412875
1270+1026141347+1018479451+1011480641+1008175359+1009194711+1011378800
1261+1011174292+1009124614+1007800330+1006627450+1003006732+997357106+992747247
1251+990035191+986943090+981731037+974792647+966874496+958182863+949643874
1241+942845913+937742368+931775065+922677013+911601090+901991120+895720360
1231+891762553+887941636+883028143+877425955+872448797+869085042+867232555
1221+866085341+865028463+863851571+862546463+861346087+860431644+859556852
1211+858797884+859196633+861104879+862847501+863045577+862879245+864100331
1201+866764122+870179978+874126279+878264696+882158543+886188747+890724202
1191+894811286+897200827+898384859+900427929+904439488+908956711+911750134
1181+913028867+915094477+919172593+924457811+929662370+934120589+937599166
1171+940195929+942926807+947895941+956270487+966177129+974508897+980222955
1161+983445278+984123351+984654563+988948751+996362890+1000460477+997266122
1151+990683290+986799238+988180756+992599973+995511227+995356401+995115429
1141+997527746+1001547447+1004572107+1005034107+1002717377+998949386+996407379
1131+997785357+1004102081+1013088498+1019686435+1021028657+1020253109
1123+1021927404+1026390698+1031199872+1035353631+1038923368+1040586217
1114+1039338284+1036048107+1031861070+1027944979+1026020507+1026852580
1105+1028800182+1029415239+1027387510+1023030778+1018915962+1018740012
1097+1023756526+1030852339+1035487806+1036500077+1036895757+1040416168
1088+1046845000+1050678957+1048482241+1044255317+1042446965+1043864711
1080+1048133882+1053294483+1054811946+1049971146+1041761221+1033929984
1071+1026949583+1022044468+1021245909+1022732454+1022907578+1021623534
1063+1020029484+1016598052+1009909366+1003987968+1004236610+1008097237
1054+1006766935+998280518+989901901+986383496+985453240+983754871+981806916
1044+982113146+985697281+991298937+995999190+997429445+995916348+994081444
1034+993409271+992171487+989338472+987514071+989267963+992773563+993137381
1024+988549885+983021984+981716168+985847977+991639861+994541557+994835160
1014+996073063+998594537+998951628+995675612+991436652+988747843+985936070
1004+980056387+972766511+967873905+965266226+961116185+953549167+945778644
994+941578509+939848513+935751458+927090507+917088338+909623810+905388095
984+902758821+899984574+896575268+893803853+893340200+894774114+895768979
974+894803911+892105189+888150097+883129570+877644093+872605275+868767660
964+866589648+865892929+865747485+865258460+864037610+861638097+857892823
954+854187022+852976025+855533846+860975660+867454645+873353032+877573229
944+880357625+883765456+890058107+898957374+907248725+912070172+914087811
934+916022314+918915158+921669108+923662379+925792125+928708218+931884753
924+934787923+937259480+938722187+938797181+939094030+942246374+948002679
914+952493705+952849970+950519669+947960846+945313988+942020861+938797772
904+936912301+937370230+940626185+945361310+948221525+947092898+944222298
894+943763306+946963384+951686413+955589759+958385601+961116716+963967727
884+965863995+965688871+963309125+960669348+960828305+963711827+964885238
874+961571872+957190004+956271018+959033228+963483304+969007842+974917204
864+978725140+978811758+977216056+978171861+983375889+989033717+989498432
854+984397070+978261606+974667381+974548960+977918380+983575145+987891047
844+987834934+985256875+983960618+983750328+982394005+980900792+982343910
834+987178869+992925203+997820995+1001244875+1001967909+999851674+998208297
824+1001118725+1008716543+1018453135+1027385268+1032041150+1031645588
815+1030889511+1033932108+1037640859+1035402958+1026456900+1016596989
807+1010428955+1008060183+1007829832+1009019351+1011691285+1015960219
798+1022206729+1030178750+1037809846+1041660443+1038721103+1030069121
790+1021280957+1015879502+1012948659+1010887533+1010011443+1011214061
781+1013480756+1013524065+1008259852+998254910+988495660+984264488+985865029
771+987908040+985486814+980065415+976237771+975571321+976401330+977024529
761+977336719+978069371+979734049+982533962+986003216+988879186+990836464
751+992929805+995294447+996313681+994717034+991551946+989309796+990364787
741+996320643+1006870192+1017889530+1024405451+1026360134+1026298416+1023200237
731+1014681368+1002413743+989756220+978669677+972611920+976105366+987935890
721+998866191+1001683392+1000723162+1003505080+1010730583+1019081173+1027147718
711+1033583395+1033746246+1025513545+1014751819+1009968606+1014577049
703+1023048715+1024899904+1015930481+1003141025+994887084+992111067+990472292
693+987649544+985862079+987386681+993135611+1002875980+1014616818+1024444748
683+1025914536+1015354603+998395103+984127540+976789930+974842977+973596755
673+970971434+970137473+974123837+981290513+988517433+992409627+992462376
663+990997191+987193856+981539746+979090670+981647664+984494663+984219409
653+981502042+975934904+967265751+960280866+959433747+962469558+965789886
643+971634933+984487051+1000233902+1000927552+974812413+938055207+915048985
633+915070698+930117585+944193386+944301599+932646907+920162088+908399006
623+900628720+905660103+918663448+922852609+916780691+916117192+930720252
613+952620209+965731472+964159843+951997128+936632681+925569445+918015998
603+910320764+904301950+897399553
##END=
