##TITLE=<SNM>
##JCAMP-DX=4.24
##DATA TYPE=INFRARED SPECTRUM
##DATE=29/4/2025
##SAMPLING PROCEDURE=Instrument type and / or accessory
##ORIGIN=Admin
##XUNITS=1/CM
##YUNITS=ABSORBANCE
##RESOLUTION=4
##FIRSTX=4497.3318
##LASTX=599.83466
##DELTAX=-1.4281778
##MAXY=2.1768353
##MINY=0.62177509
##XFACTOR=1
##YFACTOR=2.0273359e-09
##NPOINTS=2730
##FIRSTY=0.6402182
##XYDATA=(X++(Y..Y))
4497+315792865+315273917+314784223+314438179+314267862+314163696+314197948
4487+314463081+314910704+315596058+316448995+316893854+316490862+315702400
4477+315360913+315686729+316393575+317344446+318131026+317658002+315377201
4467+312564634+311139063+311370592+312025429+312535645+313278712+313944369
4457+313718544+313091931+313596473+315515618+317260096+317383049+316331041
4447+315690022+316213262+317144846+317286674+316177717+314244253+312425069
4437+311716077+312440622+313782754+314436974+313933285+313185131+313517679
4427+314977060+315939338+314993260+312818918+311164406+310603563+310629876
4417+311130949+312174401+312993910+312778052+312031691+311917705+312722132
4407+313738947+314224526+314134384+313912498+313621081+312757883+311105841
4397+309328729+308263167+308062685+308537268+309727928+311445651+312718133
4387+312698171+311955015+311724632+312057005+311710520+309915768+307646757
4377+306695651+307994594+311028370+314192773+315840876+315552957+314399635
4367+313485486+312607205+311094051+309315498+308320968+308539737+309720167
4357+311495044+313360975+314696374+315143879+314781871+314192861+314253368
4347+315182482+316031685+315755673+314393402+312770584+311613381+311255166
4337+311703611+312743712+314013577+314967241+315121799+314515150+313615230
4327+312931081+312813450+313085992+312850759+311485460+309722577+308896836
4317+309380826+310382912+311041512+311285919+311428158+311266955+310402581
4307+309262872+308748069+308986389+309428014+309847765+310355923+310744773
4297+310551671+309747097+309045161+309330169+310763384+312611527+313913998
4287+314157081+313545845+312810216+312482371+312423923+312410340+312618554
4277+313058591+313310582+313120773+312563164+311758502+311016610+310694969
4267+310529327+309946933+309148239+308854117+309126424+309435893+309663777
4257+310134125+310905300+311717900+312420042+313044979+313510300+313562251
4247+313121273+312539673+312402931+312877219+313264865+312594740+310737864
4237+308593687+307191373+306932002+307630910+308826774+309957193+310727721
4227+311553757+313096312+315038419+315831732+314405662+311811834+310058390
4217+309715668+309872785+310089260+310933054+312500423+313772582+313787870
4207+312701993+311521416+311133859+311626082+312456969+313257279+314062500
4197+314616405+314284650+313022487+311603267+310715814+310538411+311062328
4187+312088993+312888656+312659362+311537763+310453562+310038515+310332049
4177+311225236+312426686+313320608+313580920+313637545+314122477+315175425
4167+316240281+316199003+314314726+311436478+309416048+309156354+310052745
4157+311120658+311875222+312330812+312876220+313866016+314764554+314388139
4147+312629991+311015434+310845676+311711843+312386761+312319610+311795076
4137+311511538+312231820+313932020+315348212+315272124+314102514+313286209
4127+313580890+314633134+315758202+316421918+316266389+315233991+313649746
4117+312005525+310749713+310272602+310702554+311644222+312484282+312980151
4107+313269392+313476342+313613937+313534908+312823270+311271453+309520596
4097+308636877+309019259+310049746+310733043+310574692+309940964+309618353
4087+310019846+310852644+311496896+311587656+311288829+311094022+311296914
4077+311670888+311756120+311433538+311064945+311050950+311448180+311974066
4067+312275597+312171961+311868783+311816568+312020372+311839500+310915325
4057+309899421+309714904+310440096+311311379+311610470+311301677+310882809
4047+310802104+311087583+311444828+311637489+311781493+312150763+312668564
4037+312964656+313016754+313222499+313707724+314039009+313762821+312888421
4027+311824035+311042835+310751712+310801840+310913885+310999852+311299884
4017+312047979+312841968+312729482+311391937+309809044+309288421+310179961
4007+311671329+312615643+312617025+312279831+312294620+312575365+312597444
3997+312369561+312546846+313420011+314269920+314277917+313648541+313019988
3987+312408782+311739921+311599592+312331576+313117069+312985707+312142854
3977+311471083+311404667+311829592+312481371+313055651+313356624+313622110
3967+314338188+315565276+316823587+317747703+318382694+318777072+318787068
3957+318284085+317286145+316120122+315539227+316144818+317476572+318186358
3947+317421975+315774725+314668826+314988674+316236224+317162016+317271121
3937+317106419+317266241+317798801+318359380+318408420+317502091+315941661
3927+314816593+315037684+316360618+317680758+318517437+319387397+320475391
3917+320850659+319733088+317920930+316858720+316892619+317098952+316853722
3907+317095159+319285201+323299425+327046251+328787200+328688621+327345695
3897+324899457+322059900+320185502+319898936+320045674+319049644+317745145
3887+318417563+321383954+324460861+326170646+326912920+326267844+323420937
3878+320126231+319192736+321193880+324579404+327823600+330004998+330350042
3868+329407227+328838916+329035311+328592834+326572727+323908985+322037997
3858+321945444+324652552+330659188+336492419+336110771+330606620+325149655
3848+322535247+323137634+325791203+328739160+331163670+333576979+335918551
3838+336388047+334037979+330811070+328756653+327882459+327291833+326792936
3828+326573285+326505135+327013940+329335108+333195949+335419772+334463962
3818+332801395+331800367+330059800+327015910+324327442+323568674+325053163
3808+327557466+329096464+329665657+331132535+333617552+334776666+334115096
3798+333690553+333822209+333077495+331479314+330603915+331035955+331932493
3788+332701168+333648893+335028863+336728946+338789919+341098445+343002979
3778+344368072+346234238+349582865+354556926+360841190+367616589+373443587
3768+377530695+380284373+382195022+383692947+385519452+388158086+391150908
3758+393562423+395445377+398054581+402761010+409552491+415385634+417143489
3748+417160776+420093268+426838650+432168016+432528789+432122504+435473570
3738+442762772+450577037+455650737+458123964+459610246+460589076+461207750
3728+462162061+463845767+465884102+467949956+469891064+470923727+470095574
3718+467646749+465231000+465039574+468362769+473488595+475820376+473423973
3708+469262453+466400051+466024196+468647248+473710069+478320387+479485822
3698+477752105+476409915+477920394+482129837+487080995+490362941+490248338
3688+487271863+484076942+482581751+483031167+484726134+486544524+488021369
3678+489935458+492686667+494747964+495392422+496287431+497500260+496165713
3668+490831408+483965750+478735816+476516256+476590581+477631534+479386360
3658+481981452+484645841+486943254+489903676+494066931+498356049+500994919
3648+500939352+498300835+493652678+488483163+484533502+482365099+481359956
3638+480877935+480864087+481310269+482104199+483954607+488132944+493766340
3628+496884496+495920572+493498502+492028243+492246924+493722534+495107414
3618+495484975+495828196+497277522+499187201+500476941+501676657+503732985
3608+505923203+506898711+507044185+507849758+509538110+510886768+511558452
3598+513038178+515977696+518534186+519053222+518387125+518088239+518237711
3588+517698330+515827930+513538515+512233898+512554834+514225016+516469508
3578+518584990+520135101+520959902+521426487+522331787+524555580+528389755
3568+532207525+533138932+530853280+528001787+526464200+526001731+525929112
3558+526170960+526553401+526587330+526201301+525656393+524878162+523733778
3548+522749156+522896100+524491664+526333310+526522649+524698466+522630378
3538+521856440+521742131+520966840+520054837+520685478+522941964+524807601
3528+524625024+523153413+522257874+522462384+522899922+522510424+520578283
3518+517267613+514172801+513320775+515100857+517559854+518085476+516106000
3508+513648473+512888706+514059492+515775421+516738346+516827076+516593107
3498+516310039+515825226+515089920+514507673+514579469+515351407+516455160
3488+517625711+518914981+520293804+521193518+520826129+519178703+517160125
3478+515406798+513601315+511689401+510922578+512017040+513269854+512540193
3468+510199032+508008520+506492573+505507363+505766205+507612555+509692874
3458+510335392+509344596+507930609+507065823+506253312+504309058+501284748
3448+498767303+498039112+498884964+500371981+501793671+502629056+502557319
3438+501870935+501342726+501419226+501672188+501155210+499476619+497486207
3428+496480240+496686690+497030617+496600605+495749403+495200849+494773777
3418+494001485+493465221+494063991+495129464+494848513+492872066+491173130
3408+491629984+493847780+495835840+495854774+493712538+491002284+489849785
3398+490950245+492895263+493730413+493050498+492183830+492423033+493555421
3388+494203937+493514966+492120266+491246308+491411568+492153842+492732678
3378+492952859+493288230+494142255+495226545+496029413+496653997+497576407
3368+498664401+499352608+499971135+501692121+504586834+506971742+507348597
3358+506095902+504702201+504182577+504660511+505915794+507764555+509828116
3348+511302550+511444025+510254540+508316814+506197451+504452121+503634082
3338+503770735+504278658+504738187+505284919+505816362+505407519+503380121
3328+500325176+497474740+495901815+496365754+498869558+502221036+504836150
3318+506026281+505995234+504986857+503212126+501428458+500863557+502094261
3308+504234263+505739215+505876633+504989444+503904743+503533650+504048041
3298+504324405+503435217+502313060+502330994+503107872+503415695+503394115
3288+504202981+506200685+508692787+510985730+512824730+513923661+513760548
3278+512228018+510273004+509268448+509576330+510031508+509174896+506863783
3268+504236204+502571372+502684682+504639402+507350067+509084225+509021308
3258+507882451+506841733+506542024+506894654+507123448+506569014+505710167
3248+505449267+505559696+505251873+504732954+504620468+504651691+504360391
3238+504143475+504569194+505259693+505108751+503722283+502159354+501793083
3228+502823334+504344515+505529296+506098077+505968362+505177195+503837651
3218+502221800+500797759+499689772+498566557+497431522+496809408+496760015
3208+496608249+495945033+495055022+494229810+493310221+492104714+490888239
3198+490314371+490840522+492171541+493354263+493529902+492653032+491465194
3188+490764522+490766051+491131675+491424298+491414390+491012456+490031186
3178+488241020+485820361+483495489+481907069+480976544+480096441+478838100
3168+477360844+476191087+475635830+475405065+474922750+474045675+473330273
3158+473493622+474645151+476050082+476634652+475830549+474093804+472483451
3148+471492273+470714777+469787398+468766702+467477432+465665128+463993416
3138+463672540+464778556+465845235+465525622+464041516+462538916+461632676
3128+461133161+460745222+460379921+459978369+459610775+459569556+459973430
3118+460518927+460719673+460188818+458911896+457530603+457097710+458018034
3108+459186820+458867531+456842808+454920546+454747965+455974965+457051081
3098+457018212+455977376+454586145+453666528+453733531+454526345+455225047
3088+455204584+454525316+453741734+453256097+452891266+452189124+451098278
3078+450127974+449710899+449703343+449744768+449821974+450113656+450449939
3068+450357798+449649011+448725366+448282242+448700111+449493277+449483927
3058+448006818+445847470+444496783+444645138+445714169+446571839+446447622
3048+445370800+443960077+442797670+442022644+441488908+441116639+440929652
3038+440816519+440521044+439991189+439557061+439588755+440015709+440301805
3028+439943913+438980930+437925158+437124642+436408829+435530342+434695516
3018+434360321+434637244+435207760+435757314+436197322+436461985+436361964
3008+435730854+434704307+433848988+433736178+434174069+434240984+433422505
2998+432311313+431773549+431839818+431813328+431195154+430179544+429301292
2988+428761235+428263661+427604561+427081145+427015082+427242936+427400728
2978+427382823+427287536+427181165+427007408+426567048+425728811+424771619
2968+424213128+424200545+424334846+424168498+423703177+423339287+423400469
2958+423750364+423955874+423784146+423349989+422846741+422328293+421679659
2948+420778946+419820197+419253943+419143133+419008214+418596784+418261971
2938+418350673+418784888+419332325+419708710+419556857+418897786+418234746
2928+417780244+417266059+416769662+416757167+417094390+416933011+415800681
2918+414159958+412783868+412059970+411950982+412239136+412601027+412648038
2908+412244517+411745708+411618433+411904529+412259893+412374202+412196153
2898+411869543+411513679+411062647+410440268+409832678+409533469+409565604
2888+409656980+409515829+409061385+408455118+407886895+407365301+406852204
2878+406500604+406536267+406984389+407672154+408376942+408818302+408691763
2868+407972598+407025461+406156618+405292950+404377595+403723405+403547767
2858+403594690+403710822+404222596+405180434+405829538+405437277+404220714
2848+403068803+402680570+403049634+403534007+403456890+402718115+401738873
2838+400946177+400506816+400349524+400220544+399894963+399438844+399106148
2828+399013243+399106824+399381248+399859477+400306981+400240536+399483592
2818+398529811+398013479+397956854+397871210+397493855+397076868+396914607
2808+396862862+396527168+395816999+395073990+394622516+394418448+394230079
2798+393973530+393731358+393548135+393338421+392994435+392565071+392298614
2788+392408131+392758232+392883978+392476076+391805686+391428978+391512181
2778+391715926+391692082+391422539+391077995+390758764+390424422+390025163
2768+389637489+389360595+389127332+388778377+388238232+387471467+386495518
2758+385598657+385225094+385470471+385928883+386108990+385840740+385316677
2748+384878316+384728138+384794848+384892428+384892222+384662457+384046165
2738+383110288+382305333+382114876+382538067+383094736+383348168+383236299
2728+382918362+382599279+382491026+382598132+382549798+381976077+381038760
2718+380289136+380004981+379901638+379578497+379115822+378986577+379374017
2708+379891495+380069132+379801353+379229043+378511436+377787302+377138581
2698+376575444+376110182+375781602+375637363+375692754+375804887+375714186
2688+375394897+375120738+375003930+374870599+374740854+374910671+375380315
2678+375672056+375401101+374716952+374047444+373624694+373404014+373313843
2668+373375231+373539021+373616845+373501947+373285648+373072142+372859224
2658+372640572+372445235+372265746+372083874+371936284+371855315+371818652
2648+371813478+371843466+371851757+371753001+371537672+371244843+370876779
2638+370402167+369808600+369200363+368856525+368994442+369421514+369674211
2628+369547495+369214123+368834915+368384588+367887132+367538266+367521567
2618+367854086+368386911+368820215+368846911+368502278+368228384+368335578
2608+368564813+368468233+368057243+367728693+367681299+367745334+367748862
2598+367775910+367967778+368183754+368024344+367274103+366221242+365389944
2588+365037726+365056219+365233063+365426694+365587633+365757538+365988096
2578+366248555+366505839+366769855+366922620+366758330+366359513+366098877
2568+366118576+366178494+366100201+365961401+365813605+365589926+365312973
2558+365101055+365003533+365027583+365208572+365495991+365728373+365845475
2548+365959549+366117047+366150946+365889340+365407613+364969105+364770799
2538+364814929+364990920+365153093+365097115+364673307+364050928+363660490
2528+363734050+364089267+364447041+364743016+365002916+365147507+365121076
2518+365060717+365128985+365246675+365197018+364970869+364808461+364902072
2508+365218980+365607478+365947318+366176877+366235325+366056570+365673041
2498+365267226+365054749+365135718+365432222+365712996+365766681+365617092
2488+365464121+365426077+365482555+365578871+365625118+365537564+365395324
2478+365363572+365447069+365558203+365747924+366074416+366359366+366378035
2468+366205689+366152269+366386003+366738897+366886222+366681713+366279632
2458+365929325+365750041+365735458+365839830+365969545+365984892+365826629
2448+365625618+365583164+365729196+365872553+365840183+365690211+365587015
2438+365558644+365532477+365553704+365794818+366309238+366865289+367104227
2428+366907655+366586426+366596392+367016672+367434100+367466206+367268928
2418+367312647+367754977+368287714+368589921+368690441+368787992+368914503
2408+368964101+368929438+368907123+368960103+369121747+369402668+369699642
2398+369917294+370214562+370867341+371935167+373371174+375415331+378632213
2388+383618476+390827767+400633033+413395016+429267629+447902593+468668975
2378+491354619+516150748+542518155+568739031+593147485+614801408+632833486
2368+646883387+657835888+666259772+671159656+671360697+666733179+658265959
2358+646782896+631858684+612494647+588699134+563409018+542181814+529794922
2348+528353240+537504668+553735026+570226401+581474025+587418508+590951387
2338+594334324+597717378+599961752+601051451+602389408+604038716+603674797
2328+599941407+594763865+590428646+586528614+581165790+573760163+565200448
2318+556243357+547207414+538491642+530438322+522867581+515160892+506825857
2308+497832779+488533055+479491026+471264860+464052805+457567089+451367792
2298+445244261+439288547+433785248+428989765+424842298+420964728+417053641
2288+413217084+409876426+407362832+405605389+404218215+402919067+401783444
2278+400991836+400462157+399910692+399215283+398533721+398027298+397613780
2268+397080867+396339769+395480805+394662442+393990994+393445909+392939398
2258+392490952+392229847+392150112+392012606+391599148+390970007+390400137
2248+390149263+390331017+390835646+391303202+391369236+391080464+390901063
2238+391167343+391692347+392024719+391952865+391610643+391178721+390676090
2228+390100370+389607089+389362536+389309909+389252049+389060034+388689323
2218+388179637+387735043+387563109+387539412+387279717+386643520+385930706
2208+385516688+385527596+385907244+386524978+387103550+387314763+387153531
2198+387016907+387232853+387687384+388062417+388259900+388433804+388758561
2188+389309703+390043333+390805452+391449881+391919730+392154787+392122682
2178+392033775+392210795+392632516+392956950+393076816+393253365+393607024
2168+393864396+393774460+393514589+393474575+393770490+394164398+394416390
2158+394543164+394729858+395102038+395574298+395930191+396121588+396372521
2148+396850749+397396893+397730323+397774630+397671611+397583733+397548628
2138+397529018+397583909+397863272+398415972+399181972+400118201+401096913
2128+401829779+402161034+402295189+402585224+403246471+404271930+405446479
2118+406491254+407283744+407849439+408229969+408551140+409049184+409789665
2108+410514710+410926552+410958069+410732244+410495394+410546286+410956129
2098+411437738+411719747+411894239+412182923+412575742+412925667+413198150
2088+413415214+413519262+413473045+413361029+413238164+412995464+412532729
2078+411998405+411713897+411861575+412312667+412759613+413013809+413191535
2068+413578240+414294112+415146020+415815175+416131289+416173920+416202879
2058+416495826+417148046+417972141+418654379+419069544+419371398+419742021
2048+420205578+420744283+421411968+422226773+423076652+423807637+424367098
2038+424867406+425514187+426429542+427532589+428603207+429452529+430054356
2028+430566130+431227347+432229521+433652799+435452990+437503938+439662844
2018+441719966+443384092+444572048+445597978+446805044+448202125+449652510
2008+451119064+452553484+453871684+455146107+456571618+458219780+459944853
1998+461518014+462891839+464319115+465976890+467541290+468568454+469223144
1988+470055325+471222612+472468369+473628894+474730736+475825815+477060342
1978+478687158+480766772+482972396+484847147+486282625+487704755+489684349
1968+492292053+494914135+496894669+498315653+499877171+502054218+504614941
1958+507035070+509130795+511042179+512889705+514806146+517075687+519855267
1948+522904978+525934110+528997287+532137376+534916309+536909955+538458302
1938+540259140+542447300+544550669+546236375+547803656+549877977+552734116
1928+556047374+559355692+562495722+565397314+567967151+570474777+573289637
1918+575946088+577471444+578008591+578824513+580591599+582732071+584421893
1908+585606439+586750529+588025451+589153900+589964001+590782569+592092831
1898+593964524+596019912+597872318+599493461+601065446+602445681+603155349
1888+603189924+603205918+603556313+603980209+604292971+604624491+605046623
1878+605485514+605796923+605822796+605864427+606890504+609475688+612439315
1868+613401593+611647442+609090953+607678319+607564245+607758347+607597585
1858+607223552+606889151+606394870+605392079+604014196+602832591+602202068
1848+602103165+602477962+602858640+601939463+599170761+596040022+594178089
1838+593633122+593232746+592176681+591189884+591625775+593471890+594906222
1828+594564529+593003305+590976848+588466223+585648011+583108456+581148738
1818+579704469+578620297+577806021+577388534+577543299+577909864+577553706
1808+575998068+574036998+573147280+574128845+576276726+577877406+577809785
1798+576674632+576161064+577674836+581278100+584890949+585580331+583260633
1788+580602242+579603743+580432190+582404609+584914175+587199415+588371083
1778+588640627+589582912+592596697+597497404+602079821+603809451+602817773
1768+601112486+600134038+600593803+602781081+605853843+607906878+608217406
1758+607888650+607861190+608534872+610622542+614489998+618865142+621638489
1748+622524679+623014314+624054974+625552164+627264212+629089570+630720239
1738+632171799+634499846+638590159+642872809+644301319+642955013+640950194
1728+639598125+639555141+640710815+642094872+643429419+646147258+651665610
1718+658721372+662965684+662036158+658520508+655496963+654240269+655097410
1708+658010527+661938078+664972149+666799800+669449607+674017794+678233588
1698+679896302+679895832+678624967+675875493+673270375+672575348+673968284
1688+677039399+682186717+689252064+694576844+694714555+692283489+690853097
1678+691433109+693592868+696191341+698166524+699793959+701780078+703290322
1668+702906352+701743504+702330808+705290966+708562534+709866327+709829812
1658+710807731+714490376+721546726+730217692+734124368+731487322+728371871
1648+727798973+728593374+728443667+727315864+726837166+727997250+731204313
1638+736516685+742405719+744807914+741990231+738065150+736780231+738625405
1628+742122827+745790184+749523222+753492345+757046216+760297498+764974408
1618+772123194+779489307+783176245+783596907+784038267+785656528+787333590
1608+788129931+788678956+789866912+791243912+791623237+790897751+790469857
1598+791601363+793904009+795940933+796933376+797105604+796740391+796111926
1588+796040307+797308467+799751470+802634893+805447284+807873529+809785677
1578+811421637+812654929+812537386+811251761+810732020+812211569+814479346
1568+814888130+813124631+811374303+811590808+814920471+822365789+833042867
1558+839891944+838365647+834144150+831895954+832188960+833471056+833854438
1548+833309647+834146914+838565453+846264027+854338045+858583239+856293177
1538+850839094+847575347+847483089+848109319+846958231+845206257+845960732
1528+849828365+854395435+857514708+860296758+864393421+868058014+868526599
1518+866701182+865144956+865003422+866438989+869485584+874077351+880435086
1508+888633057+895328840+895307142+891479670+890162470+892998734+898087134
1498+902480330+904328562+904123817+904278228+907265905+913471993+920078163
1488+923472507+923564942+922582554+921933803+922219752+923548360+925400473
1478+927624384+931316849+937704338+946023909+952584038+953646571+950220710
1468+947016234+947596364+951212858+953422716+952531470+951775525+953681087
1458+956727036+956520879+952160730+947407495+944344024+942607162+941436141
1448+940431056+939340827+937937425+936503857+936075434+937778251+941703744
1438+946451039+949572370+949750714+948780204+948627909+948750980+947053278
1428+942995130+938846782+937081694+938326981+941774422+946092471+949324348
1418+949636169+947501048+944763040+942300867+939745789+936297348+932106781
1408+928812104+927985657+929260167+930879487+931753622+931976243+932281067
1398+933808657+937237635+941458426+944210605+944520251+943354992+942253768
1388+942076601+942435639+942214018+941373165+941924953+945895958+952482841
1378+958515349+962109558+964120492+965877405+967761976+969811131+971608029
1368+971877984+969960309+967421577+967072946+970641871+977644829+986024789
1358+993030688+996175716+995641450+994715100+995593704+996520760+995111889
1348+992555576+991929581+994397693+999098124+1005334200+1012481692+1018282994
1338+1020113586+1018820200+1018423529+1021343231+1026139861+1030305085
1330+1033442469+1036239396+1037960029+1036773896+1032851755+1029514918
1321+1030018607+1034299082+1039298104+1042734549+1045468559+1049122450
1312+1053257921+1055968293+1056795269+1057781479+1061026351+1065645166
1304+1068133152+1066709816+1063822925+1062963490+1065339637+1069547904
1295+1073006929+1073741823+1071287001+1066589980+1061220747+1056627687
1287+1052635219+1048516447+1045692120+1045993886+1047738276+1046217448
1278+1039874118+1032644658+1028121100+1025706380+1023446777+1021333706
1270+1019784300+1017736851+1014821970+1012461817+1011221470+1009748388
1261+1007130922+1004181466+1002189995+1002203637+1004984335+1009431804
1253+1011678706+1008005175+998347470+985941409+974347742+965392591+958851573
1243+953169107+946799141+939615898+932699318+926289484+919223491+910946080
1233+902421117+894613938+887513722+881012923+875698199+872141976+870227593
1223+869455066+869259200+869061982+868569935+867678689+866028323+863543041
1213+861076282+859485422+858528261+857828470+858032568+860014161+863589671
1203+867735726+871364274+873593889+874484253+875582361+878535521+883083599
1193+887452981+890926177+894724836+899825408+905484882+910697411+915052386
1183+917287175+916077404+912846174+910914563+912468437+917975676+926495934
1173+935595559+943054402+949151414+955371673+961703831+967184668+971660303
1163+975892326+980853598+987076856+993385140+996411508+993694668+987466941
1153+983096913+983819106+987990035+991620876+993063381+993757585+995386607
1143+998077927+1001255883+1005009737+1009752504+1014294643+1016296463
1134+1016097245+1016359262+1016922575+1014485276+1009213887+1006201985
1125+1007747509+1009612558+1007516539+1004301538+1005691475+1012185335
1117+1019723265+1026130805+1032019956+1035988668+1035283527+1030933432
1108+1025383798+1018155043+1009665479+1004375274+1006158119+1014846784
1100+1027567783+1039624919+1046045749+1046015996+1044951345+1047191779
1091+1051222467+1055304665+1059817991+1063379801+1062559057+1054648211
1083+1040858916+1026706467+1017930659+1016250833+1018810557+1020699714
1074+1018708243+1014207030+1011180191+1010826798+1010814685+1010533616
1065+1012612348+1016956445+1018310631+1012609290+1002219161+993389962+990402991
1055+993323281+999590876+1005607625+1008188752+1006565140+1002030762+996145610
1045+990880925+988851704+991224558+995742706+998215051+996913786+994891268
1035+996490771+1002503993+1009496014+1013371115+1012324811+1006714612+998506233
1025+990793429+986343490+986183375+988670950+990361360+989951047+990141679
1015+993141469+996652709+996914256+993236491+987063096+980221487+975160019
1005+973341775+973412572+971939784+966385034+957656267+949174405+943028059
995+939095568+937073580+936237254+934320754+929265989+921783038+914911440
985+911138300+910255580+909562200+906176323+899830229+893269219+889732988
975+889931323+890959223+888851738+882776188+875731363+871218507+870410640
965+872013849+874111749+875638457+875628579+872538588+866239771+859757436
955+856919466+858253072+860951566+863110443+866111056+871776351+879009398
945+884839690+887828836+888891370+889446921+889945142+890220330+891256521
935+895205299+902512729+910782378+917429238+922000484+925690361+929681888
925+934299468+939250921+944636383+950999940+957221787+960050113+957936630
915+952707343+946429871+939994341+934445001+931119513+930666392+932349393
905+934202035+934536554+933770613+934088373+936419419+939505294+942545244
895+945689861+948193311+948475909+946438867+944212604+944440869+948489021
885+955356856+961368607+962412441+958220168+953021282+951450826+954354182
875+958389162+959927160+958952417+958599023+961474448+967735339+975876449
865+982673252+983858444+978776101+972235847+968756535+968106961+967251113
855+964672691+961827901+960878207+963110644+969085762+978257065+988487491
845+996479834+999763280+998661350+994864102+989944226+985046988+981948236
835+983296131+989328580+997223314+1004244266+1008541087+1008895069+1007021200
825+1007600272+1012948454+1019721736+1022308508+1019087274+1013901147
817+1010253488+1008712668+1007570753+1005406761+1003518191+1004082328
808+1007241939+1010652276+1012468285+1013325838+1012745473+1009390643
800+1005694533+1005968075+1010645220+1014694842+1012967976+1004954699+996044355
790+993176867+997445817+1003379186+1005214364+1003417995+1002366046+1003166091
780+1002790471+999670374+995748939+992530174+989369035+985844388+982599516
770+979952885+978133995+977917372+978914342+978577236+976121355+974829969
760+977261976+981448546+984292866+986073535+987854675+988247230+985840272
750+981735847+977846869+975114389+974711014+977900320+983212163+987088498
740+988897569+990741096+992712104+993338687+992813360+993661269+998052054
730+1004855913+1010032750+1009928789+1004488642+997006456+990007143+984805904
720+983843038+988415871+995300522+999651676+1000286138+998384280+993415129
710+986864467+982682719+981738317+982350905+983699388+986044252+989017052
700+991023929+989704671+984698122+980523724+981196172+984408233+985543738
690+983222571+979280672+976744469+976857543+978690604+982138516+987823158
680+992491130+992550166+989788403+986566228+982722762+976941688+967980716
670+955586121+943211459+937822528+940212199+945710265+950213124+948754508
660+940544836+932819683+932367974+939652708+950466204+959283995+960963527
650+953917996+945736843+946289336+954914555+962648351+963638618+961219664
640+959788331+957395544+952841233+951949164+962637708+980811437+983361164
630+963943501+938926986+918005076+903453956+896063146+899218641+914031014
620+930680093+933953895+921251007+904106059+892326404+885992012+882691044
610+883638915+890450948+900724357+909700793+911792226+910225592+914923730
600+925068541
##END=
