##TITLE=<SNM>
##JCAMP-DX=4.24
##DATA TYPE=INFRARED SPECTRUM
##DATE=29/4/2025
##SAMPLING PROCEDURE=Instrument type and / or accessory
##ORIGIN=Admin
##XUNITS=1/CM
##YUNITS=ABSORBANCE
##RESOLUTION=4
##FIRSTX=4497.3318
##LASTX=599.83466
##DELTAX=-1.4281778
##MAXY=2.1275005
##MINY=0.38198811
##XFACTOR=1
##YFACTOR=1.9813893e-09
##NPOINTS=2730
##FIRSTY=0.39318654
##XYDATA=(X++(Y..Y))
4497+198439824+197682428+197859583+198594101+199150276+198934602+198013920
4487+197134781+197037375+197758160+198664072+199195490+199437983+199765097
4477+200154918+200347806+200453274+200653366+200562503+199803377+198942754
4467+198849619+199320271+199251548+198250095+197257125+197248747+198077739
4457+198968459+199386257+199085449+198135692+197288170+197547930+198982011
4447+200440279+200620742+199105273+196602972+194550129+194177530+195581980
4437+197740472+199519747+200461547+200506580+199551544+197868246+196526909
4427+196539288+197654632+198581632+198385089+197253079+195914901+194823682
4417+194111019+193960367+194544293+195566398+196336939+196506904+196354101
4407+196217468+196092852+195932168+195911516+196047849+195916390+195310503
4397+194835158+195128114+195809823+195952774+195338856+194572781+194198618
4387+194235679+194403117+194495394+194554657+194685514+194748341+194432763
4377+193705555+192992109+192788016+193268836+194321218+195653772+196796852
4367+197354607+197311634+196829476+196003372+195196311+195057406+195609746
4357+195890534+195174877+194055396+193710940+194559364+195970026+196954694
4347+196984445+196402654+196099666+196591811+197547705+198362528+198756515
4337+198618783+197906902+196955987+196257492+195811869+195367088+195192385
4327+195853593+197244371+198404402+198444577+197429045+196216776+195558215
4317+195548499+195846809+196058995+195973877+195772220+195954188+196847661
4307+198223894+199472412+200090768+200025820+199597043+199151841+198890591
4297+198903136+199199687+199779356+200664482+201687308+202392421+202464889
4287+202075414+201581915+201121506+200661985+200238517+199929181+199749079
4277+199696134+199854622+200255814+200705183+200996935+201100148+201087633
4267+201005644+200930063+201031771+201334985+201533693+201311024+200819661
4257+200576175+200693556+200700686+200535399+200934936+202249906+203639165
4247+204090203+203588220+202804157+202396407+202866337+204228295+205627391
4237+205997839+205198613+203961812+202879137+202023357+201429608+201376904
4227+201992568+202846588+203227640+202828418+202022515+201487517+201681968
4217+202574810+203689432+204446046+204591448+204275585+203758005+203257406
4207+203094872+203651844+204914833+206163697+206461406+205607281+204421017
4197+203939521+204418205+205222454+205615012+205497541+205292711+205244429
4187+205222815+205164094+205186611+205336330+205723368+206632273+207928487
4177+208760893+208536254+207774135+207348411+207441305+207728380+208038107
4167+208443691+208964971+209333840+209115458+208248953+207339131+207084169
4157+207502703+208011935+208177959+208121525+208121239+208079786+207751528
4147+207421060+207783250+209007989+210413476+211201240+211184214+210746938
4137+210326689+210012946+209706544+209591013+209993363+210713396+211115356
4127+211041639+210927161+210900704+210587156+209932822+209493787+209695097
4117+210307196+210829318+211097261+211373506+211946167+212730141+213289069
4107+213297251+212950749+212806068+213187285+213851712+214327132+214480837
4097+214545439+214696181+214906125+215043932+214788458+213812109+212451744
4087+211735366+212373275+214060152+215878594+217083132+217543947+217684852
4077+217886148+217973988+217583701+216838518+216239897+216017258+215927387
4067+215674711+215327983+215210918+215492909+216053973+216661108+217062466
4057+217071400+216755371+216305927+215747932+215140962+214950331+215654331
4047+217012860+218250188+218886774+218914494+218427493+217709490+217344682
4037+217579549+217967460+218219850+218791247+219956904+221036406+221289443
4027+220957756+220765470+220924380+221125901+221114755+220866201+220436536
4017+219971976+219739771+219879638+220188763+220339671+220226396+220010962
4007+219962500+220269369+220875376+221528251+221999143+222107921+221720401
3997+221098842+220898960+221326519+221785860+221827283+221783002+222077312
3987+222604308+223014013+223059933+222690779+222206184+222102972+222522589
3977+223108155+223464058+223480980+223238818+222886389+222630284+222622507
3967+222853419+223340240+224321162+225898901+227556162+228478183+228347024
3957+227478580+226408719+225717023+225969052+227364959+229343183+230647113
3947+230366130+229144760+228456208+228711455+229075466+229022987+228861340
3937+228839801+229112467+230241243+232498871+234794898+235414126+234127042
3927+232553696+232295244+233296787+234199270+234306648+234349681+235068316
3917+235803406+235031209+232431682+229488149+227767354+227545678+228541024
3907+231349924+236913426+244351337+250602383+253482593+253192088+250104371
3897+244628575+238977549+236036423+236663156+238639530+239004759+238239105
3887+239270114+242732731+245831113+246751810+246927596+246620877+244039519
3878+240136693+238543899+240896797+245764721+250960527+254344870+253849175
3868+250650484+248587805+248804201+248618444+245936205+242246331+239943611
3858+240303364+244624634+254118832+264337411+264888187+256061755+246283535
3848+240452858+239688348+243007533+248223373+253250839+257501702+261259937
3838+263687635+263275538+260394741+256808516+253561499+250882870+249144988
3828+248689739+249274868+251162214+255813275+262865818+267450984+266389743
3818+263171574+260715779+257557113+252646968+248233376+247127282+250488236
3808+256490968+260850187+262340913+264093775+266945843+267421052+264297823
3798+260493020+257309115+253911355+250556011+248592377+248330707+249082989
3788+250585507+252893462+255291860+257023574+258660470+260824226+262314591
3778+261624504+259602225+258575668+260364719+265613169+272954351+279004523
3768+281527250+281390075+280349500+279972118+282101129+287439435+293647870
3758+297409384+299272498+303159786+312081399+325233057+336636245+340959064
3748+341280343+343043734+346882440+348498097+346177101+344024867+346175898
3738+354064967+365605120+375664202+380024955+378986185+376287446+375508196
3728+377719181+381507198+385017405+388049455+391154274+394011877+396252584
3718+398487274+402041672+408583388+418937908+430532599+437804411+438669908
3708+436510905+435237613+437143083+442372341+448121780+451089515+451658641
3698+452497274+454952948+459275707+466052184+475181545+483587909+486248985
3688+482275330+476051403+471062232+468426516+468600993+471554167+477139418
3678+485838452+496449003+503727072+505580139+506601491+508719161+507903030
3668+502312274+496452222+493852514+494236875+496218633+499478496+504312743
3658+509735881+513386843+514834100+517527785+525410237+538753278+551010892
3648+553241250+546070966+536250435+528039425+522978508+521357496+522285112
3638+524044803+525918506+529090559+534841383+542843381+551510017+558121313
3628+559711521+557018257+553541591+551599241+552088859+554774963+558099413
3618+560828174+563969603+568609308+573089818+574796445+574038613+573271997
3608+573260084+572919794+572435469+573215743+574952752+575203698+572990547
3598+571122018+573024841+578908327+585647412+590272739+593165989+596386956
3588+599513584+599555579+595946792+591344449+588095747+587272034+589006096
3578+591904219+593332886+592106372+590113002+590478922+594995953+602825941
3568+610270756+613223750+611472120+608096411+605250871+602914322+600391986
3558+598159522+598051467+600777219+603727867+603316101+600101572+598608590
3548+601913065+608191531+612401301+612056739+609851169+609480254+611517123
3538+613992772+615315549+615508557+615213690+614664509+613558204+611641363
3528+609759598+609546195+611176231+612725949+613018047+613260931+614619807
3518+616271322+616674785+615361214+613247936+611972930+612441190+613655069
3508+613977009+613691769+614483354+616677071+618661417+619310953+619519182
3498+620428328+621808682+623117801+624956549+627998466+631161313+632426272
3488+631367918+629630067+628830420+628942928+628989976+628972709+629992437
3478+631782211+631829199+628839445+625477573+624889164+626532979+627809910
3468+627868811+627613232+627552406+627773450+628347480+628591086+627803472
3458+627018566+628204288+631885513+636110264+637810212+636002449+632971783
3448+631213476+630813382+630808870+630718081+629687524+627228119+625237336
3438+626153100+629049419+630452756+629312398+627821642+626756670+624346240
3428+620830588+619930767+623866067+629665564+632443238+631149762+628637954
3418+627114950+626075729+624388175+622474402+621577771+622232661+624454536
3408+628046236+631710856+633420249+632435296+629758458+626937043+625537497
3398+626268977+627619550+627203572+624820817+622522654+621923656+623123757
3388+625400743+627407049+627713887+626653488+626601145+629349219+633641534
3378+635933260+634075020+629819404+627019649+628068677+632383976+637100572
3368+638826270+636105030+631149160+628033662+628613587+631155237+633067024
3358+634180127+636466077+640609606+643929663+643059564+638702452+635283845
3348+635779961+639314385+643334937+645962983+646330227+644375663+641271175
3338+638898287+638343751+639627541+642232182+644684848+644603205+641290367
3328+637561552+636852453+639485733+643305758+646637908+649068313+650104586
3318+649346754+647708054+646002210+643312797+639058686+635161049+634083202
3308+635925138+638379188+639230876+638650951+638744146+640909105+644016421
3298+645475891+644413867+642832203+642721620+643818179+645144264+646997271
3288+649837697+652239885+652232544+650406973+649343866+650325089+652588357
3278+655181748+657882231+660508352+662210887+661873183+659646495+657305856
3268+655736344+653515853+649584705+645381072+643210998+644166050+647759916
3258+652481746+656413917+658094371+657476482+655560122+653304676+651251803
3248+649522014+647973440+646790184+646575457+647493146+648769115+649590661
3238+650297775+651769338+653929364+656079342+658221860+660388083+661238929
3228+659599928+656523296+653879608+652083397+650585481+649398977+648658112
3218+647900520+647132280+647240034+648254408+648853225+648757684+648992686
3208+648902680+646275658+641630838+638604143+638822359+639923430+639206269
3198+637052019+635367172+634401472+633354790+632542750+632818183+634022676
3188+635447191+636720212+636974888+634988738+631605508+629353189+628998159
3178+629038950+628663885+628840407+630082624+631160651+630792445+629196100
3168+627376786+625974411+625197447+625080427+625197086+624632503+622822875
3158+619917110+616419206+613265805+611521275+611451725+612505686+613910828
3148+614972912+615463914+615845177+616330644+616109058+614604826+612813368
3138+612193553+612746465+612943022+611454252+608780120+606992152+607509927
3128+609147665+609150132+606755344+604202023+603269654+603102758+602555080
3118+602168222+602170328+601208900+598909894+597136124+597329914+598633017
3108+599201090+598284664+596896549+596748905+598285868+599922522+599855800
3098+598031853+595645789+593567467+591908250+590730831+590439154+591054035
3088+591461709+590337897+588142434+586761117+586862555+587319504+587390558
3078+587669120+588494036+589043939+588538256+587342367+586328715+585671117
3068+584727618+582962271+580774329+579115774+578444218+578563043+579055429
3058+579520080+579721811+579755263+580001576+580578614+580893455+580127681
3048+578171432+575751075+573641527+572234099+571702786+571868359+572063412
3038+571816678+571463031+571447027+571474101+570828777+569227017+567161028
3028+565459817+564534427+564057323+563654521+563662824+564572872+566014113
3018+566985288+566979512+566212114+564829113+562758852+560459425+558685174
3008+557224200+555242141+553135300+552367180+553152989+553949988+553717693
2998+553323375+554175304+556348746+558344884+558550647+556884210+554679603
2988+553008534+551641777+549644737+546771581+544286607+543850414+545281668
2978+546453371+546151466+545679836+546540971+548139361+548874571+548294766
2968+547094123+545894022+544973445+544480276+544174821+543330774+541466396
2958+538940510+536418775+534179332+532340946+531346186+531401959+531574450
2948+530560438+528606115+527499208+528265343+529892913+530766080+530512607
2938+529692986+528560750+527171372+526031916+525677247+525917724+526144183
2928+526119757+525946844+525600236+525009120+524349296+523987045+524220484
2918+524917790+525313372+524561616+522694893+520688888+519439331+518981419
2908+518787449+518498840+518059338+517304876+515983122+514309165+513036084
2898+512716490+513056179+513071280+512002278+510215753+508847011+508462620
2888+508660501+508950494+509214556+509251136+508794728+508066376+507586023
2878+507572305+507774759+507528987+506086363+503537223+501160124+500170057
2868+500409933+500786713+500689487+500399344+500280790+500208622+499866557
2858+499275110+498830163+498829682+499065046+498893908+497736974+495688825
2848+493728876+492966050+493425135+493986320+493757815+492957146+492240647
2838+491919579+492005283+492259839+492086295+491016811+489298122+487550674
2828+486035942+484616000+483237902+482169110+481785230+482134997+482683637
2818+482656322+481805446+480735270+480257112+480439742+480462033+479550390
2808+477883834+476224467+474976986+474151830+473802094+473888941+474119281
2798+474307144+474440800+474308558+473675297+472760736+471991202+471473667
2788+471012717+470332347+469250469+467967401+466978597+466460852+466097669
2778+465628295+465096140+464504603+463742800+462828721+461911513+461135120
2768+460596377+460265593+459901147+459243910+458298244+457298491+456498423
2758+456067164+456001194+456020898+455725881+454951865+453856690+452722018
2748+451880347+451661739+452084425+452600937+452404891+451199194+449581642
2738+448466162+448144853+448046725+447438763+446288959+445271247+444904995
2728+444913208+444584409+443656041+442616759+442148078+442370355+442642148
2718+442224396+441120769+439924037+438922539+437915174+436864492+436051669
2708+435537112+435056248+434495003+434053907+433926659+434054358+434123367
2698+433745925+432803899+431573535+430370246+429264873+428325405+427828897
2688+427935148+428369114+428694785+428748241+428600236+428259103+427635288
2678+426710680+425561779+424287916+423030778+421986443+421345421+421238087
2668+421593689+421995889+421962167+421483438+420997820+420785259+420662102
2658+420258549+419406529+418285244+417292559+416752072+416666608+416714439
2648+416527267+416042101+415514037+415117854+414726604+414221824+413770018
2638+413585795+413640454+413748449+413735273+413452530+412842643+412072868
2628+411456513+411188510+411242388+411448090+411491679+411000526+409978753
2618+408991814+408548612+408520937+408522621+408525810+408640815+408652186
2608+408331569+407915261+407737174+407622952+407131167+406268017+405580938
2598+405546645+406083763+406672954+406830074+406448691+405767087+405108767
2588+404656210+404370248+404123995+403930325+403892001+403954572+403988685
2578+404057904+404264930+404440821+404338000+403985767+403583116+403203478
2568+402806242+402395740+402006114+401598470+401117635+400648773+400362992
2558+400285560+400321328+400513403+400972398+401512976+401697080+401332152
2548+400702891+400262156+400203767+400316184+400243084+399939103+399735897
2538+399822685+399917173+399750247+399603716+399919189+400580878+401059637
2528+401110416+400893131+400620045+400489518+400687038+401119771+401417134
2518+401371710+401080032+400654278+400186981+399894160+399868019+399839832
2508+399568219+399277083+399364171+399850390+400391420+400697898+400750000
2498+400692663+400677472+400786370+400981212+401078739+400909075+400606869
2488+400566950+400943579+401380584+401431935+401079912+400658851+400448335
2478+400531814+400896200+401426008+401839369+401874595+401605449+401390632
2468+401481239+401842046+402297852+402637060+402625989+402183870+401574976
2458+401233001+401322435+401597447+401746836+401739526+401750325+401864517
2448+401958645+401848844+401542036+401285013+401255833+401300295+401146815
2438+400778518+400470536+400576877+401239769+402108605+402526598+402259557
2428+401782182+401651084+401931240+402328837+402512068+402261092+401643022
2418+401048386+400823491+400936871+401179996+401536651+402074672+402612663
2408+402876003+402923773+403034867+403244932+403380963+403460110+403671979
2398+404044458+404417237+404676245+404858002+405085724+405465182+405987741
2388+406466440+406532410+405774097+404066117+401767051+399434142+397356903
2378+395456186+393507849+391310371+388821727+386394661+384653982+383840016
2368+383460198+382846971+381811179+380542550+379357911+378790771+379473006
2358+381728122+385363261+389876741+394767333+399412844+402792013+403909057
2348+402526598+399437391+396178190+394066958+393296461+393285481+393459477
2338+393466576+393271974+393143673+393282323+393566479+393756238+393825758
2328+393948013+394238246+394728527+395522427+396687182+398009628+399167734
2318+400102630+400898005+401439786+401605569+401681166+402187300+403306841
2308+404708132+405919484+406794847+407574339+408449672+409218003+409597039
2298+409722422+410002879+410602117+411320421+411882839+412197649+412420378
2288+412791804+413337616+413801093+413918865+413641537+413084895+412414633
2278+411800624+411381458+411215283+411260828+411411841+411542007+411508916
2268+411199761+410671878+410195345+410063885+410367746+410953057+411568389
2258+412068506+412498321+412984300+413583809+414234458+414766132+414977881
2248+414809872+414418351+413999365+413597587+413164794+412707784+412263890
2238+411811123+411327972+410885041+410546224+410253554+409968164+409833485
2228+409992049+410316576+410548871+410656295+410829449+411158639+411514903
2218+411746506+411817049+411752011+411631201+411645791+411972785+412555448
2208+413182001+413801605+414563378+415512081+416467042+417278661+418010352
2198+418748510+419393173+419796034+420044303+420447315+421183668+422060235
2188+422723849+423064290+423261449+423471875+423706877+424025328+424552339
2178+425225640+425776746+426063039+426227559+426441233+426643657+426674070
2168+426606355+426761639+427333743+428164224+428924643+429416067+429716829
2158+430127843+430886788+431870868+432747796+433442154+434196407+435151999
2148+436121400+436829686+437256674+437695183+438476088+439668067+441110270
2138+442659115+444228746+445665715+446852430+447962856+449401178+451379026
2128+453659140+455840585+457816627+459754405+461690890+463442098+464911375
2118+466215290+467472488+468672469+469745111+470613526+471245373+471761374
2108+472379233+473165673+474035953+475096051+476647152+478610470+480309155
2098+481136447+481133348+480685604+480028818+479221621+478231344+476871626
2088+474909933+472367261+469554300+466738541+463921970+461071587+458426846
2078+456345485+454893746+453809341+452849928+451961418+451144896+450406587
2068+449849073+449623396+449746101+450015037+450113857+449837281+449307201
2058+448916644+448928887+449217857+449543227+449896182+450356380+450832131
2048+451237940+451748165+452603223+453805430+455190236+456657288+458225686
2038+460034110+462347826+465396181+469116964+473102260+476872408+480228414
2028+483267383+486050743+488422157+490266469+491790857+493335942+494929789
2018+496161146+496608018+496392629+496080495+495968710+495791555+495216112
2008+494262505+493096397+491808395+490580979+489729712+489353082+489087696
1998+488463309+487618720+487397224+488373303+489974942+491074839+491338540
1988+491340436+491619599+492286101+493251561+494359520+495472293+496647155
1978+498068421+499798391+501736921+503763321+505841493+508041107+510401661
1968+512711737+514580146+515852926+516798110+517789561+519019263+520587872
1958+522693749+525476538+528654366+531623545+534045226+536059232+537920541
1948+539906150+542587682+546487845+551098552+554761727+556314212+556559864
1938+557232503+559017343+561189281+562891876+564256106+566049790+568620378
1928+571630348+574670701+577544338+579908923+581517902+582978756+585048535
1918+587045395+587474007+586487068+585803600+586363430+587682477+588997853
1908+590053018+590955305+591856208+592754043+593545567+594272835+595094442
1898+596065196+597106162+598031853+598754730+599615563+600908378+602026956
1888+602072140+601201920+600162398+599155184+598150618+597446152+597231485
1878+597209765+596992572+596612031+596682002+598028845+600751649+603434023
1868+603872442+601395590+597429787+593479627+590112581+587534352+585842285
1858+584645553+583260928+581453285+579584215+578210900+577755876+578383452
1848+580198916+583185782+586003586+585675148+581250350+575809133+572275191
1838+570681373+569469781+567967654+567297903+568668089+571104089+571824800
1828+569910065+567279613+565026212+562270377+558750453+555768941+554309290
1818+554033436+554187999+554670458+555821404+557410529+558335198+557710329
1808+556005688+554588995+554628704+556629594+560122865+563485158+565111284
1798+565336600+566185762+569205839+573915035+577456798+576989982+573720042
1788+571346733+571688828+574020443+577037091+580174008+582909687+584631114
1778+585955094+588685419+594176753+601926842+608610456+610285977+607303804
1768+602980744+599679458+598833966+601134657+605114719+607800161+608572192
1758+609195556+610096399+610875108+612988025+618436702+626404588+632855004
1748+634941448+633991993+632871790+633396123+635904080+639291462+641706766
1738+643147886+646304898+652693104+658433940+658183174+654040307+650362993
1728+648105741+647101415+647633330+649734755+653467120+659864832+669820011
1718+681094717+687646270+686691399+682244160+678373417+676639717+677857566
1708+682499679+689240028+694938448+698723276+703684681+711895871+719879821
1698+723334045+723217205+720782228+716535156+713141517+712975764+716070084
1688+721735294+730572315+742328638+750942149+750307594+744741415+740922233
1678+741950204+747980251+755851752+761708345+766233076+771572013+775135436
1668+773162702+768755172+767299973+769377333+771349766+770469920+768607648
1658+769477988+775788401+789118026+806359667+814433863+810374925+807316403
1648+809870807+812179620+807671434+799691215+794680956+794658094+799205808
1638+807119184+814885758+815793520+807974181+798415788+792822415+792049481
1628+793914460+795473322+795369238+793269738+789221449+785390174+784832269
1618+787584554+789006301+784633545+777112562+771296821+768650004+767881824
1608+766805662+764488306+762222029+761841669+763315820+764675417+764504129
1598+763360462+762262340+761394768+760871878+761166443+762007964+762228347
1588+761350968+760220116+759639107+759430637+759239856+759703724+762314262
1578+767583107+772480557+771991360+767523605+765240422+766973280+768979826
1568+767471562+764049767+761935947+762541322+767468253+778939337+793835043
1558+797965336+787791820+775851093+767663306+763242961+761891064+762369132
1548+764019444+768106298+776074544+787252867+799512586+809396771+810244429
1538+801778080+793710864+791563472+793575313+794834556+794021493+794800383
1528+799902813+808245283+817088020+825803930+834718804+841372637+843480320
1518+843203322+843037870+843044067+843203322+844899179+849941204+859667638
1508+873235694+883513535+882550061+875626090+870763776+870007689+873201641
1498+879278316+884912962+886925464+886820056+888425124+893370165+899608922
1488+903131433+902887526+901405193+901186616+902889331+905937385+910266882
1478+916331343+923693552+931195163+937895262+942386000+942979824+941283064
1468+941048663+943349354+945685962+945378161+943706370+944336713+949150234
1458+955966150+958023475+952168446+944484477+940048429+940250581+944986851
1448+951888441+956309509+955543614+951625883+948566639+949216054+954185882
1438+961892232+968970164+972604040+973636463+974794870+977639207+981672815
1428+984443510+984164889+982700064+984235883+991572341+1003817682+1014420351
1418+1014165735+1004901124+997544570+996528272+998441984+998867949+996965547
1408+994060926+991385771+990249204+991379574+993500493+994344300+993426491
1398+993246479+996342604+1001100773+1002773647+999499736+994090526+989520491
1388+986581155+985392906+986807012+990943743+995284250+996191772+993434012
1378+991496474+994894023+1003442676+1011924366+1015149905+1013725090+1012040484
1368+1012875567+1016411194+1022125377+1028938525+1033918942+1034193052
1360+1030493417+1025858945+1022453635+1021268635+1023465963+1029774090
1351+1037725069+1042308761+1041860175+1039961142+1039555995+1039892074
1342+1039737812+1039272861+1038722115+1038770968+1041460562+1047586270
1334+1054505308+1058484227+1058879628+1058889254+1061517239+1065418426
1325+1066713767+1064630512+1062679979+1064491532+1069585539+1073741823
1317+1073381317+1068241464+1060642929+1053874423+1050591006+1051491307
1308+1054578949+1056504334+1055319093+1051872028+1048939851+1048904836
1300+1051338129+1052644420+1050123528+1045890594+1043703494+1043156720
1291+1040053916+1032240112+1022983323+1017032814+1014787234+1011963714
1283+1005096358+995951836+988884553+985621411+984172710+981455561+976198147
1273+969714038+964260608+960540095+957074199+952406036+946752318+940860168
1263+934639219+927348726+919081763+911392560+905512202+900838624+896180629
1253+891393520+886576029+881161946+874868078+868117741+861088603+853461188
1243+845310102+837102041+829026882+821436469+815289703+811123191+808127360
1233+805075817+801866462+799423844+798309357+798024478+797724738+797338542
1223+797656812+799181682+801091303+801865018+801149783+800216571+800355250
1213+801904125+804794728+808772685+813043161+816713375+819786758+823213006
1203+827733586+832772062+836834670+839428902+841943417+845826073+850729540
1193+855134664+858314297+860712575+862608659+863771699+864717725+866962583
1183+871172955+876025101+879869251+882838008+886577051+892719125+901808777
1173+912545913+922102382+928076295+930680576+933161278+938848749+946779091
1163+951849575+951028810+946865307+943074282+940750428+940290952+942779175
1153+948068898+953836206+957114269+956519001+953628278+952057984+954084625
1143+958450763+962322409+964281665+964331000+963014360+962221332+964263977
1133+968355524+970736413+970404787+971233974+975770557+980951021+982237098
1123+979255766+975718154+975375939+978694612+983460783+987535123+989967814
1113+990703927+989793819+987399212+984606616+982769915+982069901+982331135
1103+984798240+990528909+996749677+998255654+994283354+989779800+988758087
1093+990296613+990238615+985945036+979240785+974107250+972181565+971153053
1083+968106322+963316687+959318937+958197651+958973111+957764948+952466261
1073+945769290+941719738+941284207+942478413+942643564+940238368+935742877
1063+930877254+927322013+926275813+927793643+930175074+931211347+930405083
1053+929294025+929543647+931242272+933198400+934722487+936324066+938199333
1043+939175923+938127376+935812668+934475452+935287191+937167151+938425491
1033+938423566+937022515+933969348+929852833+925709424+922221929+921072606
1023+924573218+932108640+939114134+942078620+942758839+944298569+945824401
1013+943973982+938219368+931444906+925391756+918917935+911486056+904895336
1003+899874488+894366368+886840873+878343961+870295816+863257172+857896034
993+854602810+852404219+849875264+846674152+843424908+840765156+838957273
983+837883638+836843393+834878421+831746137+828118639+824670311+821522384
973+818968882+817581910+816928885+815413642+811979934+807229886+802528813
963+798659755+795666932+793637042+793124561+794520798+797415914+800994558
953+804559485+807537568+809909854+812854364+817910950+825009759+832057067
943+837172493+840662997+844174678+848825093+854642639+861058220+867414358
933+873315834+878738460+883897505+889244625+894977459+899930742+902166034
923+901442014+899422893+897249271+894767244+892012312+889743328+888831716
913+889591112+890629612+889723053+887094947+885550946+886729508+889436309
903+891426611+891420715+889968705+889555856+892724178+899047407+905089667
893+907660075+905823072+901020682+896940807+897292348+902413731+908829853
883+913285094+915778853+917117092+917212031+916935936+918029607+920350211
873+921609514+920986932+920349610+920792842+921087888+920193062+918745985
863+917891349+918999157+923788131+932429498+942149072+948026301+946640472
853+940215024+934725375+933614197+934921571+934962423+933930421+934906289
843+938127256+940385831+940102577+939328861+939877742+941386547+943529486
833+947394574+953063213+958484696+962738446+967002304+971407729+975466366
823+979450820+982141436+981682140+979235792+978352818+980683049+984600119
813+987350117+987819039+986827950+985583808+985766046+989231822+995724895
803+1000961553+999715787+992202745+983665523+978849476+978093388+977001403
793+970808069+960503275+951893795+948512310+947600036+943656494+935773982
783+927869751+922564325+919243666+917050911+916405346+916714952+915563945
773+911975434+908195419+906513159+906807664+908214491+911090594+916300178
763+923646023+931074713+935327802+934724773+931709509+930412784+931824965
753+933668044+934041485+934130649+936809353+942471975+948328989+951837963
743+953461742+955557212+959299744+963552833+966041176+965176071+962199853
733+961011183+963854979+968850497+971798076+969384096+961630637+953254055
723+950584435+954708591+959963479+960309966+955985944+951678106+950258163
713+951128563+952881576+953794994+950663792+943180111+938285970+943839875
703+959587090+975248811+977585239+965125894+949151618+938438066+933872724
693+932482442+931052092+927221478+922295691+921462111+926144113+929583236
683+924474187+913280161+903978850+899522045+898343362+899256418+901374329
673+901311878+894993463+885013737+881193111+888599541+899571018+905921562
663+905125345+899190358+894881437+897199936+902946848+905168904+902476723
653+899925026+900162616+900065871+895976009+888835266+883776093+883222640
643+883647341+882126082+879972373+878785869+880585450+886279418+892735670
633+898604476+905970114+913308017+917517065+914504990+901494417+882540555
623+866873540+861860333+865434766+867261300+861246535+854642579+854738060
613+858928577+862297789+863968677+864669233+862913452+856722044+849411215
603+846899348+850261641+859829721
##END=
