##TITLE=<SNM>
##JCAMP-DX=4.24
##DATA TYPE=INFRARED SPECTRUM
##DATE=29/4/2025
##SAMPLING PROCEDURE=Instrument type and / or accessory
##ORIGIN=Admin
##XUNITS=1/CM
##YUNITS=ABSORBANCE
##RESOLUTION=4
##FIRSTX=4497.3318
##LASTX=599.83466
##DELTAX=-1.4281778
##MAXY=2.1474285
##MINY=0.38575032
##XFACTOR=1
##YFACTOR=1.9999487e-09
##NPOINTS=2730
##FIRSTY=0.40426621
##XYDATA=(X++(Y..Y))
4497+202138294+201006581+199534398+198416931+198407722+199406513+200412531
4487+200713676+200715107+201116748+201708012+201774517+201442824+201584806
4477+202512919+203605142+204154562+204065585+203665434+203113019+202218270
4467+200962532+199858283+199372493+199474345+200040887+201027980+202033402
4457+202412244+202019663+201279801+200536035+199814175+199129136+198649291
4447+198507205+198581340+198603663+198457553+198198892+197973700+198034990
4437+198468118+198868970+198755032+198277661+198080350+198511347+199327177
4427+200007567+200148118+199774671+199268450+198763124+197955878+196819098
4417+195964107+195881851+196341519+196889598+197393910+197727794+197496657
4407+196563641+195509819+195191134+195933082+197211992+198054958+197923869
4397+197263850+196887675+196925585+196872625+196537176+196336944+196698694
4387+197621427+198656235+199019132+198168105+196542541+195249459+194855716
4377+194922028+194889378+194894609+195337676+196140825+196885976+197390260
4367+197726006+197820005+197465244+196706472+195939237+195619882+195866085
4357+196279424+196318436+195914202+195541753+195740405+196730881+198196061
4347+199237053+198981372+197454292+195540755+194181600+193899007+194709487
4337+196026396+196848201+196429214+194943635+193422291+192880114+193486785
4327+194632386+195652144+196297693+196662796+196844818+196662587+195906096
4317+194922266+194488542+195010960+196259605+197708348+198695396+198643450
4307+197640144+196490206+195950025+196204812+197100290+198454677+199885359
4297+200625266+200007999+198298926+196757585+196584354+197814074+199354626
4287+200096097+199840297+199084967+198266366+197542837+196983328+196621280
4277+196511441+196744054+197208684+197606407+197845815+198101451+198564203
4267+199367918+200402815+201081104+200858549+200018251+199368082+199300503
4257+199569029+199748921+199648097+199436987+199459473+199862858+200416689
4247+200663697+200357515+199878475+199894598+200406883+200631152+200089972
4237+199224997+198719835+198798903+199257960+199701027+199750441+199385502
4227+199087963+199411565+200328546+201146984+201269355+200947377+200950685
4217+201510417+202079775+202241502+202315771+202760135+203391141+203631071
4207+203338419+202932799+202749242+202757393+202829055+202876069+202775782
4197+202516659+202416684+202863314+203835893+204817264+205172904+204683895
4187+203765051+203046424+202739944+202574283+202283658+201990590+202187305
4177+203303982+205072229+206524772+206977749+206748340+206592172+206767011
4167+206912808+206628159+205962611+205319773+204987394+204960557+205080201
4157+205058609+204596721+203785659+203122764+202943886+203174517+203658370
4147+204283297+204784391+204898656+204760206+204685832+204509532+203722283
4137+202462686+201637900+201791222+202557370+203430124+204319850+205145172
4127+205567184+205377427+204782841+204212797+203988931+204132612+204404670
4117+204553223+204561046+204742830+205512763+206795026+207848699+207970177
4107+207193032+206177029+205678528+206077517+207041691+207702754+207503386
4097+206825247+206464659+206573798+206542743+205934239+205066164+204553700
4087+204686860+205310892+206000476+206392714+206494790+206524384+206520018
4077+206391761+206177059+205968661+205860193+206106918+206895567+207814843
4067+208091565+207612391+207175224+207372878+207765176+207638901+207108927
4057+206811463+206913449+207070347+207048561+206965321+207073000+207466877
4047+207962801+208283974+208305238+207999384+207397823+206796114+206687392
4037+207290935+208336338+209346662+209966015+210076599+209765381+209186828
4027+208479944+207804397+207348335+207241596+207420206+207597042+207533964
4017+207408180+207626100+208139905+208374098+208115780+207983678+208539550
4007+209389460+209793783+209848725+210251171+211072753+211600953+211421017
3997+210929832+210604010+210405000+210151167+209956657+209976193+210096031
3987+210192206+210346154+210497583+210258428+209458856+208596101+208363324
3977+208897396+209697117+210120738+209936778+209574179+209705909+210421064
3967+211101766+211283431+211227788+211410124+211827412+212134637+212259199
3957+212479175+212886360+213199769+213324257+213657932+214418999+215017311
3947+214719056+213762407+213082911+213065015+213198324+213023797+212786743
3937+212902171+213482675+214617994+216355797+218028019+218515746+217784036
3927+217139931+217578379+218627970+219156960+218946162+218759044+219063482
3917+219271970+218437707+216594684+214838075+214080898+214317534+215259848
3907+217258011+220892915+225560108+229245156+230544973+229767902+227443082
3897+223963408+220744466+219703950+221354133+223707056+224014103+222598844
3887+222315103+224263361+226316600+226633958+226301564+226176421+225043770
3878+222749424+221349841+222127105+224270752+226699510+228957601+230058303
3868+229616547+229269922+230242382+231154923+229978133+227182439+224904530
3858+224874592+228470693+236497424+245038601+245715698+238991302+231681662
3848+227344970+226256591+227432159+229801445+232601073+235456805+238111515
3838+239819857+239647193+237688013+234965724+232374972+230429158+229483953
3828+229452123+229741854+230421901+232870031+237474429+241138346+241162650
3818+239552762+238389384+236531087+233097935+229860336+228830371+230577518
3808+233883917+236272351+237097599+238604264+241997196+244824332+244804200
3798+243267806+241678512+239890565+237957984+236790880+236945722+238323221
3788+240890384+244463536+247864113+249943698+251491775+254227281+258103172
3778+261382317+263445167+265524022+269135232+274949040+281994847+287890971
3768+291399480+293586013+295764619+298645415+303068879+309482265+316786048
3758+323231323+328888098+335832575+346301118+360540676+374192666+381495972
3748+383958839+387196915+393141498+397966231+398860979+399065458+402419229
3738+410217505+420880812+430231530+434139699+431905421+426408688+421447875
3728+419740367+421952620+425971149+428374291+427675260+424783317+421222117
3718+418461576+417876452+420236141+425185301+430583356+433001757+431355166
3708+428208854+426351466+426749487+428873702+431446960+433521225+435351432
3698+437558321+440081659+442728680+446016765+450566386+455474388+457860691
3688+455965453+451857247+448477577+447002652+447119688+448210928+451027618
3678+457672902+467487983+473539857+471611240+467421164+466088579+465603176
3668+461884555+456007833+451778179+450850707+452339133+454693696+456943889
3658+458276206+458172491+458051997+460864068+468484270+479262557+485951860
3648+482276930+472710258+465002763+461715661+460950467+460043916+458831884
3638+459551957+463527718+468921362+472623978+474154039+475535084+477226857
3628+477002618+474597062+472531112+472758033+475753899+480732326+485950936
3618+489940198+492689801+494719958+496079485+496740965+497145095+497669092
3608+497734808+496632988+495347790+495933480+498904728+502449061+505031677
3598+507601716+511563679+515887034+518030771+517701208+517674504+520290798
3588+524116561+525232448+522762487+519692591+518586062+519594121+521136967
3578+521350656+519597519+516874947+514548697+513367541+514061715+517726123
3568+524158703+530045945+531578002+528821276+524497504+520620838+517974323
3558+517020625+517902796+519892569+521843301+523311580+524599073+525540076
3548+525111567+522875918+520044625+518181157+517697810+518449087+520385751
3538+522564178+523193977+521722539+519585002+518199635+517407707+516690406
3528+516782200+518667245+521270545+521675211+518537542+514111188+511510272
3518+511187088+511343017+511073419+511428493+513176265+515223320+515981093
3508+515442194+514936316+515186662+515388786+514442121+512770824+511981340
3498+512872393+514635543+515795956+515466036+513841231+511960299+510848107
3488+510926847+512259045+514577546+516690168+516891995+514751418+511731471
3478+509672316+509545831+511336699+513961099+515687115+515546624+514058079
3468+512426896+511497874+511356190+511413949+510903541+509976903+509478953
3458+509624750+509883322+509386564+507434164+504408912+502145188+502311370
3448+504601320+507267683+509099918+509853876+509234032+507071818+504081078
3438+501320358+499516735+499033627+499647421+500469361+500682930+500234870
3428+499562930+499057052+498962308+499393946+500245778+501216286+501968158
3418+502243896+501921665+501043905+500022434+499592017+499945303+500345916
3408+500372024+500535524+500824375+500194159+498233503+496059100+495047523
3398+495460982+496637548+498063715+499759094+501654570+503257738+504045910
3388+503790855+502531794+500507151+498151485+496094208+495086387+495698155
3378+497853782+500743847+503329027+504884390+505271353+504964799+504731500
3368+505272724+506840188+508753963+509650202+508766183+506725863+504851249
3358+504117318+504746402+506506572+509184260+512367826+515140348+516906598
3348+517945891+518170309+516680810+513680533+510985619+509702775+509266457
3338+509108918+509624929+511084744+512778394+513753372+513545823+512132918
3328+509900965+507629612+506281201+506512652+507972109+509280048+509261450
3318+508040537+506526898+505377095+504915266+505363743+506611658+508095256
3308+509071903+508996561+507984150+506911060+506606234+507019483+507498896
3298+507510102+507000827+506537687+506888588+508085003+509375477+510434858
3288+511862068+514017844+516040580+516643914+515551094+513734655+512562142
3278+513134421+515857351+519730143+522410632+522192176+519812697+517343511
3268+515929772+515428186+515411496+515675909+516123194+516673359+517240929
3258+517645297+517610249+517005425+516106922+515429617+515208299+515187377
3248+515020480+514650206+514127818+513275747+511835007+510037344+508699543
3238+508431554+509015217+509841538+510486059+510560746+509745810+508387982
3228+507362934+507115986+507429276+507952856+508262928+507651786+505815379
3218+503667709+502451266+502165037+501933110+501733846+502277276+503324139
3208+503864707+503891947+504243981+504778530+504496712+503420522+502573578
3198+502173323+501297410+499490776+497656009+496892573+497128077+497413680
3188+497174004+496450563+495363913+494119455+493141497+492544005+491747547
3178+490131892+487895170+485916960+484891674+484831591+485158442+485118357
3168+484473835+483862276+483963159+484380402+484133335+483156926+482328698
3158+482065835+481840524+481086327+479820888+478422020+477292185+476502552
3148+475650601+474398007+473059491+472296741+472268547+472326693+471668223
3138+470318829+469242252+469149833+469506158+469234116+468177417+467230752
3128+467094790+467432161+467388440+466688694+465789952+464962856+463920136
3118+462578073+461435512+460758058+460133028+459354511+458846488+458668713
3108+458141198+457110428+456596236+457349687+458624962+459227580+459010941
3098+458530128+457991288+457174773+455957257+454748414+454378677+455038041
3088+455533338+454625655+452896152+452007275+452424489+453065941+452978111
3078+452313860+451624961+451113689+450763563+450528983+450283018+450068167
3068+450215365+450679369+450740167+450005789+449060227+448536020+448272442
3058+447741947+446715916+445410690+444348120+443929387+444005653+444140423
3048+444213232+444418575+444759552+444870986+444427635+443545583+442527539
3038+441341436+439836946+438340950+437409932+437168527+437417979+438067626
3028+438920233+439347878+438750534+437188316+435264139+433567628+432394132
3018+431834996+431916925+432569433+433478100+434065668+433856271+433007628
3008+432149448+431452324+430356286+428606785+426963532+426368693+426820001
2998+427445001+427558789+427350764+427285167+427095411+426076205+424353557
2988+422924171+422389354+422547460+423091485+423787507+424104790+423637180
2978+422788567+422230355+421974764+421664603+421314148+421072535+420711172
2968+419978821+419123651+418566006+418327849+418196269+418150402+418184765
2958+417983951+417322949+416582968+416273522+416233318+415887125+415129412
2948+414303121+413532085+412734376+411981192+411345463+410728747+410152117
2938+409840854+409883353+410168062+410626433+411106651+411160475+410542895
2928+409712224+409198627+408809756+408098059+407264317+406908975+407150470
2918+407601658+407995596+408313714+408423359+408012226+406981516+405716315
2908+404723753+404074940+403514940+403029120+402851821+402978425+403139212
2898+403164456+402977024+402421345+401468064+400396434+399577743+399217752
2888+399246691+399294972+399010114+398519585+398216934+398057935+397594229
2878+396761560+396063185+395854503+395934942+395991836+396034246+396117039
2868+395977381+395380962+394646435+394349656+394588826+394944347+395003357
2858+394583282+393715864+392747800+392185773+392182674+392353982+392235127
2848+391815142+391507872+391566107+391679061+391390805+390778292+390311278
2838+390128227+389928964+389557498+389225462+389117784+389170863+389251063
2828+389242360+389022324+388589881+388124119+387734235+387286056+386658403
2818+385986403+385463836+385099016+384816542+384581336+384279133+383712725
2808+382904197+382192768+381879985+381960274+382244536+382490531+382405711
2798+381858497+381078818+380370011+379736696+379028097+378261502+377606430
2788+377216666+377145079+377252131+377231269+376872619+376232836+375510528
2778+374907224+374543716+374351337+374137798+373800606+373306203+372587590
2768+371772774+371300753+371439427+371903967+372228881+372217436+371828476
2758+371049572+370110865+369445868+369220944+369078366+368534400+367633513
2748+366981719+366970036+367210607+367027079+366300033+365487094+364977909
2738+364770777+364705091+364698862+364664380+364434092+363962130+363415273
2728+362875420+362193376+361376652+360815341+360778415+360937683+360766196
2718+360237400+359743980+359446128+359108727+358557131+357955616+357600095
2708+357628467+357885966+357985776+357672158+357141962+356742809+356440456
2698+355951477+355283352+354710954+354305095+353878106+353341740+352822093
2688+352458049+352285459+352296337+352457244+352647775+352681125+352428275
2678+351901744+351260054+350745384+350529640+350572646+350647392+350540458
2668+350265704+350049631+350028173+350016729+349742779+349239226+348772480
2658+348451888+348165629+347836931+347510498+347229872+346996722+346780590
2648+346454902+345873384+345157902+344721465+344788790+345065840+345116982
2638+344871524+344536626+344259070+344086421+344001542+343826449+343379313
2628+342825333+342574928+342783162+343189288+343459096+343489942+343359911
2618+343140799+342840890+342465282+342078110+341814144+341786219+341899321
2608+341857478+341518140+341097499+340843309+340737895+340709880+340831119
2598+341091866+341276675+341238378+341068143+340921095+340877880+340984993
2588+341198353+341295630+341088797+340695247+340366012+340139151+339922334
2578+339766165+339722444+339606332+339291939+339060011+339251585+339742085
2568+340077638+339985904+339556918+339074644+338799443+338804211+338968396
2558+339132403+339194185+339102272+338888763+338673227+338539709+338444339
2548+338274253+337989305+337740271+337805689+338302774+339010180+339564071
2538+339730044+339468641+338953376+338534881+338457244+338614306+338736350
2528+338749225+338801291+338979960+339131658+339027496+338681750+338386849
2518+338384941+338632456+338920503+339098040+339166319+339227743+339341769
2508+339446140+339474721+339483751+339574859+339743724+339836233+339627581
2498+339036973+338328882+337957863+338136771+338674300+339221276+339523151
2488+339493080+339243091+339034857+339052918+339236684+339389305+339382302
2478+339224614+339021148+338891087+338873325+338927298+339030357+339162265
2468+339211351+339095030+338956803+338998736+339130317+339037391+338630996
2458+338229757+338219534+338614664+339034798+339126025+338925897+338733667
2448+338712179+338756139+338724756+338668786+338750685+338976056+339122002
2438+339009912+338769282+338707292+338957012+339373420+339757731+340050547
2428+340269033+340393103+340432384+340500394+340662493+340809601+340847094
2418+340877135+341012024+341168818+341229735+341238259+341299743+341475283
2408+341847047+342465580+343172837+343679549+343866444+343893982+344026815
2398+344401946+344910149+345300003+345454204+345518310+345715339+346088145
2388+346441908+346501276+346134638+345381484+344209269+342429906+340060471
2378+337544226+335290874+333154619+330708977+327924356+325218653+322948551
2368+321201941+319995512+319361064+319286288+319771810+320894046+322736502
2358+325322427+328576835+332392822+336797838+341636697+345957310+348349902
2348+347974264+345259620+342003215+340230259+340328669+341105814+341568209
2338+341722112+341926591+342174017+342220003+342157297+342494936+343541650
2328+344907436+345867126+346160179+346222766+346661229+347723471+349283215
2318+350996058+352366285+353027705+353146440+353306274+353881176+354725110
2308+355519929+356166030+356736759+357291722+357889095+358614741+359442641
2298+360186585+360716395+361129227+361625091+362290266+363032840+363661059
2288+364026952+364123514+364027190+363790822+363446835+363035820+362596612
2278+362228574+362118243+362323675+362581442+362520882+362049636+361395905
2268+360821034+360405459+360089576+359843611+359746185+359882475+360204676
2258+360544133+360750639+360805208+360834087+361039609+361571922+362392878
2248+363243250+363809240+363993572+363980787+363981204+364002722+363940463
2238+363755237+363477800+363149072+362797723+362389242+361835262+361146841
2228+360514121+360169180+360234598+360692880+361402045+362159878+362838852
2218+363460425+364120623+364875952+365735533+366738377+367944597+369320397
2208+370742750+372187365+373810143+375743618+377843365+379738782+381206822
2198+382428332+383779753+385474297+387490297+389660617+391731872+393519610
2188+395062367+396522510+397999253+399470899+400804230+401875591+402737765
2178+403491217+404029073+404174303+403994561+403756762+403640769+403594514
2168+403406755+402922156+402225360+401570437+401101694+400657539+399908468
2158+398712649+397229022+395696279+394292017+393110861+392087453+391117839
2148+390285528+389736466+389629890+390527261+393223129+397792777+403390780
2138+409184292+414940311+420746698+426700550+432790572+438854905+444740508
2128+450372010+455621913+460413147+464888378+469213730+473346256+477035819
2118+479953362+482098797+484087349+486551349+489422071+492378478+495775047
2108+500537550+507256835+515741953+525286273+534995522+543884174+551034114
2098+555891600+558445545+559159031+558446678+556160245+552102972+546786339
2088+540808436+533937036+525639737+515926673+505241133+494172743+483309309
2078+472964926+463319156+454731039+447434617+441257451+435956763+431432744
2068+427629035+424560360+422169557+420115200+418149269+416440271+415147711
2058+414166295+413430666+412961952+412737118+412833978+413388107+414378076
2048+415818578+417976322+421159709+425544190+431224092+438288050+446983280
2038+457684644+470390952+484455745+498967524+513045310+525869817+536909000
2028+545934030+552759057+557401782+560260434+561808347+562366201+562133260
2018+561181290+559522450+557202459+554214461+550498910+546107663+541243740
2008+536150809+530901413+525280550+519180276+513016580+507253855+501739211
1998+496096086+490550804+485791579+482091853+478992988+475954563+473034546
1988+470624877+468806441+467381675+466330639+465852389+466046854+466772559
1978+467762231+468795414+469778857+470742331+471897022+473612815+476014557
1968+478602388+480642112+481986112+483158476+484656379+486535941+488643347
1958+490916935+493351340+495846812+498209065+500261574+502040103+503959183
1948+506600750+510166749+514173357+517664729+519827539+520768124+521530249
1938+523015873+525242522+527762611+530346420+533024108+535794007+538559316
1928+541293272+544134460+547087231+549682722+551489862+552921603+554694231
1918+556669997+558128143+559024739+560059919+561687525+563663351+565367432
1908+566459357+567253550+568265126+569467562+570403855+570984956+571659400
1898+572680334+573647027+574105995+574438001+575535411+577462121+579080607
1888+579436814+578876039+578228120+577869946+577805512+577758006+577291766
1878+576443213+575808586+575710832+576058812+577146804+579480565+582328428
1868+583469469+581682655+578314608+575302827+573316571+571941516+570622729
1858+569163272+567590146+565868779+564002927+562347187+561317967+560929275
1848+561205192+562468307+564204456+564377433+561837316+558167781+555298101
1838+553580370+552283936+550928074+550156591+550914603+552606346+553099825
1828+551639593+549728619+548127657+545890995+542681977+539703397+537932259
1818+536999124+536076778+535242411+535334384+536567337+537886362+537965758
1808+536649296+535091190+534771582+536427859+539399346+541960564+542845536
1798+542479078+542378343+543795361+546783001+549561960+549773562+547728415
1788+545986782+546047163+547462452+549323416+551474067+553871666+555973856
1778+557640743+559845933+563910001+570004136+575776100+577830725+576058634
1768+573140911+571085452+570781580+572464202+575129373+576993318+577877337
1758+579018021+580468716+581580192+583283021+587193902+592735190+596870547
1748+597915980+597455641+597579980+598934053+601095492+603181649+604311305
1738+604991233+607389427+612670952+617792970+618040336+614503961+610953281
1728+608788682+608170090+609211827+611521447+614463310+618402860+624270910
1718+631020832+634556968+632678778+628319659+624902437+623828989+625388764
1708+629316393+634251308+638042380+640525096+644287378+650863787+657303162
1698+659906640+659238216+656431004+652183230+648587189+647283066+648332194
1688+651808366+658951392+669554257+677359209+676290768+670823988+667116603
1678+666928009+669483326+672846843+675590515+678655882+683281679+687353019
1668+687215746+684194070+682789093+684447098+686747956+687232614+686816921
1658+687926728+692307365+701030788+711998444+716489590+712808968+710059216
1648+711471525+712781490+709129360+702813668+698629613+698278473+701718107
1638+708308523+715233092+716867374+712097390+706960589+705464951+707137262
1628+709725124+712115748+715166929+719215261+722788234+725442974+729413699
1618+736481322+744267558+747565031+745973069+743326436+741623666+740542291
1608+739538165+738731873+738164780+737702236+737927249+739920599+743969527
1598+749199194+754459320+759048459+762609451+764882651+765817872+765667903
1588+764873889+764005010+763742564+764528829+766096114+767915712+770284819
1578+774041617+778469045+780699329+780276661+780341096+782493117+784906094
1568+785499414+785350697+786218622+788698776+794267184+806064081+823771049
1558+834989468+831596982+823691892+818594551+816867819+816963368+817341212
1548+817899364+820182161+825408967+832850142+840444088+845251326+843287124
1538+835778594+829616686+828309165+830565795+832500135+832070315+831095933
1528+831763462+834608584+838993095+843935520+848231218+850784567+851978598
1518+852770347+852747101+851674726+851331812+853861677+859895789+869157158
1508+880802476+890394123+891636315+887532430+884728913+884843119+886746761
1498+888927513+889773741+888955647+889107404+893295990+901292933+908259166
1488+908994051+904872403+901300264+901407794+904890881+909510002+913319969
1478+916249314+919304429+922904999+926453176+928807620+929035971+927420823
1468+925436056+924178009+923117972+921274651+919908359+921728195+927878777
1458+935620725+937676781+931250698+922829419+917123260+914051813+912088744
1448+910825570+910981797+912496510+914029103+914516742+914398781+914987690
1438+916756980+918290528+917854449+916451379+916578102+918938208+921580073
1428+922144723+920593830+918420946+916883703+917053104+919677981+924007535
1418+927521975+928380125+927112421+925284418+924524976+925393498+926744531
1408+927331712+927461772+927933853+928405278+928367548+928590475+930220346
1398+933037394+935428197+935787324+933912055+931374798+929593289+927993638
1388+924909853+920285368+916919645+917965495+924100222+933183786+941736498
1378+947207748+949139346+948709407+948143923+949691299+953765083+958548777
1368+962028824+964097754+965876104+967214442+966904847+965594406+966019636
1358+969731253+975553167+980859547+983764633+984525327+984314261+983264000
1348+981313150+980357544+983086195+989650146+997785436+1005277455+1010241338
1338+1011890164+1012873428+1016657585+1022559550+1026717677+1027546441
1330+1027156498+1027654567+1029210526+1031398431+1034367772+1038389401
1321+1043181022+1048192947+1052996371+1056939319+1059405346+1061122123
1312+1064039130+1068936254+1073363920+1073741823+1070244729+1066132856
1304+1063033454+1060616305+1059643055+1061427187+1064558419+1065170097
1295+1061280914+1054820558+1048718912+1043999295+1039993999+1036526112
1287+1034148660+1032336155+1029349766+1023970667+1016615265+1009555390
1278+1005636523+1005294026+1005206762+1001825661+995909331+991045706+988668314
1268+986751677+983079877+978120643+974082146+972318757+971769426+969283074
1258+962458823+952856387+944838820+940763188+938959088+936173990+930428848
1248+921697855+911579826+902020605+893472185+884781963+874963872+864643599
1238+855073828+846511699+838685348+832022630+827284177+824254634+821760831
1228+818994031+816261327+814380990+813497507+812864609+812034772+811366944
1218+811048409+810826734+810738159+810856835+810906308+811297384+813215749
1208+816764701+820630876+823932939+826820978+829586585+832644143+836567005
1198+841202994+845593883+848980408+851152397+852341600+853474773+855661187
1188+858993292+862533839+865654937+868713867+872136990+875777496+879592888
1178+884239070+890175606+896402365+901305212+904942500+909495696+917083384
1168+927004235+935655893+940204261+941554460+942498741+944369243+946541411
1158+948151076+949233583+950040889+950776251+952562588+956999732+963845203
1148+969940232+972080750+970314082+967096958+964896119+965349067+967893952
1138+969616332+969086314+968746201+971499291+976614336+980441767+980586908
1128+977061561+971601993+968262795+970570866+977496865+984114819+987031766
1118+988005731+990747913+996382604+1003275880+1009080567+1011628731+1009888946
1108+1005170641+1000591814+998724352+1000075028+1003549591+1006881219
1100+1007679942+1005461519+1001908872+999046166+997799384+998220322+999633644
1090+1000969717+1001872631+1002333744+1001340825+998659799+997104316+999197208
1080+1002459633+1001447043+994839818+986865465+981559025+978806710+975966715
1070+971914269+967986342+965325641+963989211+964515176+967195427+970358191
1060+971659334+969963121+965516381+959723853+954474993+950834963+948619997
1050+947750641+948525104+950401745+953178141+957506444+961898882+962747615
1040+959437505+955473635+952426567+948013445+942184021+939038901+941046020
1030+945374382+947066362+945407403+944666618+947859482+953372636+957672745
1020+959414437+959625145+959094114+958069126+957104817+957092002+958463421
1010+959153183+954866963+945195921+936036776+931224174+927521736+920618089
1000+911290438+902839832+896284882+890011987+882656347+875244319+869956476
990+866992679+864098501+859957719+856106564+854202743+853593449+852553560
980+850135873+846247226+841452267+836947948+833672350+831646694+830257393
970+828730462+826520741+823635266+820452952+817074891+813330670+809635981
960+807097473+806542719+807877003+810476547+813882146+817658555+820901369
950+822901216+824288729+826555849+830730785+837144052+845450828+854058914
940+860838699+865394935+869270886+873454465+877356225+880616445+884157469
930+888718414+893595451+897497987+900157018+902454419+904894278+906606525
920+906462755+904697280+902498587+900637503+899793659+901005154+903801101
910+905148558+903149844+900353599+900460354+903568399+906323098+906099038
900+904121842+903757529+906262419+909536586+911340150+912223334+913941900
890+916795068+919906272+922754196+925376391+927702104+929846377+931936289
880+933261513+932957879+931652265+931349168+932841706+934459418+934500546
870+933818950+934445470+936527991+938192493+938237913+937706762+938234992
860+939945988+941317407+941354005+941170358+942098307+943500960+944266124
850+945184178+947912055+952909079+959328008+966420428+973105380+975943468
840+972671924+966569741+962406488+961573254+963326331+966936915+970398365
830+971421028+971725795+975166323+981851692+988037084+990601699+989620522
820+986699462+982933603+980105529+980422097+985200963+993759933+1002971769
810+1009614043+1012167571+1009428667+1001112176+991017512+985429791+986576196
800+990258964+991442206+990748569+992004233+995604863+997931650+996767541
790+993100569+987490198+978877284+968449243+960434597+956980300+955937311
780+954574774+952767216+951367723+949240855+944118837+936270134+929402907
770+927472680+930452989+933373334+931693036+927059907+924315937+925878334
760+930681638+936685887+942946622+949593366+955908760+958536200+954605471
750+946228002+939966075+940565415+947049434+955399425+963320490+971076922
740+977559511+978749250+973385886+967640507+968618823+976948786+987187279
730+993133829+992938440+988794679+983021701+976672928+970605437+966099926
720+964327417+966155121+972514682+982427666+991035215+993438179+992265785
710+994137240+996804258+992795505+984117442+977503481+974251785+973491330
700+976347777+981637467+984163935+981670549+976975787+973245991+971157569
690+968327647+960746337+948920830+937621824+930404887+928721608+932245645
680+938144331+941760996+940426175+936455808+934154532+933183846+928836708
670+917968178+903871436+897141482+902696897+914564665+926644691+934637640
660+934573504+927176795+919399322+916503237+917470883+919944599+924763997
650+931768259+934802154+928580282+918687863+915570758+921717168+930326862
640+934797504+934600804+931760331+925596218+916411443+909477397+910429129
630+919161314+928753379+934324172+937575450+938910986+934099039+920717751
620+904821261+896044430+898014951+908840863+922163916+927601132+922253444
610+911201387+895553275+878607955+872923255+886037567+907179460+915307358
600+907688616
##END=
