##TITLE=<SNM>
##JCAMP-DX=4.24
##DATA TYPE=INFRARED SPECTRUM
##DATE=29/4/2025
##SAMPLING PROCEDURE=Instrument type and / or accessory
##ORIGIN=Admin
##XUNITS=1/CM
##YUNITS=ABSORBANCE
##RESOLUTION=4
##FIRSTX=4497.3318
##LASTX=599.83466
##DELTAX=-1.4281778
##MAXY=2.1092923
##MINY=0.36994073
##XFACTOR=1
##YFACTOR=1.9644315e-09
##NPOINTS=2730
##FIRSTY=0.39049578
##XYDATA=(X++(Y..Y))
4497+198783096+198321610+197995071+197275360+196380349+196058876+196477746
4487+196703672+195865765+194618757+194443578+195623894+197000037+197662174
4477+197784437+197760133+197607725+197416116+197520538+198063583+198842323
4467+199492172+199577918+198849393+197662720+196811781+196847979+197789246
4457+199228470+200400200+200446865+199084179+197027026+195573800+195580263
4447+196674453+197661416+197629708+196511866+194950804+193949490+194222658
4437+195475522+196680021+197242120+197389491+197408591+197262010+197059614
4427+197113546+197273782+196854335+195553531+193962658+192791809+192036477
4417+191236542+190284063+189712816+190113102+191340903+192571648+193225668
4407+193480768+193800632+194376416+195020515+195346114+195142140+194605058
4397+194029942+193469465+192945506+192681576+192828189+193147462+193207448
4387+192904150+192625793+192706169+192933566+192876250+192427584+191771804
4377+191088003+190434681+189720113+188891020+188319484+188659511+190081258
4367+191892732+193079890+193175740+192618951+192236703+192352973+192591931
4357+192610880+192696656+193370414+194547954+195429342+195386575+194752504
4347+194383592+194550473+194685039+194231306+193353893+192628554+192294838
4337+192123937+191974048+192116564+192795844+193680873+193997764+193212060
4327+191593955+190051568+189329385+189450343+190027644+190859225+191858734
4317+192723115+193205991+193467387+193735625+194001193+194356512+195059170
4307+195878220+196046330+195287903+194341235+194107086+194635172+195194617
4297+195158146+194591267+193991422+193765178+194088001+194902515+195868678
4287+196621552+197125774+197515547+197761362+197725316+197275026+196252973
4277+194755796+193484955+193330090+194479199+196164072+197352398+197650538
4267+197480608+197407226+197488178+197416753+197104505+196850391+196908298
4257+197132025+197259173+197325166+197414614+197313500+197009276+197111741
4247+197972693+198801377+198585555+197574516+196930038+197199900+197932202
4237+198548341+199011859+199614222+200280015+200363865+199552036+198686518
4227+198895225+200045487+200825199+200343733+199045963+198098248+198309550
4217+199570029+201137873+202323635+202764215+202326563+201247316+200198532
4207+199736652+199788385+199930491+199949819+199938699+200048825+200254756
4197+200325665+200113241+199813447+199747636+200009062+200533037+201248803
4187+201933787+202271356+202283356+202358786+202672082+202893517+202641497
4177+202046371+201713960+202092263+202959026+203630993+203606720+202949392
4167+202217833+202068126+202674236+203526147+203996522+203983642+203836878
4157+203805778+203735688+203330001+202630058+202043610+201855399+201952053
4147+202047281+201965965+201788525+201828622+202288287+202960998+203478586
4137+203715010+203754834+203641370+203397664+203250642+203580019+204413466
4127+205128595+205088604+204442306+203838653+203607326+203666554+203918604
4117+204307254+204760198+205343901+206177500+207019322+207310362+206879613
4107+206313311+206300628+206871238+207585685+208113528+208283868+207999943
4097+207465348+207073604+206832476+206344851+205495732+204691080+204334516
4087+204501412+205193542+206451837+207977353+209024848+209063261+208354762
4077+207582028+207092734+206812238+206752298+207154708+208020257+208839974
4067+209027761+208530912+207912452+207801340+208217707+208548070+208329866
4057+207818999+207511180+207503852+207685252+208041208+208402611+208425853
4047+208146707+208002643+208085704+207974653+207500636+207068855+207036693
4037+207268566+207495872+207766856+208325694+209216639+210114427+210538880
4027+210299801+209746076+209477519+209771608+210292549+210422974+209970560
4017+209391485+209177225+209329344+209614741+209946924+210250616+210286860
4007+209941387+209505479+209419323+209796549+210298223+210459278+210129097
3997+209620688+209464351+209910726+210563457+210741306+210381967+210234975
3987+210927727+212146137+212899437+212509725+211346081+210503683+210692607
3977+211609040+212439817+212678820+212330070+211706437+211242797+211212061
3967+211506712+211847042+212131907+212447357+212839405+213189809+213280106
3957+212981329+212330541+211429916+210562820+210391949+211404292+212897965
3947+213296597+212060118+210463207+209983698+210674402+211564467+212101186
3937+212370486+212439165+212410552+212697283+213400943+213824501+213468636
3927+212926259+212984940+213468864+213684595+213644179+214010179+215035903
3917+216135798+216543821+216201549+215694308+215410353+215137275+214651228
3907+214436392+215287832+217140343+218805903+219445238+219539798+219693844
3897+219645434+218961208+217900636+217282055+217573474+218126335+218124833
3887+217962883+218373743+218879391+218711706+218533599+219042509+219282059
3878+218330035+217142043+217139509+218553458+220697889+222626043+223318765
3868+222755194+222086897+221966212+221816611+221002371+219800845+218674765
3858+217862269+218125394+220983801+226189521+229425594+228502319+225806257
3848+223710342+222969059+223179753+223630846+224141365+225237270+227146642
3838+228719173+228556662+227119865+225878880+225277048+224714220+223963485
3828+223547740+223687495+224114057+225077398+227000045+228787260+229056454
3818+228771756+229327316+229868692+228892744+226804430+225062530+224822071
3808+226288071+228222794+229336783+230212694+231912009+233607061+233914379
3798+233400781+233085832+232866050+232451079+232306075+232977466+234284217
3788+235604652+236554567+237107291+237545580+238552841+240721212+243615893
3778+246000693+247396573+248557516+250558885+254027195+258624362+263136753
3768+266948701+270836807+275461767+280339020+285011404+290045889+296023310
3758+302273141+307917377+313499291+320418678+329350887+338896701+346334995
3748+351308887+356078183+362128820+367746719+370446999+371116858+372269851
3738+375703375+381729282+388472776+393343536+395958312+397848433+400104598
3728+402504402+404036821+403995101+402882250+401758961+401267452+402015624
3718+404653764+408834730+413359531+417495076+420877109+422718985+423168410
3708+423885026+426133363+430180733+435657057+441129103+444414285+444786793
3698+443751920+443325222+444494539+447149458+450976668+455518187+458984723
3688+459434845+457963413+456916071+456622573+455992310+454744923+454274199
3678+456425351+461263735+465711286+467004034+466233744+465415513+464845934
3668+464148586+463453998+462790572+462250121+462562279+464286945+466931244
3658+469383934+470707328+470836008+471026343+473126854+477699747+482167778
3648+482761873+479958340+477536416+478003075+480929979+483694220+484463297
3638+484545675+486339824+490049338+493819110+496240032+497291501+497203540
3628+496189118+495339150+496025090+498872528+503445998+508289450+511418583
3618+511964677+511491707+512252440+514664320+517302187+519175012+520805405
3608+522644733+524171843+525192242+526596466+529353880+533074286+536052226
3598+537195509+536969826+536112242+534756261+533409929+533840724+537649485
3588+543376464+546954142+547367581+547395192+548395930+548908587+547711112
3578+545613514+544171241+544376231+546182911+548664941+551081858+553422799
3568+555305516+555756154+555232149+555456315+556546501+556474408+553897832
3558+550487824+549250783+551144848+554073573+555366564+554919991+554685933
3548+555711491+557191691+558170219+558987206+560395132+562164006+563315967
3538+563144535+561875333+561111080+562728426+566300824+568734065+567785212
3528+564767283+562178995+560741879+559712984+558255055+556270389+554551276
3518+553740540+553448832+553144139+553296455+554772287+557463676+560132007
3508+561760397+562369360+562027588+560579247+559192620+559893155+562323179
3498+563451110+561919692+559906930+559322727+559814205+561232751+564379755
3488+568564697+571423028+572047708+572054261+572754250+573315940+572577296
3478+570895018+569408445+568613972+568255755+568235062+568613122+569327250
3468+570266576+570908065+570468167+569021221+567610686+566846372+566394642
3458+565729789+564879487+564565084+565170345+565556355+564226529+561775386
3448+560248762+560225642+560510735+560333659+560194693+560956822+562839781
3438+564903821+565517639+564057828+561804150+560518381+561057375+563032270
3428+565071248+565857893+565188307+563683590+561641882+558908984+555754455
3418+553136128+551912378+552195104+553540890+555227658+556512032+557062860
3408+557020988+556707009+556711803+557809696+559893701+561805061+562785044
3398+562805434+561611722+559132240+556590860+555596313+556300124+557635594
3388+559065427+560786603+562231668+562206788+561178621+561416138+563972870
3378+567228195+569093739+569258010+568596131+567868228+567617907+568227294
3368+569621870+571191337+572191043+572467215+573022776+575425493+579895466
3358+584305908+585720146+583264998+579081331+576227491+576365061+578986725
3348+581742925+582389997+581011078+579188438+577640332+576350011+575831771
3338+576310385+576635165+575723936+574219947+573410000+573667785+574470632
3328+575012782+574746319+573701100+572324487+571093272+570321798+570102183
3318+570438007+571310945+572311743+572779676+572758558+573084977+574122671
3308+574907799+573834908+570710053+567850144+568026249+571321989+574853487
3298+576292544+576607614+577886345+579926475+580777566+579886970+578841873
3288+579156701+580803054+582658948+583716971+584032467+584369080+585100563
3278+586072780+587139238+588072556+588347271+587848025+587201985+586922718
3268+586764515+585964155+584039021+581704209+580587869+581404734+582967344
3258+583626188+583113288+582229792+581281364+580051605+578802125+578072037
3248+577792345+577506585+577339886+577802358+578775060+579627911+580277471
3238+581191248+582266688+582592742+581360678+578637611+575385805+572830165
3228+571672985+571853641+572854621+573998997+574691825+574568030+573451265
3218+571672256+570348135+570569449+571955225+572747514+571919604+570349712
3208+569364207+569257646+569654033+570134709+570036887+568573860+565973374
3198+563855872+563636500+565114880+566977085+568084991+568096824+567386459
3188+566374798+564849327+562547770+560235108+558950613+558355547+557237993
3178+555426944+553781683+552632574+551663877+550764906+549928258+549032928
3168+548261151+547996023+548148218+548307513+548443809+548745833+549031411
3158+549084631+549203571+549620773+549729215+548703840+546759529+544993932
3148+544118142+543922255+543627331+542531927+540746729+539277876+538892048
3138+539219559+539448580+539384316+539185515+538609383+537346127+535900637
3128+535183354+535142392+534852688+534094139+533484145+532972277+531918926
3118+530738261+530509483+530986580+530866304+529849425+528755962+527871252
3108+526662551+525049877+523903923+524046652+525265973+526497976+526834165
3098+526165004+524813514+522958772+520825188+519142000+518651432+519074216
3088+519350935+519028278+518536254+518184409+517858597+517531208+517280947
3078+517072741+516959808+517067644+517243384+517168682+516589212+515231229
3068+513240677+511701552+511547840+512130040+512105099+511364938+510793418
3058+510562880+510097313+509365648+508801470+508184315+506895572+505217724
3048+504314869+504828619+506123916+506974431+506702264+505603855+504533695
3038+504210220+504783136+505740242+506152073+505398835+503767622+502064166
3028+500754183+499881640+499448509+499258781+498901566+498416489+498220571
3018+498033301+496947272+494940578+493198587+492640842+493060501+493748747
3008+494273177+494650054+495080879+495466282+495146873+493414440+490579927
2998+488230430+487761586+488712776+489212780+488219052+486529309+485378622
2988+485032208+484982963+484722508+484106021+483398053+483038288+483121941
2978+483146397+482583402+481632001+480909589+480462865+479760996+478708859
2968+477812922+477270378+476770920+476232806+476007638+476247097+476569935
2958+476496416+476038162+475690656+475691354+475612131+475009267+473945085
2948+472588163+471078409+469957761+469774738+470225558+470581075+470729295
2938+470917476+470863224+470092388+468831134+467743164+467035226+466399198
2928+465662193+465083724+464967089+465176358+465208793+464783278+464134628
2918+463641390+463455121+463462919+463258748+462436785+461286826+460598762
2908+460436614+459992044+458986665+458116913+457771834+457509164+457052397
2898+456751860+456857844+457071846+457018141+456761418+456667206+456884303
2888+457081434+456732957+455651631+454166728+452772516+451716617+450986711
2878+450524543+450259597+450020139+449631185+449091160+448593613+448446576
2868+448798755+449232189+449057146+448325572+447833972+447847505+447778173
2858+447284207+446631218+445905924+444939291+443941133+443269423+442771573
2848+442034689+441061623+440300010+440149362+440543838+440976089+441020054
2838+440748615+440474810+440265329+439956661+439528202+439188312+439043096
2828+438842505+438210968+437129218+435963420+435012170+434336789+434021172
2818+434172214+434534436+434510891+433817730+432858318+432241133+432138273
2808+432243833+432165308+431775445+431292947+431037286+431023390+430852959
2798+430179580+429179571+428294072+427601123+426758224+425520304+424052149
2788+422749570+421870352+421367343+421104734+421145908+421587686+422170524
2778+422422180+422178595+421674070+421160442+420639562+419903072+418827177
2768+417681102+416859109+416346573+415895358+415518177+415315433+415145791
2758+414845345+414398135+413752550+412911715+412139088+411689481+411503879
2748+411352746+411067441+410602178+409999193+409270228+408421018+407707922
2738+407567469+408031852+408490258+408295068+407420129+406326211+405375871
2728+404625121+404052356+403632029+403185821+402530041+401829051+401459487
2718+401468286+401465858+401119869+400485207+399757608+398972146+398139867
2708+397478383+397163888+396969124+396554380+396020453+395711724+395618726
2698+395444502+395064621+394536914+393912386+393300329+392852725+392551156
2688+392259388+391980152+391818763+391764208+391663200+391342698+390726362
2678+389912015+389127980+388559069+388229312+388033637+387809228+387409049
2668+386810888+386177955+385747039+385621332+385724010+385918532+386026094
2658+385826292+385251707+384476926+383696107+382987410+382438858+382169938
2648+382177705+382295189+382273920+381917159+381270057+380603869+380121190
2638+379800506+379532466+379254473+378982427+378800831+378764663+378803865
2628+378764269+378501356+377976289+377368843+376983501+376885648+376768589
2618+376344500+375736629+375295518+375128092+375024808+374830559+374667137
2608+374726455+374978445+375143020+374954354+374496767+374190313+374314867
2598+374666591+374823853+374611520+374169681+373715948+373384492+373220585
2588+373219523+373322898+373389681+373245223+372819586+372231105+371703580
2578+371371487+371159761+370896393+370502707+370035987+369639540+369476937
2568+369612687+369958191+370368353+370679297+370691373+370347417+369900844
2558+369688390+369761120+369861703+369737817+369420653+369156769+369075908
2548+369066836+369029849+369049723+369225099+369505762+369764063+369909583
2538+369915985+369773196+369444957+368987856+368665624+368699638+368948320
2528+369101911+369112258+369181498+369444805+369827569+370112722+370121673
2518+369915894+369755112+369805237+370009104+370248897+370450337+370525797
2508+370381703+370022121+369593450+369297799+369203465+369145482+368917796
2498+368558123+368327646+368399859+368665048+368891004+369012736+369150458
2488+369374624+369620910+369847291+370079103+370242130+370137056+369723830
2478+369336667+369403146+369919505+370419449+370540816+370355973+370052160
2468+369661871+369285692+369196032+369452633+369718611+369733023+369725165
2458+370046971+370580231+370889415+370871301+370822723+370883711+370829490
2448+370455374+369877572+369437644+369445867+369915530+370457710+370591760
2438+370249048+369855726+369877815+370335341+370786131+370822086+370538359
2428+370385648+370596676+370947611+371108119+371057145+371072407+371390512
2418+371940823+372433758+372699493+372844072+373035894+373278023+373468782
2408+373561750+373604380+373701384+373933590+374267594+374610458+374912816
2398+375096930+375062765+374975290+375265510+376078947+377000735+377528320
2388+377499101+376906614+375658742+373641913+370762707+366904609+362025080
2378+356272827+349955455+343458428+337128919+331100251+325345843+320007544
2368+315385012+311549155+308455704+306438239+305969759+306982148+309044944
2358+312119128+316612464+322954656+331384676+341197530+349906938+354394267
2348+353130434+347285577+340280232+335412719+333299373+332622445+332474437
2338+332894764+334078160+335633578+336714964+337138113+337893748+339887062
2328+342642473+344895665+346112012+346946142+348362898+350641789+353358515
2318+356094265+358743024+361212615+363315644+365030570+366587172+368267660
2308+370239885+372469228+374693201+376616121+378201699+379640786+380987847
2298+382047265+382748437+383388682+384278035+385326712+386183174+386652109
2288+386860345+387093462+387501683+387925772+388040161+387692806+387081113
2278+386587693+386429702+386452034+386307819+385811364+385054242+384280553
2268+383721321+383455101+383403004+383501281+383813894+384428409+385313483
2258+386297836+387171380+387856501+388450444+389037500+389530708+389750566
2248+389591847+389111322+388511159+388035549+387842240+387903501+387989217
2238+387848066+387475831+387058781+386615455+385966320+385133525+384458478
2228+384228547+384432809+384906477+385505153+386155927+386886379+387759013
2218+388737813+389723288+390691712+391708925+392886465+394338903+396041207
2208+397806986+399566514+401477176+403609546+405796653+407936791+410181790
2198+412697834+415419930+418128554+420679522+423073379+425326085+427428053
2188+429484143+431685056+433976479+435921032+437135134+437775713+438339921
2178+439080720+439919522+440761632+441463380+441721074+441467355+441084834
2168+440879966+440715330+440343884+439697177+438771262+437587441+436308013
2158+435139637+434063621+432821240+431239970+429401401+427439249+425441051
2148+423539401+421861492+420689747+420863819+423322274+427965014+433667507
2138+439512243+445302697+451042844+456703859+462274122+467573856+472352315
2128+476700132+481037906+485666688+490405734+494677756+498106304+500907531
2118+503386922+505369767+506579288+507314897+508361573+510362623+513545916
2108+518001629+523982630+531838642+541596789+552406162+562492851+570134709
2098+574622888+575971647+574452184+570773468+565734826+559611824+552463205
2088+544506580+535880065+526617463+516756942+506293345+495564166+485461729
2078+476668212+469171176+462769272+457396778+452979235+449434418+446570716
2068+443969867+441436983+439277123+437738969+436656187+435747112+434813066
2058+433815393+433026230+432752455+432935629+433378955+434093356+435150560
2048+436497165+438070637+440051328+443018374+447651253+454199163+462540645
2038+472607430+484305519+497279304+511059334+525060679+538446750+550494803
2028+560747098+568496549+573005481+574518997+574176497+572888422+570940045
2018+568475067+565732702+562743840+559238012+555011684+550015157+544143569
2008+537504876+530713320+524373374+518509553+512853574+507382894+502323559
1998+497872944+494071191+490837318+488101113+485878384+484184303+482964830
1988+482155338+481724331+481661918+481973924+482650852+483606926+484668409
1978+485700429+486776202+488052596+489434276+490685608+491926927+493539691
1968+495495471+497291077+498679098+499989384+501604152+503530773+505596786
1958+507807893+510322996+513117852+515833395+518089256+519973369+522061319
1948+524799071+527996686+531107887+533807712+536101622+538138597+540096805
1938+542077223+544109222+546301426+548763795+551390193+553974476+556382533
1928+558466174+560209196+561977828+564110198+566393610+568459774+570340367
1918+572112397+573489738+574288277+574816651+575525682+576603670+577891624
1908+579060577+579936306+580683142+581667435+583126578+584888595+586416250
1898+587221889+587260302+586907486+586676463+586912098+587550917+588148410
1888+588315048+588157998+588133846+588541217+589214019+589705376+589779896
1878+589537282+589070502+588420213+587888441+587816652+587979406+587668462
1868+586509400+584846055+583178159+581678115+580243306+578717228+577115902
1858+575604025+574183719+572641256+570914983+569244356+567824232+566606793
1848+565602778+565039935+564912378+564578070+563384479+561563842+559842605
1838+558593549+557574425+556380894+555151318+554422141+554187415+553619718
1828+552147224+550134098+548060530+545990179+543956602+542243618+541234931
1818+541123940+541635748+542218009+542655479+543067159+543289444+542983779
1808+542396541+542198226+542625623+543389451+544177127+544803202+545160327
1798+545413257+546016880+547332384+549263041+551143513+552256698+552743140
1788+553353923+554516383+556142649+558029432+560129336+562345147+564375083
1778+566054873+567692912+569865819+572840178+575894154+577560290+577372777
1768+576342001+575677088+576069470+577646583+579859420+581706454+582898103
1758+584017963+585266473+586497445+588312196+591561453+595641289+598542403
1748+599477480+599735205+600614453+602372465+604753093+607440417+609873961
1738+611579117+612981096+614871398+616891200+617767293+617702118+617816386
1728+618378258+619167209+620164548+621328647+622633350+624688166+628460517
1718+633837593+638564805+640384289+639769805+638410729+637475105+637669840
1708+639422511+642537535+645995301+649040114+652191306+656087331+659908654
1698+662506227+663977204+664308538+663622810+663362598+664755414+667414580
1688+670338026+673796035+678666279+683708926+686593411+687958920+689507633
1678+691852154+694992847+698246109+700490501+701931804+703978428+706890464
1668+709201123+710372079+711650931+713827782+716104884+717376332+718042398
1658+719325376+721825733+725362085+728973867+731203453+732530002+734539427
1648+737134694+738814909+738764116+738193263+738049017+738120382+738305467
1638+738969774+740134843+740835560+740190612+738782867+737573013+736955676
1628+736947302+737447034+738241992+738858358+738938764+739041077+740385650
1618+743542181+747067368+748138013+746337462+743834981+742280503+741705463
1608+741256038+740695501+740752423+741867307+743487141+744965521+746548642
1598+748881087+751850773+754370003+755318856+754729494+753787316+753650535
1588+754558183+755805055+756241372+755198459+753409074+752586504+753803822
1578+756639579+759215427+759127739+756521792+754045405+753407739+754104450
1568+754445190+754055296+753973070+754758197+756308185+758930941+763157208
1558+767356835+768991172+768949847+769051917+769842749+771065347+772597129
1548+774530638+776579568+778163902+779377094+781775745+787059246+793192442
1538+795454797+794072905+792541911+792877190+794920173+797849261+801849906
1528+807198399+812651451+816463308+818924342+821586543+824620311+827232933
1518+829802288+833324743+838023313+843210873+847719683+850715646+853026851
1508+856928763+863130047+868702464+871974355+874218141+875820559+876724021
1498+878457152+882464532+886855191+889009408+889664672+891265634+894873653
1488+899433439+903207914+905403213+906718172+908690822+912310675+917219514
1478+922111119+925679451+927620607+928812984+929867973+930104579+929340994
1468+928839563+929549747+931000516+932170076+933017101+933998845+934485347
1458+932980630+929815724+927894958+928382250+930123331+932019762+932943431
1448+931275050+927330174+924551520+925303454+927958798+929495010+929479535
1438+930224369+933509369+937713668+939876623+939845371+939537400+940239998
1428+941808858+943912646+946699006+949779986+952168564+953922752+956253194
1418+959005086+960176285+959544505+959484064+961786228+965286776+966975972
1408+965770123+963564872+961882958+960045754+957491024+955515097+955793939
1398+958340537+961310891+962278374+960190545+956954761+955346335+955423828
1388+955161492+954014203+953735421+955473771+958805012+963453759+969222428
1378+974207122+975893708+974888419+974713711+977417480+982101849+987216467
1368+992184898+996956045+1001142200+1003875765+1004881661+1005596699+1007758683
1358+1011066560+1013206334+1012569092+1010283920+1009023334+1010805983
1350+1015696314+1021411823+1024854904+1025568425+1026872278+1031729779
1341+1038326236+1042130022+1042327608+1042441937+1044553978+1047247006
1332+1048207146+1046933999+1045147830+1045230846+1048371236+1053411394
1324+1058021426+1060403753+1059541557+1055896641+1051812860+1050181678
1315+1051990664+1055266621+1057611324+1059387905+1062519556+1067152284
1307+1071491544+1073741823+1073361821+1071632816+1070523272+1070808972
1298+1071682941+1071616431+1069187135+1063776805+1056241568+1048053009
1290+1040388395+1034337000+1030738690+1029623199+1029500254+1028138508
1281+1024312876+1017628002+1008161077+997656033+989291127+985314453+984972803
1271+984690198+981647691+976740734+972060916+967402034+961581480+955240988
1261+949673790+944245375+937321165+929019916+921200982+914990414+909640100
1251+903854440+897412545+891032304+885091415+879069694+871928600+862966443
1241+852578519+842253645+833655228+827517965+823389642+820218061+817125672
1231+813769794+810124575+806380077+803293028+801912410+802301151+803242236
1221+803721760+803680374+803087492+801960350+801463471+803026626+806186253
1211+809090583+811456404+815088151+820880668+827175283+831768384+834246774
1201+835717205+837332670+839568384+842404748+845809355+849984891+855046349
1191+860216675+863899336+865559525+866822660+869433461+873082018+876633177
1181+880420032+885505886+891653950+897865671+904193177+911492111+920050720
1171+929588524+939619687+948752002+954911899+957263520+956857484+955478383
1161+954667100+955491309+958398854+962555820+965445100+965678733+965018736
1151+965595718+967552165+970297989+973188604+974178297+971600993+967586027
1141+965709197+966515685+968323882+970308305+972146176+972935006+972768732
1131+973185327+974677664+975804321+976109439+977416752+980859954+984882263
1121+987101350+987895338+990219590+994707951+998251463+998676432+997550929
1111+997237375+997947134+998794341+999193520+998854479+998220818+997755069
1101+996592731+994063367+992277562+993614124+997285194+1000846912+1002211814
1091+1000461388+995955368+990303759+985744580+982969265+980668436+978359900
1081+977707792+979761940+982268730+981150873+975113799+966153949+956680227
1071+949462974+946856541+948290258+950949728+952701065+952326160+948888055
1061+943674340+940023842+939513976+940328232+940444806+940786881+942748911
1051+944630172+943863310+941516240+940874690+942358411+943244881+942330253
1041+942268902+946336116+954113846+960617699+960943511+956374684+952355895
1031+951255636+951137848+949786176+946909154+943233897+940031852+938760707
1021+940057461+943984678+950583501+958381378+964006347+965347399+962908212
1011+957441627+949544897+940144785+929549201+917656620+906131298+898254958
1001+894795310+892356244+887148840+879318559+872207745+868055452+866165757
991+864754493+862781479+859812217+855611195+850461926+844953167+839652310
981+835364510+832998507+832682951+833265091+832901534+830147094+824929920
971+818645985+812942066+808666099+806194749+805809649+806707527+806501020
961+803540012+799502290+797895442+800137164+804376114+808097491+810896231
951+814065931+818307065+822930569+827233237+831762983+837562358+844561270
941+851220657+855895741+858546109+860842993+864891456+871801467+880943127
931+890242928+897511095+902480072+906862175+911113929+913508575+913282103
921+911402541+908153224+903346577+898899299+897676701+899822665+902627655
911+903392939+901461008+898551217+897323400+898637084+900735836+901581647
901+901256807+901438615+903326308+906908719+911364068+915126285+916190255
891+914248918+912112664+912853857+916278429+919752095+921704416+922829677
881+924388038+926711745+929379043+931787039+933631465+934539295+933745186
871+931387193+928768624+926632673+925054165+925286463+929270055+936537372
861+943438948+946295458+944638364+940629831+936604852+934248984+934725959
851+938128260+942920586+947204745+950383912+952707497+954319443+956533493
841+961573895+968401739+972093017+970388893+967170100+966802234+968944678
831+971313290+973723775+976653106+978978208+979194304+977362440+974998925
821+973893143+974131510+973331514+970017508+966923116+968674331+977344113
811+990636670+1002216790+1005281203+999947577+993546704+992116568+995411459
801+999265673+999198556+993170646+984144711+977454740+975298096+976089717
791+977937419+979519448+978108973+970700444+958037603+945830499+939887485
781+940741975+943141839+941183389+935075983+930200156+929932541+932157211
771+933124572+932427375+932344603+934091266+936274125+936541499+934593789
761+933506152+936288872+941612363+945469369+946463795+947062684+950021811
751+955084423+959197454+959902965+958547044+958711862+961100439+963388160
741+965008965+966881669+968676455+970086263+971279550+970420267+965062185
731+957487444+953454455+955026895+959474597+962610739+961106083+954766561
721+946871773+941898548+942373946+947663455+955329465+961988790+963943721
711+960128041+954471880+952022012+953167359+954262582+953346316+952981728
701+956569722+962783203+964020365+955178969+943330323+939160311+943106279
691+946940164+946098357+943054212+939398555+935258156+932992585+933032272
681+931410496+923424439+910056695+900396188+901374473+909896671+915824878
671+910915796+895658113+880561789+878789699+889937385+904101545+914129007
661+917105975+916199843+917783753+921977554+921776994+913526173+901871595
651+894070866+894852353+904288997+916860387+925739893+929154391+930156949
641+928482318+919177600+903757892+890552355+881622361+874753555+872222006
631+874953508+877274120+875159712+872440407+873057320+876178473+878275646
621+875802051+869512957+865049052+866938809+872909372+878487008+883419089
611+888107463+891218118+894239689+898038377+896461689+885886495+873529804
601+868526966+873557355
##END=
