##TITLE=<SNM>
##JCAMP-DX=4.24
##DATA TYPE=INFRARED SPECTRUM
##DATE=29/4/2025
##SAMPLING PROCEDURE=Instrument type and / or accessory
##ORIGIN=Admin
##XUNITS=1/CM
##YUNITS=ABSORBANCE
##RESOLUTION=4
##FIRSTX=4497.3318
##LASTX=599.83466
##DELTAX=-1.4281778
##MAXY=2.0525556
##MINY=0.44240615
##XFACTOR=1
##YFACTOR=1.9115913e-09
##NPOINTS=2730
##FIRSTY=0.45112249
##XYDATA=(X++(Y..Y))
4497+235993167+235570108+236164785+237294600+238498111+239272311+239280792
4487+238642056+237880937+237765740+238901308+240927223+242343089+241894135
4477+239996138+238180645+237513083+238060350+239334984+240680537+241536633
4467+241709623+241302373+240378927+239034636+237814491+237438265+237973216
4457+238780592+239321560+239480628+239119915+238117598+236969636+236520759
4447+236956041+237739330+238422841+238806331+238505501+237221373+235612607
4437+235203517+236805937+239249455+240363929+239355890+237505163+236427825
4427+236448358+236783285+236758839+236466255+236407308+236787245+237216353
4417+237180417+236675368+236104996+235662933+235186524+234597412+234101609
4407+233834001+233622861+233397254+233471355+233948231+234277359+234040495
4397+233740756+234157454+235322518+236641023+237567072+237709085+236909940
4387+235668187+234846203+234710411+234731661+234428507+233862547+233195281
4377+232506704+232144696+232531399+233511749+234395471+234739503+234859034
4367+235510350+236997963+238574285+239009972+237982445+236535321+235871251
4357+236068640+236331773+236264595+236246432+236475890+236546358+236158284
4347+235514638+234931731+234593234+234625631+234939745+235130290+234875092
4337+234280446+233677085+233252747+232979309+232783588+232612578+232353856
4327+231957706+231596229+231433435+231457194+231793369+232642901+233636519
4317+234079315+234070304+234430253+235356614+236026109+235792255+235166038
4307+235208958+236238185+237549346+238372406+238617579+238479808+237874498
4297+236676725+235188800+234042163+233730887+234276704+235197858+235852106
4287+235965276+235776727+235644037+235716080+236024067+236551862+237092254
4277+237346875+237292262+237199297+237204972+237153539+236906136+236599210
4267+236547216+236875876+237230025+236986957+236023256+235088320+235006331
4257+235640202+236104560+235867603+235099062+234170549+233496564+233582857
4247+234561290+235884939+236833641+237035536+236543537+235866698+235776789
4237+236523300+237331518+237240673+236372885+235683840+235526751+235357035
4227+234951484+234977411+235962828+237363931+238094353+237755216+237004995
4217+236640275+236734019+236988469+237396888+237926585+238113045+237739112
4207+237392835+237738005+238649883+239427590+239541212+238936074+237877289
4197+236783674+236048949+235789495+235866605+236145453+236425424+236300749
4187+235744689+235534936+236245808+237242201+237581119+237369075+237349525
4177+237780223+238400188+238957901+239317055+239367754+239114396+238764892
4167+238613292+238782634+239084432+239187094+238946504+238532456+238281514
4157+238452681+239026202+239709151+240196739+240406990+240367624+239982138
4147+239144252+238039319+237127160+236850713+237364086+238323343+239037177
4137+239165548+239104153+239362080+239891636+240342851+240638023+240968179
4127+241359169+241488334+241085979+240465266+240297390+240738954+241214880
4117+241267342+241099215+241014591+240891911+240536779+240081105+239674198
4107+239209263+238725293+238668295+239314233+240225269+240734558+240747015
4097+240622697+240554334+240525897+240633346+240927457+241108336+240906956
4087+240647564+240835490+241275495+241300533+240890913+240878737+241885732
4077+243467557+244498607+244262554+243019335+241621242+240792398+240748729
4067+241297291+242072660+242590866+242390687+241533546+240780877+240875198
4057+241747321+242736714+243346669+243499735+243395841+243339420+243483537
4047+243725093+243993574+244358076+244681014+244628350+244212369+243861477
4037+243763898+243605095+243180056+242818423+242905463+243327026+243769245
4027+244292643+245113100+246013425+246500264+246428938+246005677+245381814
4017+244709341+244346617+244497453+244754304+244461627+243537588+242552187
4007+242007258+241946409+242306686+243227481+244775211+246537946+247761568
3997+247949010+247273887+246362103+245706623+245431251+245523920+245973186
3987+246641637+247224060+247389676+247029368+246467462+246242166+246536636
3977+247113899+247827702+248692123+249445509+249655651+249331840+248916561
3967+248727310+248819496+249161080+249541078+249564900+249091453+248443067
3957+247983932+247782848+247831537+248292153+249257537+250341095+250801368
3947+250336481+249531864+249172694+249356645+249466884+248820509+247358792
3937+245954400+245992175+248210507+251735494+254491348+255062000+254024028
3927+252970684+252723982+252846257+252725978+252737032+253719269+255556151
3917+256713966+255589639+252406953+249068645+247243642+247216702+248523186
3907+251084224+255037087+259651448+263336267+265067759+264844631+262860762
3897+259657684+256662534+255465790+256506506+258183993+258124610+256634752
3887+256357587+258204354+260111518+260666082+261042432+261537518+260569952
3878+258314360+257092188+257911490+259843677+262170704+264512089+265509838
3868+264696242+263732168+263545053+262897150+260847444+258568466+257598437
3858+258729265+262976848+271113904+279053400+278644279+270945248+262993374
3848+258439862+257585715+259201433+261964412+265332389+269191805+272680763
3838+273986608+272444382+269769707+267786181+266694641+265763025+264795085
3828+264144656+263818289+264143690+266606399+271656915+275904498+276032931
3818+273715087+271296467+268564232+265279694+262634796+261846331+263577044
3808+267385042+271033614+272920012+274104595+275380476+275491136+274150306
3798+272782474+271559631+269556306+267125276+265796014+266276508+267886427
3788+269613523+271036794+272183338+273312669+275027386+277593241+279939897
3778+280646980+280004285+279562018+280637657+283886430+288781511+293446602
3768+296588863+298722149+300586657+302656366+306133725+312045450+319198788
3758+325076713+329526440+334909310+343135761+353832780+363660731+369317897
3748+372311332+376432758+382691804+387598796+388672813+388992040+392341808
3738+399898280+410001307+419016161+424020155+425062025+424294701+423701364
3728+424041202+425232895+427010316+429088974+431003715+432310994+433034385
3718+433517061+434320805+436763746+442364070+450292122+456650541+459446384
3708+460695481+462396946+465113248+468713365+471903986+472826497+471955310
3698+471980067+474400495+478437516+483051814+488150098+493010100+495256135
3688+494026184+491820060+490409448+489380736+488051911+486727762+486948615
3678+490473119+496404862+499752291+498031743+495113359+494332128+494499787
3668+493013686+490049810+487249446+485659669+485724463+487530040+490663944
3658+494087516+496611589+498368618+501248338+507012828+515067692+521428667
3648+522786584+521021074+519374362+518791097+518718789+518744014+518928167
3638+519136173+519265947+520029124+522450239+526880260+532441514+536397340
3628+536544887+535414090+536413803+539819914+544395175+548506779+549759617
3618+547928503+547149548+550493672+555733890+558877585+560032266+561944451
3608+564566493+565467863+564057001+562102162+561482291+562976966+566179842
3598+569677125+571823351+572035130+571478119+572201198+575393098+580653584
3588+586378724+590617982+592304854+591327341+588421991+585318707+583005166
3578+580849523+578676918+577800805+579213974+582757778+587933765+593698754
3568+597863116+598656289+596691534+593883905+592372205+593902987+597516699
3558+599390967+597324314+593449246+590916568+590498373+591527583+594032449
3548+598042591+601914416+603658724+603517975+603040537+602635812+602348326
3538+603234168+605546088+607617294+608454182+609007638+609339338+607953608
3528+605115920+602984973+601893463+600053244+597229151+595231033+595078934
3518+596411096+598560252+600395046+600436454+598628600+596904062+597157810
3508+599273229+601370377+601821561+601072789+601104718+602819528+605313543
3498+607588420+609408808+610783688+611736693+612693190+614233452+615900556
3488+616025528+613724646+610667696+609801996+612399219+616759271+619851891
3478+619928596+617593602+615199054+615063917+617248620+619466499+619671979
3468+617656525+614222725+610580639+608457175+608852359+610749264+612321018
3458+612776505+612100509+610533931+609032583+608570860+609194286+610641255
3448+613021834+615814809+617300005+616175756+612918314+609227774+606568377
3438+605014832+603646439+602418046+602758664+605690143+609951663+612605261
3428+611678822+608118179+604824506+603861398+604795570+605711595+605525072
3418+604693173+604104669+603897505+603750021+603810012+604287388+604864355
3408+605290906+605886581+607078866+608790871+610244013+610372727+609085902
3398+607606942+606853804+606559584+606416776+606478327+606133344+604791517
3388+603719090+604980970+608499020+611607854+611952650+610170739+608790309
3378+608894078+609478778+609944928+611509885+615381772+620400858+623611092
3368+623159409+620127840+617252548+616200514+616759957+618033374+619234827
3358+619998440+621034698+623630923+627499131+630163517+629716698+627383887
3348+626057276+627108001+629601953+631724794+632338928+631625078+630532758
3338+629734970+629257532+628817448+628092062+626914120+625678556+625110133
3328+625396496+626067004+626671035+627128954+627702117+628903632+630681365
3318+631485389+629500928+625273207+621572751+620446756+621688057+624074436
3308+626591338+628082521+627432654+624919868+622407706+621784592+623161529
3298+624934274+625984064+627189757+629975872+633744551+635866394+634822653
3288+632334313+631157618+631854256+633073544+634128884+635563256+637490593
3278+639222429+640553343+641655766+641901594+640318990+637328267+634514027
3268+632578956+631036325+629864307+630108265+632221564+634865745+636083286
3258+635410782+634162185+633731705+634388057+635588761+636592653+636567148
3248+634929977+632283800+630378289+630449630+631902336+633238240+633882058
3238+634005034+633508514+632642004+632299578+632424363+631670727+629739211
3228+628437544+629389987+632159514+635340564+638500659+641806368+644072453
3218+643206504+638996244+634009649+630927255+630130590+630337879+630409096
3208+630144060+630013787+630112942+629554060+627766723+625809764+625398179
3198+626953158+629185879+630144372+628698338+625774031+623640152+623269103
3188+623350734+622233594+619853388+617611188+617085295+618610902+620647746
3178+620904550+618571739+615055810+612132126+610522332+610345912+611354418
3168+612462329+612252545+610508425+608469149+607246680+606620511+605697127
3158+604213615+602689567+601747787+601687671+602290393+602728980+602172530
3148+600746889+599326361+598250566+597010512+595367791+593781944+592761526
3138+592391661+592243865+591648003+590473054+589632798+590121960+591678997
3128+593074143+593377967+592401826+590569278+589012678+588793914+589494294
3118+589495479+588047761+586214277+585338912+585604010+586352719+586731190
3108+586134268+584870017+584005129+584095802+584616332+584698586+583843239
3098+582105230+580048742+578362805+577223339+576375475+575929966+576325649
3088+577441167+578423357+578648045+578373032+578085858+577596821+576432286
3078+574843757+573465698+572215354+570578246+568869546+568181015+569022768
3068+570740260+572270419+573046879+573104564+572551294+571189137+568799390
3058+565748551+563094954+561909778+562358841+563506850+564259114+564343427
3048+563960653+563045377+561621918+560252651+559376039+558872097+558877335
3038+559906983+561532242+562099730+560507459+557451195+554492277+552744353
3028+552525901+553326994+554008977+553753857+552852550+552095296+551682278
3018+551329687+551221365+551928418+553170904+553576190+552309071+550230507
3008+548813284+548551055+548774808+548579055+547536749+545587585+542806957
2998+539678167+537189203+536047555+535868080+535667463+535166578+534987351
2988+535508317+536175895+536218800+535642082+535161027+535246525+535532139
2978+535394820+534834441+534157884+533113145+531374263+529686642+529303557
2968+530239662+531008701+530258557+528102853+525715413+524128942+523584840
2958+523673081+523824494+523671959+523140765+522422083+521845054+521636518
2948+521716028+521640415+520935327+519756481+518881957+518723061+518789850
2938+518478074+517957327+517789855+517914141+517584936+516478959+515236130
2928+514540739+514384337+514426836+514308007+513608282+512321706+511237898
2918+511146289+511915360+512693286+512664475+511623384+510113649+508761625
2908+507590356+506449549+505651699+505577084+506073729+506551354+506372814
2898+505380428+504183184+503387766+502734844+501613463+500038498+498586041
2888+497810890+497953698+498761401+499541977+499615938+498709267+497125259
2878+495621666+494751570+494254177+493447035+492176486+490978307+490488116
2868+490969701+492087870+492931307+492651928+491370310+490109833+489590083
2858+489431342+488799654+487587631+486588447+486450473+486778275+486595057
2848+485622190+484502369+483738630+483295615+483197958+483513412+483800586
2838+483486566+482727317+482188765+482061673+481784071+480819529+479453817
2828+478480950+478171919+478026929+477570164+476866417+476115244+475217304
2818+474005624+472652976+471564055+470865796+470298121+469707279+469264794
2808+469012169+468628460+467903603+467046354+466347502+465881913+465652049
2798+465733088+466148850+466682102+466816521+466012934+464379318+462924117
2788+462553442+462900233+462834161+462019847+461040027+460127463+458951454
2778+457624655+456826774+456823157+457064526+456790324+455677455+453996788
2768+452338445+451157042+450618552+450760829+451364705+451703670+451060444
2758+449598103+448234511+447666961+447815350+448035142+447718222+446890252
2748+446156010+445880529+445750568+445291277+444376562+443183435+442109137
2738+441640367+441862435+442238848+442190456+441682461+441021338+440344624
2728+439550173+438650611+437996129+437928623+438192349+438028495+437127031
2718+436126070+435767119+435894804+435751092+435014325+434053556+433298828
2708+432804210+432428109+432173456+432216330+432601691+432997904+432889645
2698+432028498+430642549+429264677+428313075+427724509+427149818+426540517
2688+426184403+426148171+426118300+425832062+425311470+424682307+424023523
2678+423368261+422697753+422008442+421442171+421187487+421223782+421324308
2668+421307720+421133888+420812353+420406194+420038169+419709525+419254693
2658+418631111+418052180+417707353+417571156+417513690+417336491+416748393
2648+415674251+414644791+414465128+415251847+416096593+416009412+414983756
2638+413767866+412856830+412157199+411455541+410778454+410288855+410085869
2628+410136631+410309684+410461814+410477935+410243300+409724267+409100436
2618+408642205+408446672+408420511+408449852+408446796+408333611+408107832
2608+407848190+407619449+407434766+407256756+406977564+406494265+405877449
2598+405406871+405358447+405695728+406007005+405875329+405283395+404551056
2588+403997786+403748684+403691655+403571111+403271932+402961248+402869328
2578+403068572+403449163+403735994+403650933+403204863+402647353+402133808
2568+401716891+401516493+401539910+401505175+401228602+401003541+401173163
2558+401527718+401567785+401186976+400642562+400050099+399398081+398875025
2548+398732873+398934206+399195874+399267340+399062452+398651179+398207635
2538+397939450+397999099+398351440+398742975+398928937+398886344+398711701
2528+398474292+398251350+398117928+398032119+397882545+397665809+397482810
2518+397375455+397341655+397519572+398056939+398737675+399132546+399144114
2508+398972558+398717625+398491940+398517695+398630725+398277448+397432484
2498+396866680+397173685+398084721+398874027+399037819+398562096+397781738
2488+397055074+396579226+396429652+396569840+396789789+396796181+396436450
2478+395834632+395339359+395274347+395626189+396037337+396200069+396147467
2468+396085699+396125360+396246217+396307019+396075627+395533739+395103228
2458+395219968+395752066+396170728+396199258+395998736+395834975+395806663
2448+395828988+395775046+395665196+395670092+395868494+396109676+396205838
2438+396158131+396129476+396254136+396455376+396440004+396051244+395654314
2428+395865781+396761539+397643671+397795739+397251075+396616892+396337669
2418+396342783+396345433+396279237+396308017+396520949+396841549+397190366
2408+397525621+397782268+397968105+398244178+398703126+399135072+399264565
2398+399192756+399312957+399784689+400357540+400683253+400601934+400264497
2388+400154835+400759926+402078930+403674786+405231916+406849038+408861156
2378+411649422+415596175+420948799+427608361+435112014+442826354+450126646
2368+456539070+461943486+466486880+469948336+471630875+471392312+469876558
2358+467248062+462950247+457000949+450311392+443861863+438464182+434990877
2348+434406895+437496241+443974144+451645050+457666250+460851789+461889855
2338+462130944+462358875+462159443+460694639+458142909+455701714+454005425
2328+452301714+449580954+445899518+442170407+439124713+436790655+434707102
2318+432423899+429869893+427300577+424920652+422759241+420894826+419434761
2308+418243536+417067028+415948048+415176202+414825108+414674662+414611646
2298+414772413+415171120+415488321+415469924+415300644+415311433+415537867
2288+415789307+415922916+415876644+415647311+415376226+415242243+415175329
2278+414896169+414320481+413720472+413388304+413312099+413283569+413149710
2268+412848287+412413473+412084548+412197796+412806443+413544831+414032372
2258+414326405+414777090+415490815+416210308+416745867+417186325+417591206
2248+417848415+417945761+418021717+418087820+418028078+417840900+417570751
2238+417098084+416320220+415452089+414846530+414582897+414492567+414487173
2228+414577597+414687196+414786257+415092358+415755757+416472163+416830990
2218+416946515+417330286+418221242+419423442+420761435+422314200+424135492
2208+426031836+427750794+429296699+430987625+433155428+435746228+438296648
2198+440392362+442049706+443595549+445340231+447402924+449683351+451958197
2188+454063857+455982558+457762443+459386673+460755098+461840964+462773078
2178+463624372+464288613+464750024+465197841+465667920+465884594+465639109
2168+465064762+464407100+463744792+463052083+462301346+461335089+459892392
2158+457965522+455861141+453803436+451799800+449835107+447833871+445559244
2148+442766175+439405775+435983357+433807353+434098549+436602012+439829489
2138+442749961+445450579+448280160+451229662+454074490+456649605+458991209
2128+461198923+463238231+465174455+467352735+469970443+472811156+475568304
2118+478071268+480280946+482296744+484158633+485715483+486971595+488269458
2108+489891506+491830225+494082964+496833564+500170516+503819868+507384532
2098+510750857+513953763+516827184+519234548+521354052+523242477+524417550
2088+524237825+522485598+519483463+515847707+512191496+508994638+506527189
2078+504665455+503025229+501475925+500181991+499090107+497834057+496190962
2068+494317318+492497179+490798177+489113518+487490035+486023953+484468818
2058+482504220+480294198+478275969+476696482+475625053+474917907+474132934
2048+473013518+471933951+471513012+471962263+472868653+473524413+473653095
2038+473723127+474347707+475754109+477976946+481032930+484804416+489120035
2028+493848080+498773218+503680833+508516358+513155913+517240297+520449658
2018+522721697+524160809+524873536+524886071+524281603+523394825+522563518
2008+521616001+519943939+517258506+514046526+511102481+508792463+506947941
1998+505293808+503797792+502720469+502340097+502471679+502487862+502114380
1988+501802698+502075934+502981576+504261916+505642501+506927174+508073562
1978+509213838+510600161+512450014+514623773+516629624+518293392+520094541
1968+522448617+525024263+527160262+528686305+530000943+531561846+533527037
1958+535770796+538090324+540384596+542643883+544792852+546734159+548678584
1948+551195174+554656849+558723615+562493355+565203077+566961790+568672734
1938+570986463+573645423+576076765+578235650+580462322+582832861+585110794
1928+587263755+589719667+592786845+595936963+598332135+600049253+601705007
1918+603037730+603281812+602872223+603282249+605337552+608528891+611552415
1908+613288678+613598115+613259805+613123358+613506070+614297310+615290226
1898+616314822+617176717+617655340+617849845+618392824+619741824+621297426
1888+621896157+621261444+620208972+619640113+619908328+620728379+621421213
1878+621484572+620894198+619913879+619116527+619382997+621004640+622603084
1868+621959017+618828855+615390503+613432670+612754990+611977470+610153714
1858+607550130+605055866+603195879+601860037+600809000+600070269+599813091
1848+600314226+601871325+603810012+603936107+601042793+596894894+593566486
1838+591307448+589400752+587610546+586450315+586341806+586750896+586474823
1828+585248862+583992158+582952533+581300582+578793097+576305132+574558330
1818+573469377+572651945+572044609+572004573+572740436+573635258+573608879
1808+572491303+571425985+571730370+573800391+576854846+579390581+580316085
1798+579955574+579639028+580483774+582556788+584540500+584858169+583931231
1788+583651166+584965368+587266686+589639284+592000968+594491615+596609280
1778+597993887+599512260+602620159+607581186+612191806+613530328+611818636
1768+609614227+608640892+609326990+611389216+613823177+615406156+616115827
1758+616756028+617437325+618159718+619968008+623911112+629247180+633593387
1748+635504698+635726767+635794491+636924291+639439945+642274515+643877823
1738+644762418+647612952+653807548+660210119+662012235+660187544+658296376
1728+657467657+657609466+658811854+660980218+663958032+668436383+675403822
1718+683725748+688882091+688156954+684849436+683090349+684030196+686785816
1708+690556117+695257534+700511971+705822783+711680628+718277703+723806717
1698+727116605+729020931+728896209+726387851+724288832+725086371+728391332
1688+732884525+739126328+747974209+755644897+756881147+754246320+752985063
1678+755176251+760277966+766026055+770151815+772947721+776114614+779307262
1668+780172899+778713458+777768310+779165640+781988049+784266481+785921674
1658+788370726+792791518+800052679+809537767+816091439+816928016+816614900
1648+817272562+816448021+811904004+805939584+801885913+801130032+803848423
1638+809215297+814376068+814607490+809143519+802693242+798557567+797129868
1628+797428017+798223497+798842308+798611135+796620937+793357259+790735903
1618+790039140+790834745+791285929+789858417+786436279+782130108+778723249
1608+777211486+777041178+777380485+778022869+778768897+779154477+779018155
1598+778465385+777464673+776253056+775579616+775858933+776789113+778100384
1588+779753270+781371919+782557220+783732169+785747000+788826088+792491248
1578+795697242+796182413+792351434+787312455+785433572+787229764+789062375
1568+786881788+781597044+776903921+774908671+776289225+781645935+789807281
1558+794182174+790807244+784320673+778520450+774825855+773712270+774441398
1548+775883191+778094335+781924939+787379993+793401536+797876394+797154251
1538+791450064+786595425+786190950+789124986+791452808+791601353+792327238
1528+796112194+802693055+810395297+818029379+824285213+827331188+827643119
1518+827639065+828012734+828462297+830060367+834453345+842164630+852754885
1508+864450495+871430281+868940383+863227465+861284101+864163571+869895258
1498+875397831+878321765+879040478+879935425+882921969+888386439+894828734
1488+899600308+901511245+901739300+902178323+903946827+906963616+910958792
1478+916690293+925033921+935107014+943979404+948212799+947251625+944804506
1468+944457715+946503227+948554789+948565826+947495707+947495333+949440568
1458+952366248+952921263+948838782+942978754+938979899+937960542+938692788
1448+938700084+936779544+934400586+933130224+932927425+933779966+936434000
1438+940599048+943784899+943761139+941845026+940787940+941656134+943552852
1428+944882582+945372866+946035892+947382396+949281859+952261668+956447919
1418+959290533+958484950+955918471+954297826+953726347+952878608+951600139
1408+951103245+952162015+954261594+956264639+957684356+959176162+961717884
1398+965250214+968453339+970042055+969449810+966953986+963974926+961838740
1388+960459246+959078754+958029588+958582234+961407636+966094773+971665007
1378+977033378+981153339+983432394+984098101+984323974+985868787+989770982
1368+995105367+999557401+1001866702+1003104074+1004892783+1006609215+1005808496
1358+1002204887+999017103+999403556+1003017579+1007107295+1010477236+1014373569
1348+1019338276+1023396935+1024385923+1023295910+1023716100+1028002752
1340+1034430766+1037947756+1035467959+1029874589+1026531213+1027924988
1331+1032664258+1037686025+1040250134+1039816599+1039243436+1042218132
1322+1049150649+1056389422+1059984674+1059376028+1057154220+1055713550
1314+1054828519+1053235562+1052175171+1055053144+1062504819+1070206063
1305+1073741823+1073531665+1072335077+1071568033+1071699740+1072404423
1297+1071208583+1065402997+1056256467+1048115701+1043357161+1040624177
1288+1037442692+1032865623+1027740274+1023035115+1018425306+1013059991
1280+1007740948+1004385349+1002844340+1000360801+995338037+989858039+986891512
1270+986670068+986740099+985060710+982044482+978430832+973010764+964600035
1260+954687647+945787008+938909743+933896208+930743533+929280599+927992402
1250+924464375+917701543+909207063+900832629+892668352+884008178+875085962
1240+866676855+858888430+851354750+844297199+838642901+834942570+832661519
1230+830877674+829450973+828867022+828961624+828738744+827635449+826142083
1220+825053380+824849583+825739603+827546085+829546635+831003831+832161443
1210+834253664+838190532+843504587+848700030+852563499+855142325+857503760
1200+860668158+864711040+868883821+872523849+875626136+878698988+881987486
1190+884843944+886505623+887675895+890162052+894579538+899848630+905270757
1180+911213538+917304863+922433331+927134561+933220461+940826292+948588277
1170+956333299+964270206+970334841+972297600+971648170+971855147+974043654
1160+976878224+979424996+982038058+984914223+988001419+991879417+996758252
1150+1000187188+998396421+991669073+984936424+981658029+981163441+982199325
1140+985006518+988995520+992155304+994141947+996467275+999439788+1001304390
1130+1000721437+999299288+1000594719+1005786857+1010962906+1011734814
1121+1009977161+1011046969+1015823781+1019479025+1018476380+1015645427
1113+1016041359+1020842367+1026895715+1030669633+1031168149+1029143028
1104+1026018666+1023992173+1023927255+1023278947+1019831865+1016586334
1095+1017667991+1020985798+1020515781+1015161504+1010110240+1009633987
1087+1013365312+1018313617+1020237151+1016415963+1008728875+1000873349
1078+994964804+991663024+990843409+991163635+991215145+990137542+987374376
1068+983296509+978157815+972916598+969718649+968803872+968235947+966915322
1058+965445841+964373289+963422342+962191206+960415842+958506589+957931431
1048+959781067+963303232+966431711+967505385+967555898+969582452+974594740
1038+979722522+980434812+974996347+966562046+960526097+959700122+962076274
1028+963640357+963382556+964076450+967919090+973592906+977765375+978468997
1018+977196765+977155731+979304140+981310739+980277475+975197836+966573520
1008+955979772+946420536+940108202+935626671+929442365+920521895+911487927
998+904986951+900849716+897171897+892751355+887463056+881357200+874778708
988+868826511+864655102+862588699+861939081+861578633+861020001+860628372
978+860185981+858247480+854256296+850043666+847523647+846190175+844096271
968+840155287+834781241+829226223+824819525+822139860+820599100+819562406
958+819702407+822136929+826464428+830985996+834817598+838176127+840818374
948+842294528+843707074+847254059+853685316+861330373+867925951+872704759
938+876570722+881523767+889609157+901042163+913039975+921396824+924703281
928+925795539+927845729+931118698+933971727+935322036+935392504+934757105
918+933654433+931952531+929573573+927035656+924889617+923155225+921718670
908+920605958+919709951+918717720+918264915+920207656+925145111+930661715
898+933768492+934655207+936103735+939505854+942527072+941743751+937989415
888+936075921+938481134+942321778+943867652+943650261+944373527+946257087
878+947062046+946222165+946197969+948231695+949330875+946766142+943490553
868+944308796+948804296+952320100+952834831+952865762+954956985+958642412
858+962209103+965623945+969880290+974253312+976417374+975286576+972783395
848+971568846+972564881+975703836+979204549+980432006+979192700+976983739
838+975005078+974260546+975005078+976143795+977002447+978600892+981977381
828+986453424+990266131+992432500+994197823+998047073+1004200323+1009977597
818+1013604530+1016209423+1019275415+1022751122+1025685220+1026842708
810+1024435936+1018235042+1012308475+1011115566+1013597046+1014588653
801+1011077339+1004402748+998232099+996570296+1000297318+1004760951+1004573618
791+1000052737+994770362+989938048+984569054+977788449+969576590+960801859
781+953234941+948680883+947388633+947117049+944890128+940541862+936910066
771+936346757+938627184+942651171+947935666+953640975+958899528+963650772
761+967591443+970606424+973653334+977211046+980140280+981152653+980297181
751+977894900+973817158+969510113+968147768+971035844+976487031+981998896
741+985558415+985581926+982474899+980534091+984326406+992267180+997478089
731+996902182+994971664+996170248+999736066+1002140218+1000961216+996347728
721+990850519+987912491+988872481+991465526+992473222+990948052+987977160
711+984704939+981417626+977940361+976065531+979358831+988638813+999100605
701+1004070238+1001755324+995976367+991383271+990911383+993491332+993310172
691+986836572+977704012+969578087+962216899+956838550+958277162+968293320
681+979049082+979843627+970613409+961020310+959001800+966000732+975832861
671+975593269+957188022+930995472+919691991+927334927+939517142+945965610
661+946524243+946499361+948994810+951748310+951632256+949083612+945258371
651+938840397+929946992+923071474+921253330+921284885+917693686+910744519
641+906608406+909205130+919313084+936017801+952175672+957376478+950465788
631+938189720+925021698+913916775+908040034+907178139+907168972+904818388
621+900278175+893089291+882489619+870992568+863582987+863737082+870931266
611+884315120+904683625+925188826+931155367+921617458+911108708+906661601
601+904112583+898669004
##END=
