##TITLE=<SNM>
##JCAMP-DX=4.24
##DATA TYPE=INFRARED SPECTRUM
##DATE=29/4/2025
##SAMPLING PROCEDURE=Instrument type and / or accessory
##ORIGIN=Admin
##XUNITS=1/CM
##YUNITS=ABSORBANCE
##RESOLUTION=4
##FIRSTX=4497.3318
##LASTX=599.83466
##DELTAX=-1.4281778
##MAXY=2.2000432
##MINY=0.64245301
##XFACTOR=1
##YFACTOR=2.0489499e-09
##NPOINTS=2730
##FIRSTY=0.64871448
##XYDATA=(X++(Y..Y))
4497+316608270+316667207+318946202+322639831+326213405+328556981+329140940
4487+327621348+324504347+321669378+320904825+322120423+323852171+324867162
4477+324828879+323963878+322573476+320997944+319717416+319119435+319280566
4467+319987985+320820551+321438779+321993939+322813239+323593471+323618867
4457+322714972+321476625+320798471+321282738+322684863+323965187+324366837
4447+324213619+324147496+324145576+323695869+322672180+321681712+321358402
4437+321753769+322607425+323551493+323879341+323081975+321657160+320624802
4427+320563683+321463854+322891608+324069360+324368146+323879225+323294189
4417+323294800+324041869+325115594+326015125+326648683+327157997+327393629
4407+326754369+324780677+322049036+320172854+320326917+321870625+323020158
4397+322820715+321880952+321040386+320300008+319554976+319445014+320624598
4387+322565913+324082479+324572855+324002045+322674711+321444684+321085156
4377+321303101+321243262+320655667+319916656+319514744+319837094+320788871
4367+321718657+322329816+323125524+324285210+324890347+324004284+321883221
4357+319578859+317985785+317696161+318981489+321220165+322909761+323070252
4347+322390440+322157659+322394687+322005138+320665063+319491413+319468374
4337+320172476+320492353+319896525+318762584+317959109+318104880+319010521
4327+319833806+319986618+319677155+319365597+319386222+320020246+320989449
4317+321237153+320286190+319210226+319275417+320449300+321811135+322396432
4307+321591270+319737663+318136182+317844696+318964500+320953144+322780221
4297+323312924+322494234+321570849+321544987+322117223+322480998+322460286
4287+322346513+322107478+321417048+320401010+319718521+319743103+320116943
4277+320080638+318980296+316797357+314503875+313552330+314765193+317750182
4267+321068633+323002413+322902401+321777128+320958381+320664394+320366101
4257+319830723+319265119+318908675+318799296+318801914+319025240+320031853
4247+321968804+323733803+323995906+322827057+321421877+320543232+320110252
4237+319896438+319841835+319886867+319894925+319565826+318621816+317349870
4227+316504621+316461364+316896759+317417854+317939327+318506065+319283214
4217+320433824+321660796+322302238+322167782+321811658+321749056+321892908
4207+321924704+321885082+322094591+322604603+322962269+322664180+321689566
4197+320380268+319116497+318414692+318938639+320808042+322989643+323966380
4187+323234292+321722671+320633180+320206774+319851086+319329380+319217877
4177+319973760+321172166+322016542+322185877+321927933+321661785+321645698
4167+321793652+321755514+321235873+320238395+319177703+318763864+319363154
4157+320386756+320873815+320715127+320543145+320518447+320188563+319514191
4147+318996063+318677844+318101157+317481649+317782007+319165194+320402668
4137+320479379+319903710+319760121+320295354+321047746+321659691+322048599
4127+322218749+322203825+322017385+321608870+321103920+320804173+320612904
4117+320057017+319249672+319029197+319633054+320145975+319847246+319208422
4107+319032164+319495748+320338436+321150930+321379667+320769788+319792934
4097+319106083+318869142+318998361+319628778+320821772+322024658+322401378
4087+321802233+320943923+320459220+320216373+319872177+319670348+320038544
4077+320651187+320827154+320751577+321235728+322273875+322875230+322412665
4067+321208848+319777458+318395202+317333143+316792179+316698508+316889457
4057+317286540+317765512+318250594+318992339+320263383+321751034+322657344
4047+322532662+321716388+320938337+320748290+321232848+321966332+322292405
4037+321892384+321032706+320211603+319722623+319548023+319428054+319057269
4027+318467491+318174290+318670018+319683671+320416748+320656307+320772668
4017+320614126+319769924+318904661+319140264+320124622+320368021+319482017
4007+318591998+318713916+319974138+321972615+323920679+324769186+324014524
3997+322250632+320631318+319912845+320062602+320670008+321365384+321856399
3987+322084119+322265293+322440737+322309598+321742540+321077011+320815053
3977+321347813+322716252+324212949+324636563+323448572+321383565+319691700
3967+319085748+319461770+320373199+321581728+322976872+324157096+324634003
3957+324439941+324033724+323666371+323302800+323080608+323205813+323276764
3947+322516925+320987762+319805269+319905689+321057782+322180378+322572109
3937+322576967+322958429+323958496+325259533+326507857+327298794+327211407
3927+326498985+326043430+326167355+326366914+326552249+327280584+328412780
3917+328747319+327586469+325769486+324473337+323905814+323679927+323878818
3907+325167782+327835947+330987013+333031074+333282735+332269839+330423155
3897+327922898+325586043+324612738+325450074+327069941+327734684+327201720
3887+326968823+328044322+329631374+330718305+331736380+332749742+332452322
3878+330661783+329075079+328899228+329818047+331252142+332955091+334304271
3868+334904056+335250376+335577846+335177651+333606714+331635058+330208090
3858+329786251+331059768+334808029+339028862+339039713+334825134+330067205
3848+327286576+327310780+329450490+332042643+334152420+336191274+338239525
3838+339376201+339378499+339044920+338566239+337435643+335594341+333792194
3828+332889114+333181733+334639683+337298802+340183167+340807533+338928704
3818+337513546+337646664+337018633+334273348+331110327+329527783+330427082
3808+333394529+336541813+338565366+340057758+341029143+340214148+338154639
3798+336822738+336481363+335995380+335122292+334674853+334963197+335624129
3788+336679468+338649641+341436117+344089476+346057146+347611123+349005772
3778+350486295+352813406+356608764+361684039+367275813+372326594+376099349
3768+379171696+382432664+385295881+386883108+387995086+389835981+391990935
3758+393487720+394917714+397599145+401961910+407405294+412651765+416841065
3748+420603842+424737928+428908552+432261999+434723768+436927623+439744935
3738+444358721+451525242+459753793+465862386+468307778+468191358+467681056
3728+468495382+470752006+472926771+473646815+472845929+470909472+468264695
3718+465934646+465288899+467175640+470979813+473822782+472713044+468822415
3708+465709516+465181614+467296132+471275080+475093797+476323621+475045566
3698+473458164+473120396+474445228+477162411+480502884+483478796+485197221
3688+485256827+484310838+483567464+483750006+484687907+485973264+488055405
3678+491634505+495403566+496312464+494491118+493323432+493727090+493243783
3668+490230373+485987722+482222908+479591716+478290855+478729624+481263829
3658+485180756+488396460+489572291+490070201+492138001+496452680+500717091
3648+500995485+497077424+492409472+489249505+487462776+486232720+485527483
3638+485599017+485984551+486292356+487508128+491146253+496915216+501212208
3628+500197654+495649554+491897889+490748879+491996447+494929859+498542297
3618+501354751+502340971+501659618+500253391+499457770+500244896+502021385
3608+502936218+502375763+501953023+503247717+506091530+509270988+512171353
3598+514880071+516926285+517535262+517119619+517015883+517901451+519397393
3588+520356327+519405829+516352682+512877201+511328315+512758978+515900792
3578+518390634+519103522+518576638+517695317+517211719+518087106+520777148
3568+524091352+526126395+526609353+526636931+526570954+525813558+524102813
3558+522253715+521581321+522595235+524255712+525178923+525832408+527732298
3548+530075409+529775371+526022252+521822654+519522132+518425834+517617297
3538+517852638+519619759+521612971+522300609+521771455+521243058+521693377
3528+523200489+524718656+524676184+522660921+520210933+519062272+519063901
3518+518835018+517992969+517596352+518478953+519882852+520180388+518678571
3508+516401495+515129433+515745334+517360255+518161053+517296605+515575737
3498+514435978+514612265+515567243+515846277+514388211+511942005+510728239
3488+512072271+514697791+516149515+515686048+514559611+513780165+513114520
3478+512237504+511546085+511439498+511378467+510438907+508820088+507915495
3468+508720890+510765766+512671590+513137676+511531191+508379136+505304579
3458+503986088+504884223+506697715+507453249+506495653+504698685+502785065
3448+500789758+499469639+500041846+501857199+502612210+501408044+499540212
3438+498037463+496454542+494229131+491861584+490356392+490343942+492004418
3428+494848289+497343426+497962119+497077947+496462861+496498352+495399435
3418+492047646+488354861+487278344+489392048+492710731+495243918+496530002
3408+496781517+495934814+494056741+491686868+489483449+487875568+486979033
3398+486926118+488248623+491191401+494591538+496551645+496395488+494872260
3388+492811791+490760690+489390768+489229491+490122564+491436284+492587272
3378+493241106+493436710+493684676+494603582+496365060+498744533+501334038
3368+503264939+503502316+502043959+500105437+498857869+498861243+500446783
3358+503211762+505587279+506516773+506997578+508559787+511141962+513473902
3348+514617385+514428007+513263695+511685893+510155451+508945584+508334977
3338+508445172+508837717+508912711+508651073+508414976+508330439+508278542
3328+508192842+508225830+508717748+509557179+509614487+507955814+505422453
3318+503550955+502429173+501132966+499752804+499455559+500751883+502827071
3308+504381368+504544681+503395787+501986244+501502355+502015160+502481361
3298+502442962+502864772+504529728+506579201+507559371+507099743+505751988
3288+504200484+503245215+503505749+504869096+506940328+509688667+512804591
3278+515074685+515431623+514065250+511811273+509198204+506726456+505300739
3268+505585650+507174389+508799085+509387058+508894094+508027202+507124936
3258+505693109+503435350+501346256+500958075+502584167+504913139+506245069
3248+505928741+504898070+504689900+505603453+506394535+506278232+506162104
3238+506831007+507198301+505840248+503342203+501686322+501873199+503093189
3228+503926918+503802179+503175050+502581723+502034650+501344744+500418915
3218+499223709+497958512+497058632+496632749+496317933+496003118+496099232
3208+496763830+497343542+496880948+495097826+492813479+491280534+491033732
3198+491437098+491383572+490398282+489054949+488273757+488305349+488636921
3188+488694636+488152915+486899733+485343662+484294228+484024997+483998873
3178+483796201+483619826+483589805+483299338+482395559+481081200+479850155
3168+478993968+478506210+478166639+477460820+476014274+474237814+472923425
3158+472444773+472877637+474154907+475402330+475281663+473753518+472211701
3148+471407266+470639310+469298973+467890622+467165924+467211101+467597043
3138+467782814+467304743+466076956+464570979+463472120+463221100+463823677
3128+464745928+465126837+464490573+463117044+461551547+460069016+458785929
3118+457955399+457846892+458382824+459092075+459553564+459793356+459990589
3108+459863057+458814583+456814389+454762531+453722959+453862447+454301682
3098+454086704+453144032+452177447+451871650+452240690+452548349+452042177
3088+450897036+449972051+449646792+449545732+449326856+449097595+449096344
3078+449499100+450403984+451532253+452201214+452013843+451294061+450619369
3068+450230577+449931615+449287526+448077572+446837334+446481705+447087220
3058+447643224+447344030+446410288+445395152+444606280+444278868+444375041
3048+444257138+443413489+442387152+442179302+442941207+443853276+444071803
3038+443424398+442372956+441485265+440839343+439986501+438631764+437185364
3028+436400914+436615426+437506841+438399449+438703559+438304265+437641587
3018+437270482+437308067+437405694+437181116+436482308+435373530+434173612
3008+433401903+433364842+433765213+433944380+433506658+432552960+431451833
2998+430598060+430264685+430423489+430728210+430838463+430725796+430515502
2988+430188672+429739546+429405036+429322245+429193172+428693109+427920818
2978+427161241+426606662+426397648+426429997+426188111+425314644+424218724
2968+423661557+423904257+424493249+424773477+424552914+424209822+424035426
2958+423699578+422771770+421506079+420566199+420242831+420420078+420995893
2948+421793346+422277235+421929663+420871095+419680631+418658542+417737018
2938+417047345+416938314+417357535+417804857+417995515+418075513+418192486
2928+418315276+418387740+418303698+417871997+417023636+415918029+414788422
2918+413855320+413379286+413551297+414188753+414637676+414253421+413075175
2908+411830516+411271400+411643145+412588523+413356973+413356915+412699997
2898+412025363+411801309+411971779+412138583+411889744+411096014+410079772
2888+409409967+409393997+409773451+410018683+409956197+409863457+409800912
2878+409296951+408088801+406806295+406379336+406923267+407673914+407943902
2868+407709783+407251290+406687693+406084389+405706244+405832408+406320806
2858+406617324+406369358+405816787+405378599+405120132+404819396+404317122
2848+403633906+402943825+402544735+402619846+402921804+402928175+402471224
2838+401974651+401819600+401797666+401548565+401206492+401192587+401564303
2828+401865650+401595517+400763446+399901005+399409611+399116235+398672520
2818+398057230+397458435+397034938+396939318+397205291+397590970+397799810
2808+397693601+397176811+396251913+395259962+394651013+394493693+394552775
2798+394742677+395121375+395557439+395791035+395769828+395639416+395440089
2788+395020374+394282119+393419939+392865769+392913157+393327374+393452957
2778+392883543+391938659+391272927+391123839+391169947+390995493+390443416
2768+389625541+388833528+388367471+388325436+388579511+388861367+388850226
2758+388483949+388185337+388310716+388537214+388371893+387970505+387766989
2748+387623573+387043308+385998587+384995727+384443069+384288861+384204760
2738+383955194+383604249+383427758+383615070+384031498+384309893+384185328
2728+383667811+382943723+382286369+381961285+381972513+382015916+381847745
2718+381499766+381052764+380519306+380033264+379835334+379969847+380169640
2708+380101074+379687380+379184844+378914101+378931642+379028018+378985954
2698+378726788+378303378+377898324+377744466+377911095+378211395+378410780
2688+378467971+378461542+378347508+378003980+377521983+377198062+377137990
2678+377079111+376755889+376279127+375954799+375807282+375532640+374982076
2668+374440210+374249960+374360357+374434654+374226600+373728864+373173384
2658+372921957+373117589+373470309+373589609+373447735+373314473+373335127
2648+373397845+373386675+373351737+373364944+373383388+373335156+373171348
2638+372807253+372248515+371764307+371636222+371750547+371718198+371369842
2628+370893807+370527996+370313979+370160847+370059613+370156425+370528665
2618+370938432+370979362+370479561+369650166+368874734+368469797+368558610
2608+368992608+369403887+369498286+369340849+369262247+369475595+369855893
2598+370064936+369836984+369193972+368441841+367927727+367762000+367794115
2588+367852296+367914026+368005602+368075914+368101659+368205627+368487047
2578+368830866+369076796+369254800+369472017+369705845+369864853+369907994
2568+369766848+369290377+368482189+367733055+367521481+367830449+368173628
2558+368279866+368369086+368621910+368784845+368519687+367914579+367449657
2548+367473133+367798770+367960047+367844500+367782508+367924818+367920891
2538+367437759+366691708+366176693+366052011+366079298+366065684+366079531
2528+366220706+366435189+366629775+366800419+366991019+367233312+367519037
2518+367733811+367705274+367446224+367243115+367342575+367661173+367972817
2508+368235009+368522945+368735392+368580805+367949952+367222025+366970452
2498+367308278+367779774+367964148+367882230+367768720+367797635+368054241
2488+368483527+368854516+368925468+368642681+368185061+367813257+367614366
2478+367462049+367274184+367167859+367313049+367768080+368431572+369035953
2468+369276006+369090148+368765413+368649459+368776060+368860916+368677240
2458+368318149+368028060+367901313+367838362+367731920+367632024+367681594
2448+367866754+367966301+367864863+367756007+367884528+368237772+368602507
2438+368781558+368696440+368420314+368138225+367974388+367886215+367819715
2428+367880223+368185031+368626128+368961220+369098526+369165870+369319235
2418+369543987+369687576+369723125+369847399+370175829+370546527+370812791
2408+371069513+371420662+371776466+371983124+371964274+371763754+371600121
2398+371770677+372364877+373173908+374012699+375099048+377036436+380449518
2388+385732963+393150388+403009831+415601264+430985253+448879738+468710214
2378+489789596+511588732+533848484+556275970+578188093+598628419+616611076
2368+631056873+641131206+647124514+650035758+650004515+646597688+639955258
2358+630154432+616425422+598081113+575793842+552761043+534223923+524167917
2348+523742617+531934107+545569213+559594014+570131117+576718798+580554766
2338+582597548+583566780+584464508+586392150+589594589+592821115+593972917
2328+591925307+587667645+582898691+577931283+571864435+564433541+556554307
2318+549204633+542617766+536362587+529749248+522360069+514398393+506361082
2308+498430183+490410908+482173862+473955522+466217986+459273919+453043263
2298+447181589+441477847+436060528+431178500+426918307+423190409+419830824
2288+416648429+413524563+410547836+408004788+406184140+405108263+404406138
2278+403555566+402364782+401119076+400172069+399558844+399116380+398795165
2268+398649800+398584667+398326578+397725513+396955928+396336537+396018550
2258+395883455+395684710+395273634+394703754+394108857+393535981+392974916
2248+392495332+392243701+392297838+392560727+392821348+392948734+392997635
2238+393093488+393275768+393484026+393634510+393696763+393698072+393603558
2228+393281673+392732942+392217083+391958790+391867388+391716177+391441186
2218+391121716+390814085+390520738+390230911+389932677+389655563+389491493
2208+389481195+389514678+389458999+389335511+389249141+389223106+389256530
2198+389447770+389870627+390382908+390733621+390853241+390907902+391070400
2188+391368314+391771012+392277067+392842351+393344799+393712443+393991885
2178+394217015+394334540+394363601+394486682+394831083+395284747+395660914
2168+395899309+396024281+396102883+396261396+396528708+396723700+396707206
2158+396614902+396657810+396853181+397070253+397219312+397358975+397646126
2148+398114305+398559940+398756795+398686338+398518516+398511360+398871934
2138+399513347+400066820+400335527+400569675+401089520+401837345+402493361
2128+402872263+403061583+403290727+403750588+404432000+405126648+405669968
2118+406097392+406524409+407058857+407823235+408804103+409673555+410036602
2108+409891674+409654617+409715299+410080587+410452041+410594148+410567297
2098+410583879+410728865+410909661+411053280+411269160+411754852+412536073
2088+413359824+413892847+413990037+413762609+413464317+413338094+413495094
2078+413878156+414355877+414856028+415354229+415751108+415924516+415964893
2068+416171667+416698435+417344473+417796188+417966832+418012242+418099978
2058+418267684+418501280+418834597+419305249+419912888+420676073+421577845
2048+422427864+423015867+423449692+424075657+425003116+425976333+426812069
2038+427660838+428647640+429583360+430307913+431013412+431917423+432899630
2028+433747380+434532703+435514676+436791684+438190493+439475442+440589166
2018+441627662+442675263+443797423+445083216+446516933+447959203+449413313
2008+451105730+453121051+455116648+456609302+457561400+458518181+460016188
1998+461980455+463958016+465821078+467807890+469891514+471609357+472656813
1988+473238357+473733650+474382393+475315349+476554132+477924782+479203913
1978+480424835+481903293+483855982+486057073+488075884+489901187+491998775
1968+494539583+496931856+498533279+499561041+500825656+502838474+505548705
1958+508658287+511773863+514429054+516429422+518121782+519966807+521989051
1948+523977143+526031153+528509127+531490072+534555961+537183691+539272959
1938+541144049+543097989+545189061+547384509+549737801+552322477+555084430
1928+557839692+560441532+562883841+565187446+567415126+569895368+572968937
1918+576220597+578608506+579863871+580876447+582400257+584225909+585710796
1908+586656988+587478267+588722810+590549625+592544640+594064028+594916724
1898+595619838+596731031+598015194+598757289+598965401+599472271+600641819
1888+601819861+602485856+603061670+604049636+605171708+605841543+606036041
1878+606251658+606810367+607534891+608120887+608631422+609430708+610591006
1868+611452545+611158907+609706252+607937734+606734150+606425793+606636698
1858+606613426+605910196+604804937+603975863+603854731+604303885+604829082
1848+605181366+605562683+605849397+605056685+602613679+599445392+596764252
1838+595017842+594005091+593329265+592926189+593115102+593801168+594061992
1828+593293018+591961379+590424013+588401070+586063255+584287871+583474331
1818+582964668+581912354+580451379+579482904+579331052+579205498+578306898
1808+576992945+576248873+576586146+577847503+579473537+580705047+581026553
1798+580704523+580626154+581533482+583255513+584387244+583612917+581726234
1788+580654546+581264745+582982762+584734873+586051095+587159146+588320025
1778+589647708+591537300+594655377+598932936+602546596+603410696+602062242
1768+600492528+599755378+600222104+602150444+604985181+607225894+608263953
1758+608962645+609880794+610945500+612644493+615776009+619868496+622979533
1748+623929798+623468542+622945556+623298654+624860340+627165226+629178161
1738+630752297+633325919+637897117+642316753+642992347+640654182+638346562
1728+637319324+637470652+638519184+640266059+642685677+646092679+650761911
1718+655939119+659346063+659308478+656848657+654075068+652439202+652510881
1708+654327689+657523844+661289006+665306149+670349483+676319344+680465241
1698+681023484+679628835+677396501+674705994+672901927+672934974+674429926
1688+676889049+680827066+686374419+690655237+690477902+687600577+685421187
1678+685729719+688478756+691805527+694024480+695987321+698942900+701602746
1668+701940717+701239116+702262631+705335501+708190253+709060694+708950907
1658+709603112+711787506+715679095+720055154+721552376+720776304+721925546
1648+725427441+727700153+726008085+722985540+721766830+722606086+725028613
1638+729309372+735262477+739939273+740110906+737680466+736563339+738348206
1628+742137280+746465981+751164070+756279083+760525399+763253200+766382448
1618+772212850+779767611+784463198+784774000+783990597+784717448+786810847
1608+788922456+790438063+791550303+792418184+793098025+793782288+794817381
1598+796442134+798206172+799135434+799035829+798720664+798616811+798681974
1588+799671743+802477448+806248836+808917991+809519754+808882966+808513868
1578+809771094+812966086+816056992+817046297+817137408+817994467+818940776
1568+818191874+816239156+815542850+818012329+824338139+834318685+845025675
1558+849490750+847318982+844784283+843415117+841545074+838612768+836240858
1548+836795436+841207451+847690175+853104061+856650232+860193784+862733080
1538+860947340+856843624+854430232+854418886+854201931+851930673+849395858
1528+848948099+850828731+853750100+856679787+859528139+862744367+866616000
1518+870350675+872440409+872471826+871822297+872015224+873758376+877468150
1508+882931432+887700386+888903911+888056335+887688517+888174965+889481645
1498+892266114+896478279+900474069+903406841+906373299+910151028+913754390
1488+916008891+917408253+918866028+920525341+922210602+923544860+924353106
1478+925864698+930198693+937641514+945214776+949420250+949887208+948378990
1468+946309562+944585436+943915311+944418748+946027851+949001407+952970202
1458+956051567+956114169+953754594+950773474+947177618+942296375+936663904
1448+932526211+931891867+933951288+935736446+935486967+934283674+934388283
1438+937053831+941136776+943333039+941975800+938621858+935089593+932095848
1428+930355722+931003215+934271864+938542558+941505758+942499949+942747392
1418+943648261+945362031+946767735+946503245+943777132+938946041+933831261
1408+931121787+932353647+935977198+938588870+939513070+941521350+945780350
1398+949379640+949295569+946595404+944265966+943370216+943386390+943906816
1388+944252235+943079022+940124025+937841365+939294427+945059666+953054680
1378+960555333+965791303+968376212+968919794+968349856+967892905+968423746
1368+970077764+972949039+977101277+981641813+984629158+985311850+985147083
1358+985455906+986324776+987931494+991210091+996448446+1002004235+1005396402
1348+1005611205+1003702413+1001711005+1001631181+1004785039+1010912046
1340+1017858237+1023302901+1026442330+1027171916+1025643509+1023908096
1331+1024913691+1029045101+1033835348+1036638377+1036802796+1036058548
1322+1037218322+1041622017+1047191304+1049731124+1047736108+1044279478
1314+1043427131+1047254721+1055285516+1063875195+1067686611+1065450960
1305+1062125353+1062659335+1066859747+1071410174+1073741823+1072870393
1297+1069156720+1064877532+1063005976+1064031468+1065137367+1063128970
1288+1057889683+1052385675+1049017479+1047116833+1044610061+1040526708
1280+1035233663+1030145763+1027315157+1027575341+1029407915+1030747933
1271+1030943187+1030176831+1028494712+1025747536+1021852922+1017694865
1263+1014643289+1012090786+1008067244+1002701356+998356074+996828599+997403889
1253+997029555+993498453+988344925+984966257+983581906+980365446+972611882
1243+961729477+950418281+940272211+932094976+926070018+921461584+916870605
1233+911072785+904093664+897002370+890603194+885291007+881447999+878712518
1223+875704345+871706751+867625318+864557742+862701662+861806785+861394517
1213+860834062+860244867+860456237+861416567+861988192+861806552+861797011
1203+862574304+863981579+866498940+871520456+879385145+887661463+892658252
1193+893731220+894344502+897396021+901548841+903632291+903559041+904363273
1183+907869880+912622485+915827950+916453159+916083654+916857108+919626508
1173+924756298+933236306+945280811+958762786+970691105+979226501+982720949
1163+980130512+973921994+968853294+968053426+971876711+978656447+985562493
1153+989942567+990781765+989404512+988638971+990042289+992062089+992895469
1143+994290060+999002345+1005979954+1011179561+1012988049+1013421262+1014231486
1133+1015139454+1014990511+1014240213+1014726604+1016773284+1019307867
1124+1022287881+1026693903+1031439236+1032753188+1029168909+1023969070
1115+1021522107+1022310804+1022220857+1018843934+1016210095+1019769472
1107+1029778061+1041311798+1050862738+1058832792+1063874497+1061986883
1098+1053800746+1045302061+1041056734+1042543134+1047880629+1050124192
1090+1043734674+1033579935+1028410233+1030647513+1035980586+1039372287
1081+1039051013+1036269279+1033080745+1030673811+1029149942+1027949908
1073+1026790949+1025155490+1021803119+1016680311+1011993508+1010243783
1064+1012143382+1016377539+1019672427+1018987291+1015958289+1014612802
1055+1016423269+1019048264+1018960877+1015669014+1012081361+1011057149
1047+1012687371+1015424074+1018481934+1020467756+1017923748+1009714920
1038+1000385882+995400845+995486952+996654988+994980548+991260126+990111174
1028+993837879+999249148+1002616645+1003513791+1003004129+1002591860+1004270722
1018+1007729912+1009544567+1007506033+1002478175+996221309+990527399+986651402
1008+983626589+979062082+973367009+970394965+972142189+975069375+973197063
998+965103666+955385980+948475687+944291623+940254059+935502792+931665253
988+929390680+926560190+921340569+914871343+909506154+905995008+903320559
978+900433808+897471190+895151817+893378936+891132987+887821227+884048152
968+880607463+877571304+874892026+872731138+870648677+867858215+864947611
958+864019920+865982063+868659305+869223890+867959741+867697055+870300524
948+875080822+879481376+880843851+879058810+877539305+879942923+886241971
938+893119101+898273560+903025466+909723400+918288061+926453952+932556232
928+936903143+940931747+945687320+951375470+957937843+964165851+966996457
918+963980429+956495544+948813309+944601668+945049601+948919140+953183260
908+954698110+952990449+950732806+950769867+953111232+955241576+954760829
898+951652235+948590244+948375907+950806172+953499064+956028935+960057306
888+965039318+968315181+968847592+967189443+964001025+961209284+962568617
878+969956108+978311552+980363584+976336201+970923653+967094841+964886419
868+963190743+961986694+961701318+961660010+961266825+961487038+962778998
858+964559269+967371897+972588609+980050921+987189574+990930824+991043811
848+990839015+992296324+992653903+989078700+984077024+982089107+982631350
838+981675558+978792008+977799911+980739315+985769849+989495157+989290943
828+986426010+987238794+996839188+1012207730+1023779168+1024827351+1017809016
818+1010796034+1009825696+1013188190+1013754754+1008977189+1004994722
810+1007541174+1013042273+1013903580+1009836518+1005819608+1005858472
801+1012338752+1022358861+1029733495+1034375731+1040686938+1048987924
793+1053914663+1052767457+1048848406+1043100737+1034222715+1023923340
784+1014725906+1006849988+999672587+993179158+989367160+990183784+993172991
774+993962270+991331223+987773591+986043182+986525848+987522600+986781378
764+983088534+978419186+978619327+988062167+1003013670+1013713678+1015094422
754+1010652676+1004841125+999057151+994690924+994111678+998015601+1001963858
744+999590319+991133991+983786935+982867797+988370874+998903438+1013830854
734+1031292271+1046810570+1054137379+1048742168+1032964267+1016783756
726+1009544800+1011824901+1015187278+1011309536+1003380674+1002152596
717+1012106844+1027282343+1036944989+1035873999+1028801207+1020315672
708+1009643474+996475908+985122298+981554426+987712967+998449512+1004669725
698+1002895214+999241817+1001494689+1010832804+1019822649+1020597965+1017262118
688+1017072216+1015055790+1004445031+992191948+987819787+992517178+1000631870
678+1004359971+1002258136+997606125+989316310+975471811+956608298+939120176
668+934698619+947806551+965504589+976461755+978993429+972332033+959629271
658+951240898+954683274+966236851+977328531+984818013+986648493+982720716
648+980398260+982140306+982353247+978063935+973667919+974370044+984453918
638+1001450239+1016416869+1027643528+1028680192+1013636647+990942111+972874509
628+966426636+968114341+969629831+965950194+955482909+939263475+923148708
618+912395872+906787080+902495033+896583469+890121923+887764559+896119013
608+916326791+935603270+938584506+930027525+928627524+942432634+961728197
##END=
