##TITLE=<SNM>
##JCAMP-DX=4.24
##DATA TYPE=INFRARED SPECTRUM
##DATE=29/4/2025
##SAMPLING PROCEDURE=Instrument type and / or accessory
##ORIGIN=Admin
##XUNITS=1/CM
##YUNITS=ABSORBANCE
##RESOLUTION=4
##FIRSTX=4497.3318
##LASTX=599.83466
##DELTAX=-1.4281778
##MAXY=2.0354309
##MINY=0.4318065
##XFACTOR=1
##YFACTOR=1.8956428e-09
##NPOINTS=2730
##FIRSTY=0.45797613
##XYDATA=(X++(Y..Y))
4497+241594114+241572246+240567989+239135494+237591078+235676688+233634357
4487+232548332+233015041+234454689+236003051+237178499+237718815+237601564
4477+237322351+237653964+238891732+240341646+240868426+240207416+239229964
4467+238723135+238555513+238197817+237489454+236718504+236277548+236329806
4457+236713206+237126807+237366056+237391714+237339298+237425641+237658067
4447+237821712+237890509+238009348+237967199+237257751+235920890+234799303
4437+234606212+235173852+235902197+236518558+237066593+237457320+237467743
4427+237146600+236833978+236743328+236736882+236452371+235728160+234843056
4417+234179547+233859787+233786745+233849396+234124836+234960873+236485008
4407+237952515+238297193+237476500+236381624+235538559+234943312+234705824
4397+234847285+235050297+235272599+235971105+237223258+238143515+237692073
4387+235960367+234159958+233194721+232847921+232582605+232373871+232368479
4377+232456786+232484472+232456629+232536714+232889772+233336954+233512673
4367+233512987+233647799+233508459+232312636+230223219+228408739+227788967
4357+228317665+229445996+230871777+232556366+234073631+234644353+234187470
4347+233705764+234180003+235357841+236022655+235366142+233804495+232378540
4337+231658150+231523810+231780684+232420218+233159977+233302602+232600716
4327+231865517+231943228+232456881+232440703+231891583+231659911+232005957
4317+232363448+232525898+232992763+233911621+234608979+234615331+234409222
4307+234505312+234548892+234149896+233902487+234696013+236452591+238090895
4297+238516272+237522501+235949786+234989974+235181729+236041049+236620198
4287+236353593+235518420+234919699+235063377+235664473+236005535+235730110
4277+235151921+234796992+234852568+235119330+235331256+235424987+235566481
4267+235921016+236376845+236573803+236323973+235887718+235673245+235750925
4257+235749557+235362023+234864768+234838859+235533701+236814342+238384526
4247+239651379+239806393+238619562+236876285+235598537+235102775+235123543
4237+235503154+236330466+237528129+238638852+239095656+238703719+237869285
4227+237233351+237058198+237068669+236846288+236295565+235745643+235597043
4217+235825775+236053328+236173786+236517410+237249702+237913054+237743199
4207+236518983+235124282+234862787+235999167+237464033+238135434+237865166
4197+237236936+236880451+237034553+237402373+237428156+236825583+235822835
4187+235039575+235124723+236176694+237469567+238073020+237773887+237176628
4177+236939784+237187460+237702449+238325947+238981911+239581811+240015598
4167+240051852+239423842+238237341+237002890+236134073+235740549+235841858
4157+236314069+236755701+236881536+236896849+237139588+237551444+237831444
4147+237967969+238209200+238576689+238847854+239002663+239223739+239457910
4137+239503094+239547664+240095935+241174586+242053653+242129211+241740639
4127+241623435+241830204+241682296+240685900+239183272+238064295+237965658
4117+238836723+240206033+241543743+242316076+242165307+241202995+239826752
4107+238390264+237333953+237204424+238129445+239576827+240865722+241689119
4097+242035464+241881079+241197949+240229143+239503392+239430728+240036099
4087+241128365+242421332+243443150+243709771+243143168+242188339+241456315
4077+241285706+241606330+242147919+242685626+243103094+243349450+243339199
4067+242974382+242412418+242078446+242150136+242323859+242305543+242109685
4057+241800915+241440484+241212884+241126746+240865109+240363625+240103702
4047+240492101+241350557+242172178+242582178+242469392+241916452+241216500
4037+240894681+241441050+242816145+244243311+244779052+244234711+243256080
4027+242509718+242175259+242188701+242553927+243281879+244240795+245120082
4017+245543069+245330231+244606461+243597299+242547245+241846507+241845312
4007+242516242+243602833+244890863+246020578+246497473+246254215+245719102
3997+245172498+244590048+244107414+244013368+244301339+244669127+244908361
3987+245066771+245231437+245273540+244902245+244045990+243165068+242940785
3977+243557838+244568572+245513104+246280108+246737682+246622490+246096418
3967+245810821+246109766+246603404+246716017+246376355+246018864+245970520
3957+245988584+245592670+244823135+244335800+244667005+245673007+246699573
3947+247131961+246855593+246318971+246072899+246212726+246431003+246589837
3937+246863061+247282526+247580259+247661633+247870776+248425981+248946661
3927+249011087+248755849+248514477+248287852+247967951+247719724+247797687
3917+248194985+248583038+248565996+248095798+247591799+247444142+247524794
3907+247551740+247708829+248430178+249683920+250926436+251749079+252038197
3897+251671037+250721899+249862689+250014826+251200037+251987118+251386651
3887+250548837+251085176+252596624+253275289+252871876+252455791+252089999
3878+251192538+250290989+250432435+251564272+252876058+254000427+254625435
3868+254339885+253568636+253102101+253003763+252896464+252730760+252423232
3858+251740070+251299680+252806836+256580417+259254076+258610611+256168703
3848+253714233+252169047+251970154+252927231+254193565+255117093+255790727
3838+256411946+256852006+257255859+257980699+258831467+259076297+258466257
3828+257572742+256830436+256187050+255994006+256978658+258633690+259608140
3818+260191643+261417400+262596731+262271014+260650474+259027702+258499492
3808+259449148+260987370+261731374+261632910+261561424+261670390+261596357
3798+261550860+261729456+261847933+262062751+263093185+265048261+267098123
3788+268517050+269347459+269892492+270348635+271100845+272612026+274716724
3778+276642858+278014809+279158233+280542824+282565268+285466668+288955580
3768+292435563+295742703+299059748+302566772+306600308+311550847+317140842
3758+322363865+326692871+330726250+335819414+343364785+352732275+360399864
3748+364732297+368307772+374084129+381202410+386188762+388663765+390902693
3738+394778165+400625049+407010394+411969988+414989646+417031301+419184295
3728+421760104+424134740+425541373+426403445+427954715+430399784+432659622
3718+433877031+434559218+436284871+440264577+445773291+450498070+453543007
3708+456075959+458897651+461851499+464589993+466757954+468150155+469189597
3698+470596135+472513465+474200380+474604643+473414872+471782730+471764022
3688+474007446+476891710+478866769+479864706+480484982+480866259+480899369
3678+481013727+481770182+482823742+483408235+483915693+485260824+487034239
3668+487918006+487665174+487087503+486924629+487583044+489176417+491381796
3658+493621133+495313897+495980488+495727058+495857672+498594028+504575205
3648+510256541+511975874+510457965+508184701+506303656+505044208+505259655
3638+507800027+511818156+515392594+517629007+519087300+520722869+523207179
3628+526137947+527898596+527943622+527508263+528345904+531542019+536299907
3618+540008480+541073139+540602941+540589106+541965679+544463635+547306709
3608+549445963+549825731+548531664+547545549+549240389+553933818+559896349
3598+565638780+570322336+572679805+572075596+569836542+568016309+568116549
3588+570591237+573796282+575196437+574800193+574680961+575412073+575427103
3578+574004937+572744011+573338786+575508729+577852991+579953193+582467122
3568+585414209+587325061+587124581+585777878+584831885+585231525+587365183
3558+590938614+594438405+595501366+593239422+590122291+589689384+592363358
3548+595302647+596250527+596058347+596645325+598120880+599267417+599231761
3538+597712939+595265984+593485620+593242440+593633339+593710563+593959529
3528+594997776+596094444+596479872+596660229+597466552+599138061+601264926
3518+602855563+603230364+602718032+601747576+600046322+597296194+593972420
3508+591425917+591430382+595225360+601875486+607640429+609100830+606848255
3498+603954998+602312921+602026789+602832862+604258486+605106943+604666301
3488+603868970+603886201+604419914+604462425+603972732+603904375+604663849
3478+605421499+605071413+603441535+601702361+601334352+602781044+605219320
3468+607120803+607211862+605451369+603199109+602373731+603868342+606573318
3458+608498005+609015242+608688361+607271540+604333760+601435473+600858683
3448+602618798+604735853+605583053+604873762+603333119+602057981+601374599
3438+600415714+598378524+595815733+594367596+595373645+598308972+600710209
3428+600837616+600037330+600706059+602489316+602354991+598767096+594298169
3418+592638546+594312382+596746319+597751488+597614460+597762368+598660693
3408+599291314+598267971+595569409+592895058+591906240+592944487+595585759
3398+598815644+600700776+600091474+598579319+598810739+601061553+602758782
3388+601902087+599660140+598445561+599039959+600607391+602239784+603488070
3378+604145480+604184092+604061087+604860179+607257202+610207119+611670035
3368+610816232+608567745+606254612+604940358+605729703+609242449+614175663
3358+617471830+617290844+615239378+614434564+616136321+619069761+621264481
3348+621799703+620892385+619476130+618703262+619008196+619787416+620130585
3338+619717298+619196162+619904887+622476419+625381372+625882448+622990009
3328+618674020+615910937+616162230+618143137+618870099+617127781+615300818
3318+616187133+619184277+621184867+620428601+618099180+616522566+616840266
3308+618389210+619795528+620298364+620005001+619470974+619321934+619748993
3298+620355024+620793528+621102298+621312589+621530111+622268707+623643142
3288+624443491+623553089+621962263+621447605+622074012+622892661+624189244
3278+626778069+629827598+631444144+630978536+629344382+627382655+625329492
3268+623619748+623127226+624415130+626967545+629552975+631369058+632270339
3258+632001502+630222333+627455288+625043109+624027941+624617874+626331265
3248+627972588+628006609+626168767+624049951+622925488+622298766+621582432
3238+621550486+622778523+624210562+624727862+624736477+625011226+625711335
3228+627240595+629841873+631721282+630315278+626642613+625187809+628194575
3218+632493962+633335564+630411431+627471701+627082752+628404740+629196726
3208+628547617+627302412+626448861+625944265+625115616+623892673+622962150
3198+622517421+621962012+620927601+619827286+619215908+618885506+617940267
3188+615838744+613430087+612239845+612591063+613432036+614049513+614798359
3178+616079409+617606468+618353553+616862968+612643698+607117344+602395050
3168+599702336+599069955+599685923+600711090+602066533+603584160+603898967
3158+602100429+599547951+597926374+596944787+595538595+593709494+592163066
3148+591232920+590563750+589515756+588021963+587059620+587629995+589252516
3138+590256112+589639830+587980144+586443212+585523002+585127638+585238380
3128+585631794+585575637+584478340+582340470+579416336+576207266+573596682
3118+572316135+572544663+574258368+577281295+580480366+581848576+580538599
3108+578058817+576449754+576148782+576186325+575642173+574528337+573589890
3098+573275775+573024671+572172252+571100424+570437732+569892322+569099456
3088+568601399+568878035+569317608+568804961+567016548+564997154+564269501
3078+565320074+567206212+568589137+568747735+567616102+565650665+563789681
3068+562739675+562314377+561838582+560844732+559439546+558352625+558283262
3058+559017393+559597830+559536579+559411310+559840255+560293537+559718948
3048+558131204+556569368+555719213+555514079+555771471+556306631+556720609
3038+556820661+556646718+555942773+554506206+552901294+551752494+550667774
3028+549031167+547454868+547161568+548160826+549283025+549857425+550040549
3018+549635187+548112906+545788265+543618888+541862106+540064700+538346090
3008+537606614+538242140+539375785+539776116+539238316+538471862+537838538
2998+536975365+535648283+534290261+533469285+533192461+532972423+532498640
2988+531944049+531444735+530685638+529507785+528579777+528661906+529390439
2978+529587838+528677753+527112396+525535814+524232188+523309809+522789082
2968+522491411+522254174+522210531+522639822+523487273+524060855+523471803
2958+521633521+519591646+518471710+518336882+518433161+518222713+517701263
2948+516951725+515925709+514718865+513851259+513943670+514872999+515652061
2938+515575780+514955536+514260269+513381533+512268608+511365503+511004318
2928+511100030+511531051+512232323+512902813+512995004+512067531+510129574
2918+507703372+505505822+504028663+503375812+503338207+503491302+503354746
2908+502738526+501969022+501524922+501377108+501025136+500178502+498901792
2898+497278926+495537802+494273575+493988576+494515528+495164480+495393228
2888+495224001+495004341+494847315+494545022+494062089+493697728+493619184
2878+493542620+493043368+492131868+491346108+491070385+490939173+490329777
2868+489325520+488609878+488468416+488455084+488065820+487386903+486856995
2858+486569449+486256528+485888991+485736996+485791518+485657068+485066883
2848+484134945+483194674+482603547+482485352+482481328+481973052+480692537
2838+478983328+477409891+476246406+475528940+475363267+475772058+476458426
2828+477092725+477555472+477575281+476584261+474522545+472421023+471460566
2818+471598129+471737295+471158399+470113486+469136364+468566649+468603468
2808+469082502+469374733+469018233+468199898+467287548+466278889+464999695
2798+463584195+462510229+462117286+462144641+461907530+461059324+460020543
2788+459437150+459367409+459308391+458958525+458480214+457923517+457016198
2778+455790834+454781609+454309964+454124325+453903784+453551874+452958074
2768+452084242+451284553+450982260+451038920+450869694+450149399+449102599
2758+448167391+447567333+447186056+446855590+446691803+446850905+447058429
2748+446880084+446362910+445853880+445330511+444494600+443419722+442574755
2738+442179737+441934953+441515976+440979055+440408114+439554154+438255308
2728+436902097+436037069+435726004+435644378+435587309+435632555+435817628
2718+435818509+435161351+433784054+432171061+430901425+430226313+430004231
2708+429884937+429674332+429543372+429705869+430016809+430129532+429898426
2698+429375781+428561062+427483322+426481203+425977927+425916865+425839515
2688+425544203+425211599+424904496+424538153+424264725+424222497+424066792
2678+423373914+422334504+421536922+421223781+421118699+420860646+420341082
2668+419640281+418872475+418170951+417680189+417485652+417580326+417817784
2658+417853566+417322966+416263935+415238863+414774293+414727285+414504669
2648+413934514+413497865+413549337+413779060+413695767+413267671+412807157
2638+412490181+412232789+411880753+411373295+410761666+410128247+409559853
2628+409200900+409180902+409404902+409564003+409467002+409185021+408752680
2618+408015060+407006903+406180079+405977649+406385968+407012532+407399815
2608+407307247+406899557+406575506+406521833+406598774+406630248+406521959
2598+406132946+405348507+404302808+403334207+402676797+402274484+401941157
2588+401641506+401505138+401621005+401951785+402379284+402709435+402719057
2578+402337622+401745362+401208096+400845496+400584802+400304456+400022885
2568+399911608+400032066+400118188+399815738+399160247+398635966+398702940
2558+399333623+399992762+400103253+399633463+399136601+399087142+399357017
2548+399508320+399378807+399128835+398886693+398649864+398442404+398297734
2538+398121654+397813072+397507006+397448931+397629760+397798106+397808450
2528+397709971+397541562+397276718+396931380+396575791+396288686+396155587
2518+396216398+396356665+396370343+396254381+396323304+396799854+397388561
2508+397597688+397418212+397253859+397264235+397244017+397070201+396823405
2498+396521772+396097795+395645425+395459817+395786164+396537840+397231189
2488+397338126+396829159+396226240+396037205+396319248+396801929+397187169
2478+397316745+397272002+397282158+397362212+397212512+396679176+396042393
2468+395646997+395537450+395564743+395587099+395539117+395495191+395570717
2458+395666272+395553800+395256476+395031784+394984903+395010309+395036312
2448+395045305+394989210+394921608+395035400+395372846+395680924+395724882
2438+395583577+395459817+395394573+395370456+395459817+395663002+395841252
2428+395943599+396053586+396157160+396147444+396077200+396123390+396291673
2418+396423859+396538406+396868903+397396767+397624698+397144783+396267745
2408+395751420+396041544+397015773+398246514+399253318+399693519+399567653
2398+399172509+398789943+398557296+398592324+398957534+399486153+399923116
2388+400232578+400460193+400363412+399608215+398328360+397021464+395832511
2378+394404937+392652149+391299157+391271393+392709689+394865671+396855288
2368+398257047+399153801+399946258+400928505+401871291+402255776+401892547
2358+401016891+399880448+398757053+398355055+399448736+401690557+403510539
2348+403551446+402086204+401153165+402545963+405466638+407658905+408352537
2338+408612099+409394180+410364416+410690322+410388187+410293543+410814679
2328+411381753+411210074+410063003+408269590+406465770+405248895+404764862
2318+404692449+404681193+404626513+404567023+404593121+404854789+405443842
2308+406290035+407273383+408292481+409148139+409595729+409638177+409574474
2298+409680908+410016499+410535025+411160426+411746177+412168110+412481251
2288+412838317+413248208+413552324+413635711+413550438+413436551+413420138
2278+413587792+413928602+414234857+414200018+413747491+413123977+412530145
2268+411895405+411210043+410782419+410900896+411486081+412284952+413157904
2258+414023780+414784512+415449027+416176303+417106544+418176611+419112605
2248+419648425+419777844+419717097+419599626+419296358+418600494+417557908
2238+416486425+415612845+414901134+414382796+414323180+414788756+415362402
2228+415553575+415288197+414878998+414692038+414886010+415395291+416142628
2218+417146979+418346592+419530734+420592280+421661813+422889724+424263562
2208+425744526+427444553+429467594+431620337+433545622+435201786+436949104
2198+439067511+441443908+443825085+446138030+448465281+450867273+453265743
2188+455429523+457179356+458671608+460258283+461964316+463374345+464181612
2178+464590056+465049721+465763036+466504021+466910076+466933029+466847756
2168+466805339+466615203+466023132+465000795+463681763+462127757+460303341
2158+458289230+456308951+454418411+452392100+450034223+447418671+444749382
2148+442036388+439061631+436032510+434119456+434556577+437199138+440682800
2138+443917213+446761261+449516609+452430744+455454520+458261969+460713452
2128+463005896+465213287+467239755+469256916+471638721+474513144+477627916
2118+480531706+482938509+485013116+487094075+489220500+491217506+493041513
2108+494827411+496802942+499208612+502194846+505870687+510386338+515760822
2098+521628176+527229144+531754825+534882584+536927949+538310056+539063367
2088+538964573+537785713+535354040+531727281+527440409+523368796+520121523
2078+517600362+515329393+513050815+510758340+508478661+506276584+504173741
2068+502098913+500163567+498585381+497177522+495492241+493402133+491007813
2058+488387356+485817459+483682135+482055810+480836357+480042013+479567036
2048+478991409+478007433+476876995+476217007+476314920+476905765+477753342
2038+479015337+480809002+483016330+485728349+489290681+493851453+499294231
2028+505404450+511800108+518023553+523818179+529033373+533403380+536708792
2018+539038087+540755251+542162764+543132654+543197238+542109059+540168022
2008+537922113+535627216+533046000+529839131+526085406+522199777+518496581
1998+515119260+512235876+510042100+508641033+507962022+507700573+507476605
1988+507197014+507111772+507457708+508215766+509268383+510577763+512077907
1978+513583931+514967673+516288561+517683875+519295830+521271518+523584369
1968+525880272+527736539+529109654+530394288+532015362+534044251+536278777
1958+538593986+540948059+543163720+545101361+546945240+549041858+551627225
1948+554744544+558146045+561392909+564241643+566717588+568884198+570943524
1938+573311242+576149600+579101780+581722175+583893249+585823596+587928703
1928+590532873+593468641+596167957+598199048+599571345+600677068+602097285
1918+604153970+606390068+607955928+608732192+609470285+610753472+612294052
1908+613513348+614490155+615813653+617628478+619318098+620242773+620472244
1898+620556385+620822330+621140344+621260519+621220461+621355729+621927362
1888+622853860+623838277+624549140+624684722+624240244+623666536+623432788
1878+623560698+623764260+623801300+623561516+623105530+622724818+622683502
1868+622755884+622329392+621079911+619110197+616615386+613858340+611293600
1858+609382433+608261680+607691744+607227269+606365794+604766227+602624458
1848+600728886+599796602+599672151+599380486+598298973+596797005+595377544
1838+594163719+593152513+592295567+591377557+590135246+588459335+586475158
1828+584541100+582971279+581695889+580386100+578944440+577643267+576735256
1818+576213618+575939812+575777063+575631042+575531179+575558157+575598216
1808+575452446+575243099+575346735+575900697+576622691+577185520+577654272
1798+578374379+579486580+580815800+582136468+583274703+584067318+584529592
1788+584934892+585554696+586481446+587760735+589536446+591868822+594469408
1778+596846811+598806086+600656002+602825630+605209950+607092881+608123834
1768+608686411+609201573+609820999+610609149+611601615+612771419+614114097
1758+615559216+616817124+617865307+619456384+622332096+625907854+628485989
1748+629465437+629928970+630801386+632124884+633792808+635833960+637925735
1738+639695472+641720399+645071277+649307840+652120100+652983712+653576978
1728+654836961+656462249+658108288+659873434+661794977+663745133+665886903
1718+668755193+672460496+675916142+678057660+679229980+680547629+682586140
1708+685126669+687876986+690736536+693688465+697089589+701288358+705356827
1698+708163112+710566739+713500871+716287348+718464836+720566736+722706619
1688+724756009+727849055+733648208+740975867+745911722+747740320+748472627
1678+749403590+751055982+753579532+756546491+759425535+762202956+765033326
1668+767748364+770052820+772011717+773894271+775569427+776528626+777031211
1658+778394452+781849029+787589321+793854207+796781674+795904730+794447159
1648+793966207+794515579+795442832+795933972+795841844+795694753+796296949
1638+798058636+799979299+799562742+795972332+791571636+788298800+786532271
1628+785963216+785993527+786035661+785521191+783933824+781632575+779898747
1618+779649467+780297821+780009300+778053170+775400829+773320751+772533733
1608+772645482+772563793+771992034+771800546+772689187+774319003+775961332
1598+777190060+777808795+777918657+778149826+779164805+780961582+782881490
1588+784084247+784270641+784105754+784528222+785682619+786975554+787931483
1578+788349549+787916391+786573084+785108219+784214735+783606125+782312875
1568+779894219+777011276+774357300+772369412+771634967+772643092+774615321
1558+774742099+772249615+769699904+768740642+769273915+770087218+770149790
1548+769818758+770294742+772024483+774138331+775668661+776919777+778439981
1538+779368430+779206184+778977971+779897552+782021713+784272150+786218784
1528+788611972+792060197+796026603+799823467+804062106+809615564+815427735
1518+819646753+822200048+824487902+827652826+831793677+836409128+841211665
1508+846455661+851717705+854993183+856111106+857363165+860186493+864071398
1498+867507360+870130270+873082766+876772410+880329616+883064966+885540472
1488+889199176+894580452+900711140+906221962+910277854+913062443+915584107
1478+918357943+920606745+921871444+923802483+928235124+933763365+937761213
1468+940486942+944315061+950490084+956317787+957716811+954776578+950533412
1458+947063680+944469886+942272903+940885513+940508449+940268728+938908064
1448+935989968+932659339+930920229+932048025+935471599+938920201+940809547
1438+942212092+944995990+948489241+950478576+950612900+949991901+949420519
1428+949030815+948843289+949004906+949342164+949533148+950306708+953052812
1418+956907406+958626708+957056571+953840081+951048511+950280988+952112038
1408+955318970+957581732+957777747+957201838+957895910+960214138+962462688
1398+962794914+961388910+959956431+959720734+960479957+961004488+960348525
1388+959019556+958625639+960226149+964044458+970142131+977309116+982848739
1378+985703132+987841758+990775639+993425590+994372212+994144753+994406485
1368+996112455+998846924+1001488448+1003553749+1005625023+1008554062+1012359353
1358+1016350096+1019617083+1021295195+1021483538+1021552650+1022753709
1350+1025232170+1028321945+1030727018+1031120118+1029941069+1029051673
1341+1028547705+1026874562+1024895038+1025717146+1030203367+1036113828
1332+1040727267+1042523101+1042014039+1041970774+1044922451+1050475595
1324+1056582889+1062107546+1066535974+1068848164+1068265337+1065600860
1315+1062910599+1061548238+1061076216+1060644818+1060610231+1061885181
1307+1064408039+1067397260+1070477288+1073100638+1073741823+1071230033
1298+1066617600+1062793254+1061466738+1061195951+1059251266+1054923769
1290+1050131923+1046902981+1044938110+1042036678+1037025674+1030945421
1281+1025051624+1019703111+1015135265+1011475051+1008553622+1006659308
1273+1006085851+1005666591+1003465771+998677509+991873879+984268201+977560597
1263+973239767+971274769+969831726+966451732+959930585+951412809+943736070
1253+939008305+936740574+934703762+930884258+924468508+915553733+904694525
1243+893005285+881972009+872582885+864808358+858132701+852414167+847902289
1233+844406396+840948298+836862221+832875252+830128142+828664094+827894622
1223+827805827+828551906+829670836+830785615+832175646+833915008+835443262
1213+836558859+837946312+840328935+843780493+847924551+852363481+856952143
1203+861735877+866437859+870201143+872422463+873765958+875568773+878346508
1193+881731470+885555501+889587937+892581560+893596853+893901284+895486261
1183+898479695+901877863+905827226+911536767+919727976+929928517+940486250
1173+949873738+958815617+969023956+978746815+982805537+979547038+974115013
1163+972258746+974569993+977810129+980179734+983344909+988820955+995103072
1153+999857816+1002723277+1004351583+1004926486+1004679218+1004137079
1144+1003416028+1002604297+1002731389+1004697141+1007532857+1009052810
1135+1008224728+1006335697+1005300595+1005511262+1006325258+1007516381
1127+1009122362+1010929830+1012983308+1015694006+1018649332+1020569428
1118+1021185207+1021680120+1023047889+1025904861+1029468481+1031096033
1110+1029845042+1029058905+1032413116+1038811321+1043981552+1046122441
1101+1045452391+1041191114+1033741016+1026184766+1022649821+1025229969
1093+1031894495+1037690882+1038728311+1034218949+1026316952+1019311646
1084+1016069310+1015593892+1014598973+1011534416+1008331697+1006793381
1075+1005391087+1001903055+997127056+993031672+988682606+982206171+975627923
1065+972890309+974485789+977701462+980833936+984077028+987120142+989455474
1055+991995563+994170788+991992356+984156704+976151386+973811651+976958087
1045+980934491+982757492+983956224+987114230+991995563+995950020+996825455
1035+994726448+991851806+989516662+985886759+979831534+974259651+972086061
1025+971872878+970782938+969665518+970932733+974022445+976763015+978732477
1015+980672697+982739884+984700919+985857266+983844475+976408652+964860780
1005+953124124+944224191+938740473+935407707+931944829+926219504+918237265
995+910406141+904604598+900006818+894495871+887519178+880666056+875733282
985+873070817+871618592+870354459+869442738+869305144+869002034+867078730
975+863855133+860898676+858396256+854995572+850120276+844625491+839317288
965+834393570+830261586+827601070+826517608+826784811+828620892+832106157
955+836351336+840269319+843616926+846538230+848925066+850888994+853171565
945+856708271+862162998+869512101+877641431+885304524+892592565+899917079
935+905988843+909525801+912504393+918162682+926383007+933798644+938046904
925+939346002+938439753+935866963+932593749+929740362+928016156+927568911
915+927723170+927190463+925831812+925362243+926719510+928106963+926985518
905+923426173+920304641+920472169+924119679+928607409+931025311+931176677
895+931562546+934395432+938766445+941508964+941384010+940480968+941097124
885+943336493+946378412+950197475+954909519+959866819+963717765+965224450
875+964839273+964157212+963468548+962125053+960430402+959367630+959425296
865+960952544+964528428+969379261+973323028+975181056+975273561+973989619
855+972346283+972359615+974625773+977456081+979249085+979665075+979225314
845+979481952+981655353+984798581+987427088+989500060+990882922+990414610
835+988210772+987040528+988766747+990718978+989253421+986630008+989153621
825+998150462+1006646480+1007658503+1004012439+1003950685+1010618419+1020043639
815+1026936379+1030317442+1032463299+1033760196+1031947823+1027299985
807+1024816493+1027433681+1030920707+1030038983+1025922909+1022889605
798+1021878839+1020680862+1018275160+1015303673+1011431534+1005000125+996517189
788+990240794+989317754+991535490+991741881+987098006+977968287+965223695
778+951291817+941331060+938704503+941401807+944632572+946186295+948149280
768+953298381+960841676+966698874+968862339+970075157+972950932+976406137
758+978176942+977475638+974993844+972575062+972189257+974317820+978717258
748+985895941+994823544+1000761613+999957867+995266261+993114367+996898403
738+1003483882+1004466098+995254627+982980926+978037021+981847218+987577951
728+989912781+990920842+993952448+997129886+996157104+991487445+988180399
718+988784167+991236907+993907862+998315412+1004980002+1010993911+1013434326
708+1012195850+1009258825+1005749537+1001457697+994969503+984539239+973654499
698+968306679+969674259+974094638+978122420+982112722+986655666+988101414
688+983551427+976189872+972017390+973659719+977286289+977075935+972495763
678+967542111+964266885+961894450+960246461+956858481+945912364+926621031
668+909496999+908388194+920748993+934389143+942592426+943728209+940558506
658+938117714+938308384+939023963+939062638+939174198+937712917+934799788
648+935534233+943004203+951072533+948295427+934423102+920311621+914490457
638+917102488+921837611+922139527+918894989+919387072+926029148+933636021
628+933424787+921308049+906207058+898307262+899326518+904634532+908249153
618+909111256+910491603+913467743+917818382+922626390+921700520+909437823
608+893250352+885135612+885809875+887031812+886280513+889097741+896521993
##END=
