##TITLE=<SNM>
##JCAMP-DX=4.24
##DATA TYPE=INFRARED SPECTRUM
##DATE=29/4/2025
##SAMPLING PROCEDURE=Instrument type and / or accessory
##ORIGIN=Admin
##XUNITS=1/CM
##YUNITS=ABSORBANCE
##RESOLUTION=4
##FIRSTX=4497.3318
##LASTX=599.83466
##DELTAX=-1.4281778
##MAXY=2.135833
##MINY=0.53003269
##XFACTOR=1
##YFACTOR=1.9891495e-09
##NPOINTS=2730
##FIRSTY=0.54604924
##XYDATA=(X++(Y..Y))
4497+274513923+276023614+276651469+275730887+273934492+272594313+272508553
4487+273548425+274984342+275957272+275909628+274760684+272940827+271377409
4477+270978276+271841025+273208743+274192940+274186287+273103985+271741033
4467+271371745+272501002+274316784+275759084+276579583+276997174+277054017
4457+276691472+276016123+275291213+274783757+274587547+274526988+274438652
4447+274541042+275116308+275820153+275811523+274764610+273376127+272616726
4437+272788695+273566194+274638727+275816917+276662706+276802462+276656053
4427+276866437+277009819+276100175+274349626+273109619+273036025+273312781
4417+272884463+271827182+271047765+271005754+271311606+271581829+272070496
4407+273128467+274458159+275276050+275254805+274964146+275150468+275845503
4397+276456997+276565919+276131788+275117986+273630648+272322531+272017668
4387+272821207+273928020+274460736+274287748+273809599+273273017+272755823
4377+272469419+272408261+272149214+271607719+271478900+272317137+273536169
4367+273962510+273296720+272413265+272064503+271872728+270959129+269287747
4357+267874903+267658526+268598944+269931273+270951578+271478001+271715712
4347+271765963+271505299+270930482+270233679+269528755+268855084+268479894
4337+268622287+268897514+268744663+268398659+268700675+269804492+270770170
4327+270708892+269797510+268884929+268465061+268233283+267626673+266735068
4317+266461968+267558353+269541759+270863331+270472619+269120603+268664747
4307+270044750+272308687+273709186+273451219+272114365+270694479+269820253
4297+269665365+269994859+270403640+270891258+271858195+273202420+274098460
4287+274181343+274075597+274178646+273925833+272879339+271663993+271091214
4277+271089626+271141285+271094720+271043390+271006084+271085251+271454658
4267+271994176+272334907+272267246+271788047+270947143+269973823+269254936
4257+268909890+268827666+269129083+269903915+270683691+270973032+270999851
4247+271266538+271801292+272366939+272799782+272798943+272076879+270922841
4237+270040795+269847461+270255223+270767803+270692201+269832149+268900031
4227+268653181+268894907+268985341+268893199+269008864+269461484+270138271
4217+270894794+271513509+271900086+272303653+272925664+273563707+273987590
4207+274221496+274223713+273819637+273010735+271988093+271064725+270677489
4197+270967639+271386937+271233218+270569885+270216509+270720458+271563700
4187+271629353+270529522+269164322+268620579+268908242+269195545+268946537
4177+268442827+268333785+268971677+270214831+271658359+272836549+273443967
4167+273593732+273598346+273425419+272804966+271986535+271793621+272665120
4157+274093276+275118345+275020780+273713022+272034359+271376540+272388903
4147+274186197+275238774+274966873+274057888+273382299+273193251+273287191
4137+273445885+273580217+273646230+273615846+273475340+273193101+272735657
4127+272162519+271667469+271475933+271763057+272646182+273963618+275021169
4117+275097520+274408387+273980728+274333625+274863434+274771292+273941714
4107+272713153+271452531+270538991+270263733+270559607+271075123+271552493
4097+271962173+272286723+272342248+272007121+271503591+271214370+271325330
4087+271780107+272540795+273734746+275346977+276665313+276474856+274444914
4077+271880369+270314494+269962616+270187713+270652408+271282749+271719008
4067+271485162+270546422+269482519+269130971+269869815+271209695+272256399
4057+272466303+271853611+270844303+270076872+269985569+270531919+271452441
4047+272537919+273602421+274366436+274489262+273852748+272877511+272383869
4037+272711236+273205686+273097333+272472266+271952075+271916956+272310605
4027+272809491+273109020+273319014+273869499+274737132+275175728+274544158
4017+273119118+271798955+271192945+271215868+271429967+271597441+271827271
4007+272243723+272729724+273062694+273078905+272687144+272028336+271633938
3997+272027707+273062904+273965836+274181673+273908483+273682188+273757130
3987+274027443+274329220+274658534+275091467+275579475+275991762+276303726
3977+276467065+276197950+275321237+274262278+273682667+273658156+273724858
3967+273782540+274387472+275862673+277560304+278366210+277765503+276198460
3957+274622966+273925383+274402484+275619748+276947372+278053706+278602003
3947+278093080+276700551+275542348+275381167+275670478+275597753+275436363
3937+275912025+276934577+277812848+278272629+278540755+278705232+278706221
3927+278744396+279061545+279446174+279409108+278881606+278403666+278529608
3917+279041948+278994993+277932558+276592018+275935518+276014355+276284429
3907+276767103+278127839+280563265+283328815+285582654+286769233+286201309
3897+283800402+281047438+279948056+281244877+283443670+284061187+283132515
3887+283077979+284770605+286216531+285923025+285049009+284372911+282994616
3878+281029459+280160357+281240681+283670025+286848760+290102498+291570867
3868+290240007+287723196+285929737+285057759+284323289+283547588+283048703
3858+283211352+285139803+290342217+296939646+298632063+294422985+288822158
3848+284900803+283562091+284565496+286874380+289285295+291478216+293744191
3838+295573397+295794868+294213711+291610151+288908187+286903746+285907983
3828+285584482+285608004+286596636+289713284+294381844+297145325+296207574
3818+294104129+292929086+291818048+289773693+287790557+287198241+288451163
3808+290825640+292679898+293642070+295374011+298404810+300245703+299305854
3798+297353192+295839396+294464756+293140848+292658023+293374574+294831017
3788+296630409+298724475+300879969+302810877+304792335+307249906+309931134
3778+312333869+314708346+317850495+322381096+328433824+335302825+341574417
3768+346448026+350187464+353083241+355470304+358185333+361704709+365348020
3758+368218806+370897008+375247611+382882844+393552113+403942288+410650138
3748+414712359+418884700+423635873+426820421+427551325+428136000+431011760
3738+437119383+445547248+453847792+459616992+461636087+460330157+457897427
3728+457097095+459165961+462526283+464396962+463732101+461230002+457703584
3718+453979128+451447665+451353065+453406709+455561185+456104868+455646525
3708+455294497+455162202+455533167+457184413+460065027+462729086+463844109
3698+463493400+463063584+464266914+467965930+473804409+480173835+484353728
3688+484744410+482726095+480271701+478267889+477319320+477810624+479408142
3678+481642654+483895115+484646814+483681735+483189322+484011888+483698875
3668+480473095+476369523+474011046+473997652+475165983+476101127+476549732
3658+477013498+477113281+476154555+475620700+478102422+483533708+486900054
3648+483750594+477751294+474453598+474766431+476114252+475972099+474470588
3638+473756914+475252372+478031256+479994915+480989150+483631664+489382255
3628+494468406+494872662+492433251+490781526+491608946+494743424+498707179
3618+501427721+502056505+501476744+500881461+501223930+503365731+506893377
3608+509128878+507913622+504968313+503715900+505457579+508768939+511518757
3598+513041214+514128460+515607766+517601150+519976587+522964386+526535662
3588+529248922+529364587+527675766+526890985+528321389+530417253+530499897
3578+527925553+524444772+521751228+520245552+519784932+520481316+522671929
3568+526195860+529478094+530623352+529977968+529511355+530048925+530667700
3558+530463280+529749276+529367284+529585967+529957292+530261196+531202214
3548+533246119+535326761+535964773+534908870+532571609+529556602+527428436
3538+527612839+529063679+529041086+526797195+524469103+523872023+524521422
3528+525049523+525015363+524811422+524464309+523414159+521615846+520045446
3518+519744599+520794449+522210050+522651433+521748231+520592126+520268445
3508+520581339+520955600+521386915+521601403+520723252+518845772+517641363
3498+518494164+520702097+522156053+521967694+521456133+521909143+522818997
3488+523486674+524923551+528011492+530819562+530209357+526159602+521795636
3478+519028977+517207951+515761786+515440143+516654679+518541509+520064384
3468+520969444+521670263+522731439+524023465+524386879+522965825+520600936
3458+518655195+517043204+514871829+512433346+510929947+510741888+511129154
3448+511337590+511508330+512337158+513596523+513434653+510605188+506952228
3438+505386742+506124778+507003768+506829072+506395181+506598882+507379408
3428+508313833+509153149+509787866+509981978+509225544+507293768+504881894
3418+503074172+502361367+502506397+503065003+503867882+505029681+506436832
3408+507435802+507360530+506066945+503809331+501154202+498962060+497791692
3398+497458692+497729694+498948037+501295546+503914268+505328371+504625335
3388+502170012+499496874+498325187+499188685+501000422+502232009+502494681
3378+502582838+503089694+503651296+503887479+504573376+506859037+510133061
3368+511938386+510966984+508858654+507914401+508528202+509524894+509924505
3358+509941466+510647199+512654187+515188438+517123450+518395879+519268996
3348+519207508+518101684+517412611+518266671+519607300+519712537+518419492
3338+516736004+515278572+513993857+512775125+511851008+511709034+512508498
3328+513617139+514183715+514043179+513670536+513513880+513619776+513673533
3318+513277097+512385522+511565263+511623455+512759124+514189588+514895920
3308+514521779+513437229+512369341+512068433+512772848+513854640+514410669
3298+514121268+513296934+512596954+512810304+514070567+515317766+515516014
3288+515082721+515030642+515490004+516123522+517033196+518387249+519956990
3278+521540634+523012989+523649144+522496155+519917317+517739109+517345550
3268+518390725+519566308+519915758+519196481+517585269+515686094+514455856
3258+514390712+515024530+515679502+516284973+516991125+517690146+518550678
3248+520094529+521936950+522520966+521073002+518660709+516736304+515890155
3238+515864266+515815902+515055274+513983729+513563861+513878552+514198098
3228+514109702+513477263+512081977+510368226+509432602+509503379+509553780
3218+508966408+508355844+508404267+509048752+509738004+509896039+509471257
3208+509140384+509392689+509643075+509004044+507565070+506134007+505164163
3198+504617784+504311363+503905398+503216386+502658949+502765833+503358479
3188+503550135+502506457+500238804+497730144+496057953+495447868+495356236
3178+495098268+494208580+492686664+491091483+490046158+489528964+488997986
3168+488188814+487375297+486859991+486471856+485727228+484562313+483524869
3158+482923204+482528896+482419794+483046329+484038197+484132317+482842089
3148+481099511+479845120+479126502+478704956+478416275+477984541+477399176
3138+477144894+477396060+477572074+477175369+476297218+474996921+473170921
3128+471191230+469679771+468711306+468031852+467728188+467972911+468416392
3118+468406234+467679945+466639414+466038079+466407576+467552414+468443780
3108+467985257+466307852+464900791+464868219+465537875+465465060+464379642
3098+463233485+462586333+462109652+461499836+460999782+460994898+461448087
3088+461822918+461591828+460830421+460175148+460132988+460509586+460609400
3078+459970308+458762633+457506835+456647861+456398134+456702577+457226873
3068+457493950+457228431+456689063+456443411+456571870+456455846+455771448
3058+455118483+455061101+455198280+454801665+453829753+452807501+452083579
3048+451548826+450973141+450399643+449983910+449660259+449374154+449335769
3038+449553584+449587684+449220165+448768504+448436403+448019891+447420653
3028+446863816+446544690+446375088+446050808+445315440+444240509+443188262
3018+442500179+442346848+442722698+443291761+443465288+443019141+442327341
3008+441769545+441405322+441286301+441387822+441238117+440386186+439188939
2998+438405507+438208547+438145411+437721738+436744882+435488395+434548006
2988+434194990+434015291+433425941+432349153+431263435+430759156+430997736
2978+431534947+431806878+431732086+431613904+431612406+431599222+431404720
2968+430979817+430424868+430040148+430123421+430514043+430709714+430577239
2958+430375486+430032567+429184141+427978684+427052979+426729747+426828512
2948+427083363+427286495+427190428+426573690+425441407+424167090+423357918
2938+423349948+423748600+423689360+422846148+422000928+422129777+423054823
2928+423569291+422878330+421266009+419414629+417819058+416823505+416627055
2918+417118809+417866912+418309134+418083798+417353404+416693847+416531946
2908+416792761+417127499+417273607+417124652+416706312+416228192+415988024
2898+416108483+416386976+416333609+415437509+413719951+411987322+411163796
2888+411385177+412016358+412462774+412633305+412645201+412488874+412193240
2878+412001825+412047072+412089382+411923137+411719555+411591665+411257257
2868+410464536+409315173+408055628+406987021+406474681+406614347+407058547
2858+407500828+408010681+408599941+408874089+408485415+407683974+407067926
2848+406866891+406771573+406481093+406098172+405807543+405459980+404812588
2838+404026040+403485623+403158047+402627279+401851578+401340017+401389010
2828+401640835+401625253+401341546+401079173+400898874+400498873+399672261
2818+398757703+398353297+398628914+399180058+399494300+399351727+398867225
2808+398319527+397870173+397445900+396967421+396517168+396199121+396016875
2798+395897614+395682886+395217172+394584493+394068198+393828689+393815864
2788+393930419+394052646+394033648+393860302+393692978+393586183+393293066
2778+392553473+391480969+390437292+389659014+389189614+388961012+388747662
2768+388331300+387893423+387878920+388308287+388610573+388302054+387526863
2758+386791165+386431166+386498707+386882647+387263381+387180109+386491696
2748+385608450+384963966+384506312+383997598+383476239+383072342+382652025
2738+382020125+381344207+381059361+381338424+381851303+382099622+381870450
2728+381332101+380808704+380525746+380500995+380561794+380415835+379835954
2718+378938236+378156632+377757889+377564526+377317285+377022341+376748882
2708+376393258+375878761+375400282+375271702+375547919+375879510+375828720
2698+375324950+374683611+374179992+373783047+373355388+372927160+372641804
2688+372575881+372747370+373153544+373673225+374077182+374199918+373962476
2678+373344540+372556674+371998278+371797154+371645711+371241305+370630021
2668+370065363+369768980+369805028+370011995+370109741+369959886+369646364
2658+369292898+368931851+368598402+368429310+368518815+368723295+368787810
2648+368655395+368472639+368325571+368170533+368013457+367950980+367945557
2638+367702931+366961899+365870698+364883774+364298051+364085480+364148646
2628+364460790+364886261+365092600+364836310+364282529+363837550+363655244
2618+363552704+363450404+363531758+363842614+364110830+364121707+363967837
2608+363834554+363790445+363822957+363882527+363845551+363523518+362797858
2598+361809856+360965026+360620789+360787094+361193328+361550390+361729191
2588+361804492+361905654+361955725+361718074+361209509+360813733+360823412
2578+361118626+361406259+361507331+361337100+360917771+360506923+360404623
2568+360548424+360592892+360435456+360335254+360460897+360648507+360670801
2558+360491461+360226152+360026526+359980739+360014120+359949965+359741530
2548+359567014+359636083+359944482+360255338+360317874+360082560+359700238
2538+359363223+359179238+359135460+359142681+359156615+359241625+359440652
2528+359639919+359692177+359661673+359796965+360209551+360714400+361048808
2518+361129084+361038650+360887177+360760935+360724168+360786675+360894429
2508+360965565+360919569+360698998+360337172+360031650+360048160+360432400
2498+360878487+361041556+360941863+360863655+360895088+360846095+360663429
2488+360619381+360910969+361293981+361335332+360928349+360403214+360189055
2478+360431411+360853766+361029480+360876630+360715239+360741907+360757699
2468+360582224+360404083+360495656+360814452+361066127+361040837+360778704
2458+360453825+360184501+359995632+359902471+359925604+360047351+360234452
2448+360472433+360748470+361037151+361285950+361393704+361283103+361018124
2438+360764261+360620070+360565624+360566103+360647518+360853646+361164083
2428+361506791+361853335+362210367+362505731+362635299+362651330+362712728
2418+362839150+362934618+363048664+363349482+363789726+364050780+363938622
2408+363668758+363616170+363855859+364085030+364013654+363751281+363743311
2398+364325259+365373401+366446863+367292652+368137242+369481227+371820736
2388+375702328+381855408+391048456+403809124+420284659+440281848+463470387
2378+489651730+518648363+549514596+579976244+607617715+631900303+653807693
2368+673653319+690908241+705454037+716800662+722842423+721067483+710857786
2358+693869491+672282965+646767802+616660400+584453957+557362761+541704128
2348+539745503+550751008+571022855+593468654+610997275+620993203+625174983
2338+626688569+627482879+627924561+628104590+628102193+627496543+625799811
2328+622985388+618871389+612547539+603177518+591429543+579332418+568409736
2318+558608101+549057512+539181564+528930156+518531920+508262713+498236910
2308+488376334+478629115+469133122+460122710+451803767+444337596+437783166
2298+432021157+426831448+422032721+417496396+413120474+408895155+404954682
2288+401517020+398767741+396766776+395430042+394564267+393884633+393091492
2278+392081256+391047797+390267391+389833889+389645141+389503137+389176010
2268+388553729+387827500+387340781+387162490+386968227+386457386+385735262
2258+385154093+384905324+384880873+384836855+384614275+384270069+384038260
2248+384129114+384531093+384994530+385225829+385128263+384864962+384692184
2238+384724486+384844106+384852616+384699496+384483149+384262577+384004190
2228+383674517+383267593+382810928+382409309+382152929+381956240+381638492
2218+381166785+380694089+380370408+380202305+380111392+380081247+380166287
2208+380347545+380490777+380478162+380317310+380152174+380195083+380547381
2198+381073624+381568254+382015570+382571239+383339719+384248074+385102493
2188+385707185+385946394+385868066+385746619+385931322+386519982+387249208
2178+387761667+387948259+388025149+388274786+388721353+389157762+389453605
2168+389613408+389600493+389398619+389178527+389161118+389398679+389838114
2158+390440379+391110454+391631873+391769441+391460893+390933421+390591282
2148+390733016+391372227+392289752+393195261+393886461+394390410+394990008
2138+395995749+397414767+398954153+400424230+401962058+403780687+405944602
2128+408467196+411374779+414628846+418175970+422001018+425973553+429845227
2118+433594674+437532809+441827017+446103247+449759173+452597927+454942889
2108+457143690+459188704+460884747+462193493+463185151+463854927+464261580
2098+464694932+465405789+466270217+466972534+467431805+467873488+468542334
2088+469341797+469671741+468784720+466409254+462821797+458351605+453148352
2078+447420204+441635602+436413680+432181170+428892853+426193046+423853478
2068+421881548+420313066+419173651+418505104+418205006+418049368+418006489
2058+418230356+418676773+419078303+419342803+419626690+419984201+420283491
2048+420517906+420893935+421528622+422299199+423091321+424023678+425310550
2038+426997184+428957996+431158288+433799424+437099966+441025007+445364163
2028+449950978+454666553+459412392+464203928+469104356+474042210+478875666
2018+483478753+487551910+490647493+492640578+493836027+494441617+494306266
2008+493305319+491657250+489739257+487782460+485810950+483786912+481734497
1998+479753038+477993410+476646518+475854396+475539855+475405582+475208353
1988+474997101+475033269+475494159+476252750+477025844+477810504+478951777
1978+480587171+482318602+483729229+484945085+486405184+488343313+490677278
1968+493141351+495412360+497297900+498846935+500278508+501926067+504118928
1958+506867008+509769407+512402062+514655602+516679790+518741135+521078935
1948+523707276+526524095+529591002+532838656+535655536+537564958+539087175
1938+541081877+543667847+546310691+548568965+550511289+552615603+555214158
1928+558035532+560658179+563144666+565683591+568144307+570500387+572916935
1918+575105091+576553175+577464287+578445877+579659934+581039578+582693580
1908+584583885+586324605+587640184+588658690+589685227+590958136+592580974
1898+594446169+596120127+597121794+597665896+598682185+600510343+602083500
1888+602214686+601235194+600362496+600303825+601069248+602222477+603082050
1878+603303251+603202688+603157681+603224922+603664028+605011309+607066002
1868+608397162+607869001+606093042+604366585+603137725+601960104+600358122
1858+598386731+596494209+595081364+594175766+593477164+592748178+592143667
1848+592138153+592999644+593995557+593446660+590813705+587768673+585953760
1838+585350806+584847696+583723233+582533627+582418562+583538410+584451020
1828+583761948+581767245+579334216+576708393+574084128+571966629+570539161
1818+569456290+568459598+567823443+567998139+568924234+569776016+569606115
1808+568349986+566844850+565999301+566282709+567638800+569452515+570790747
1798+571154101+571034601+571521650+573198186+575077823+575356077+574093896
1788+573139814+573603611+575161006+577104049+579071963+580731838+581859057
1778+583007492+585212788+589030255+593969787+598154504+599511374+598334293
1768+596609454+595726509+596228181+598118606+600521730+602146246+603007437
1758+604123569+605602277+607031183+609080301+612775572+617355106+620264636
1748+620395523+619484291+619523305+620948735+623161762+625516043+627570017
1738+629439766+632153686+636458322+640672943+641843012+640475894+639020979
1728+638485926+638820454+639791556+641082324+642689401+645477873+650493337
1718+656985829+661340327+661017066+657994687+655192251+654008697+655000895
1708+658229612+662523700+665673549+667166160+669252795+673728711+678815970
1698+681657061+682425660+681694697+679520684+677616056+677952741+680629505
1688+684538665+689402086+695069885+698807166+698221891+695747930+694555867
1678+695947796+699606150+703390056+705491973+707521615+711713523+716510183
1668+718193730+717134771+716975597+719351333+722640759+724510029+725187895
1658+726740196+730804154+737902596+745688074+747746782+744175027+741820086
1648+742608762+743696248+742225092+739576315+738233768+738690253+740597878
1638+743534737+746025359+745457584+741995321+739234296+739216497+741179736
1628+743221904+744605502+746247339+748401874+749830840+750404488+752077487
1618+756253394+761564731+764927031+765669561+765279838+764660164+764268103
1608+764736934+766249202+768080056+769349070+769901682+770183352+770553358
1598+771123890+772016544+773223050+774444959+775667586+777452355+779982170
1588+782388411+783742165+784216569+784631523+785334499+786142053+787161398
1578+788879345+790899998+791479459+790355296+789493865+790031076+791104718
1568+791267008+790306393+788780461+787718985+789379459+796358522+807435582
1558+812911786+808014324+800606524+795589802+793027445+791956919+792050470
1548+793756670+797368818+802288993+807894105+814799873+822595479+826047494
1538+822471305+817779882+816418876+817516011+818049446+817592242+818574311
1528+822435826+828391468+834706628+839903978+842419890+841947524+841695519
1518+844470987+848669847+851169218+851977072+853772508+858357615+865678877
1508+874442109+880972057+881317073+878291758+876551757+877203553+879475611
1498+882706485+886790160+891112955+894911065+898805601+903770004+908498763
1488+909882003+908023221+906739165+908305430+911531810+914738592+918706722
1478+924943914+932389350+938345771+941979014+944144456+944848391+944641214
1468+945939833+950985441+958951546+965051319+966145817+964788587+964205950
1458+964022864+961118248+955541542+951517377+950699516+951746189+952350641
1448+950471303+946009291+941140656+938524721+939700903+944354330+950692624
1438+956409385+959063315+957802573+955031000+953305742+952768291+952283879
1428+951320388+949996719+948157834+945731816+943795305+944075477+946721317
1418+949173943+949442728+948751738+948446635+947995903+946839199+945868037
1408+946157498+947452340+948338582+947927164+947018569+946993698+948281768
1398+949946198+950575281+949651883+947892165+946505390+946250748+946989802
1388+947786149+947724302+947381264+948952383+954101729+962168936+970484912
1378+976629752+980373206+983064952+985811654+988776260+991363249+992646105
1368+992134425+990826577+990514643+991841848+994120318+995917552+996206414
1358+995301953+993843083+992179552+991555563+993761279+998529651+1003767694
1348+1008564953+1013140951+1016597701+1018085038+1018897086+1020542878
1340+1022512170+1023665819+1024262599+1025416128+1027476873+1029833072
1331+1031548862+1032312966+1032949541+1034797895+1038390565+1042514933
1322+1045031144+1045195112+1044352140+1044142505+1045256960+1047903339
1314+1052277254+1057794749+1062379017+1063855687+1063286714+1064809649
1305+1069694525+1073741823+1072883629+1068369598+1064178469+1062334310
1297+1062423006+1063307569+1063829198+1063650967+1063210483+1062010689
1288+1059377135+1056342650+1053409207+1048888704+1042334184+1036570857
1280+1034249657+1034299039+1033641010+1031552458+1029878499+1029013712
1271+1026688197+1021515778+1015031256+1009111033+1004482716+1001547475
1263+999890357+997758175+993963901+989519209+986034053+983898575+982902482
1253+982695605+982009589+979188754+973775237+966336273+957227367+946699622
1243+935507317+924659487+914829266+905924420+897623426+890552252+885832123
1233+883019079+880022410+875758047+871170662+867479048+864792036+862328023
1223+859312177+855526892+851364410+847792475+846057088+846824010+849354904
1213+851767737+852687060+852747289+853682314+855858963+857966514+859504851
1203+861627144+864461104+866233347+866343558+866925776+870043143+875364308
1193+881413560+887062481+890989619+892279308+892700675+895590009+901577593
1183+907503570+910420532+910864012+910977459+912296573+916095882+922607432
1173+929887761+935643118+940060302+945690465+954546828+965599197+975164170
1163+980809015+983944302+986494553+988018807+987485792+985478084+984142909
1153+984481932+985608671+987142994+990197554+995592074+1002051545+1006333048
1143+1005778698+1001611540+997730008+996379671+997197293+999473965+1002730070
1133+1005696953+1007509110+1009377840+1012823203+1016369368+1017503359
1124+1017305831+1019059376+1023227492+1026748487+1027641920+1027601167
1115+1028791373+1030816160+1032453082+1034584305+1038964093+1044035471
1107+1044890070+1039800114+1033066284+1029029893+1027921552+1028355324
1098+1030628221+1036280078+1045149685+1053355151+1056136971+1052847545
1090+1046263061+1039079638+1032791566+1028129149+1026066366+1026639534
1081+1028449174+1029885091+1029174923+1025565832+1020596575+1015757365
1073+1012117590+1011347253+1012476809+1011183045+1005863798+1000580448
1064+999389884+1001819137+1004943157+1007636161+1010687546+1012848494
1055+1011234345+1006000438+999585794+993142144+987208137+983719625+984239576
1045+987143353+988969114+987847528+984995050+983022522+983306289+985496723
1035+989061885+993099954+994720515+991375294+985332515+982085280+985321488
1025+993979843+1002365337+1004699842+1000982098+995927201+992755297+990752744
1015+988399242+986541119+987042012+989516273+991242969+990726974+989438604
1005+987524686+981649291+970647082+958598380+949638159+943719854+938433208
995+932245519+925103987+917724354+911536005+907924936+906979963+907485111
985+907949447+907291778+905155641+901926684+897998587+893231173+887462213
975+881406668+876816886+875189193+875725145+875399008+872528970+868911909
965+866717879+865378149+863087573+859712388+856734957+855278603+855165156
955+855519101+855950656+856854397+858172852+859008453+859510784+861501352
945+866095509+872131456+877670646+882019510+885651974+889446488+894279105
935+900327338+907005134+913764493+920216533+925727556+930106026+934263714
925+938497873+940730257+938876629+934448118+931428496+932020123+934821600
915+937121046+937871307+937790222+938248505+940897161+946200527+951727251
905+954224465+953086099+950362351+948484511+948495358+949560550+949914196
895+948683718+946614402+945114300+945174769+946784483+949098791+951556811
885+954245800+956990644+958759292+958432075+955782280+952030856+950249982
875+953448854+961109738+968471931+970477361+967281845+964099275+965221400
865+970358161+976642218+981867255+984525501+983382460+979019632+975012967
855+975704317+981842864+989061765+991353180+987749063+984083219+985954526
845+992369769+997759014+998654605+995595549+990456092+985971426+985526747
835+989957476+995569300+998035411+998350941+1001242553+1008021270+1016036039
825+1024098631+1032583849+1038252966+1036987849+1031359004+1026754240
817+1024809758+1025606704+1028781904+1031518298+1032457038+1034517423
808+1037568089+1036625873+1033279394+1035306459+1044443473+1053349517
800+1053664988+1045352727+1034152092+1025052714+1020121691+1019252590
791+1022518643+1029269493+1034174146+1030266844+1019049668+1009170244
783+1005567625+1006242075+1006698380+1005261623+1002415618+996796722+987349212
773+977718916+972835958+972945329+973970009+972840692+970766942+970722894
763+973570876+977160371+979303819+980359003+982138977+985359723+988374790
753+989998468+991910647+995934992+1000770965+1003157968+1002674155+1001861987
743+1001581635+1001806192+1004842235+1011847427+1017387335+1013903497
734+1003278187+995598246+997928496+1008588685+1018593482+1021922461+1022409331
724+1024872205+1026882729+1023468770+1014481340+1003831819+995682807+992241340
714+993645794+998944366+1006392738+1013985362+1019608573+1020333483+1014675153
704+1005215418+996783478+991588345+988416202+985429661+982435989+981344847
694+983948077+990629948+999662804+1006666138+1008814261+1007962898+1008880783
684+1012138565+1011467232+1004485713+997768363+995781871+996074029+994609944
674+989998228+984136556+976465185+967789391+966829436+977468589+988776080
664+992091935+989720513+984953219+980774735+982571790+990854984+995422892
654+988417640+977877670+973010173+971692857+968610429+965743868+967225212
644+970597580+970235425+967111645+962500408+952981162+939826456+930638082
634+932502737+944667823+958431176+969696596+983151730+996404781+994679103
624+972036374+943914146+926147424+924665121+939530463+965599137+987980392
614+981187472+947353336+913706781+893783366+888016623+892668792+900623751
604+900179791+887819814+875491000+873637671
##END=
