##TITLE=<SNM>
##JCAMP-DX=4.24
##DATA TYPE=INFRARED SPECTRUM
##DATE=29/4/2025
##SAMPLING PROCEDURE=Instrument type and / or accessory
##ORIGIN=Admin
##XUNITS=1/CM
##YUNITS=ABSORBANCE
##RESOLUTION=4
##FIRSTX=4497.3318
##LASTX=599.83466
##DELTAX=-1.4281778
##MAXY=2.1735365
##MINY=0.49574164
##XFACTOR=1
##YFACTOR=2.0242636e-09
##NPOINTS=2730
##FIRSTY=0.51108897
##XYDATA=(X++(Y..Y))
4497+252481424+252309111+251475078+250471619+249749772+249515507+249768617
4487+250413612+251357327+252535102+253725950+254364025+253928385+252636305
4477+251421812+251250353+252436284+254323745+255684668+255743646+254838268
4467+253914988+253474195+253175356+252522028+251739790+251422372+251547396
4457+251840610+252678912+254389495+256063361+256351216+255141288+253361714
4447+251811960+251034550+251270258+251909629+251922114+251222528+250829082
4437+251566358+253353676+255471014+256787063+256302926+254352012+252537988
4427+251767880+251494100+251312689+251806159+253152683+254328515+254530626
4417+254120544+253535470+252645845+251600456+251003073+250946715+250788478
4407+250077673+249213930+248995124+249667179+250589046+250974777+250839241
4397+250817363+251223352+251792290+252142334+252056089+251508734+250681415
4387+249815729+249015323+248277488+247672538+247497134+248206172+249871793
4377+251713171+252621347+252204080+251016000+250088450+250309052+251556582
4367+252413641+251543774+249378146+247600309+247137079+247483353+247802509
4357+247842996+247772357+247829687+248240446+248988528+249732988+250254343
4347+250603798+250543995+249531613+247656962+245935292+245270407+245512946
4337+245806720+245628592+245156351+244923396+245528243+247189550+249159928
4327+250208262+250022110+249298055+248437581+247411507+246811843+247559940
4317+249299144+250387936+249958567+248837592+248048640+247688026+247635261
4307+248126493+249080721+249822001+249913369+249595215+249361421+249594037
4297+250305313+250923336+250758237+249890726+249118028+248882349+248886354
4287+248878256+249070356+249483235+249534970+248777348+247563709+246605139
4277+246332963+246772681+247640679+248571527+249366544+249937014+250152198
4267+249941401+249411036+248800286+248366736+248125463+247921202+247944405
4257+248577563+249582524+250243037+250328398+250202019+250269949+250755470
4247+251505377+251871056+251377350+250369268+249545394+249337747+249869761
4237+250673848+250546792+248751524+246273292+244899737+245302708+246734005
4227+248231112+249448549+250489757+251536530+252639632+253646537+254428834
4217+255006164+255223233+254697933+253468894+252266710+251728807+251648363
4207+251296759+250412905+249556818+249334066+249742175+250462167+251255506
4197+251788757+251588884+250592255+249409917+248779438+248868863+249256155
4187+249577165+249936660+250538459+251198795+251476345+251182424+250651911
4177+250523589+251134104+252148282+252994652+253455939+253612145+253554756
4167+253347757+253052658+252708534+252335258+251931949+251564856+251468954
4157+251723301+251857835+251413597+250820072+250953606+251935776+253031752
4147+253645300+253829037+253827889+253709019+253497191+253211338+252791098
4137+252306490+252071931+252201754+252286409+251922909+251419221+251463595
4127+252076495+252399066+251729396+250416527+249479466+249636674+250846278
4117+252459222+253731427+254379690+254630474+254644490+254166508+253063612
4107+251905006+251396666+251436888+251435681+251293343+251290045+251443307
4097+251688320+252162857+252789095+253096208+252747489+251925677+251266519
4087+251469513+252559335+253607905+253680929+252895245+252185059+252222454
4077+252789655+253145116+252852049+252098137+251315751+250756323+250435637
4067+250341736+250616489+251369694+252265768+252724905+252684801+252619786
4057+252786151+252991795+252996683+252762153+252348921+251774329+251158897
4047+251042177+252068750+253973289+255379970+255208128+253862487+252515933
4037+251732517+251344313+251307977+251938485+253188813+254321713+254657151
4027+254285613+253774976+253489624+253432471+253560115+254022521+255018767
4017+256445735+257718941+258035947+257031604+255211514+253532820+252627206
4007+252573469+253088523+253735549+254290059+254913972+255641707+256022373
3997+255771030+255334183+255278237+255577046+255896643+256188768+256646580
3987+257231684+257639734+257731161+257611908+257346284+256961702+256695253
3977+256851165+257304825+257371872+256440288+254783971+253431234+253093204
3967+253656077+254891358+256948392+259647448+261906653+262593548+261727185
3957+260273686+259020532+258166359+257817523+258324156+259826857+261685343
3947+262870803+263116257+263156244+263515445+263654720+262904400+261662435
3937+260877988+260937114+261591060+262455333+263154065+263404937+263367071
3927+263584670+264313583+265081423+265227648+264936377+265126033+266125576
3917+266971975+266398827+264354424+261998757+260483247+260231815+261249085
3907+263783071+268158554+273672797+278176542+279813543+278681349+275916160
3897+272591308+269886245+268954543+269902028+271035340+270530210+269435087
3887+270334547+273380525+275854384+276461454+276722602+276765357+274892030
3878+271721382+269958827+270791505+273393216+276842944+280100191+281073764
3868+279371425+277469742+276870446+276356776+274503620+272034089+270665834
3858+271823232+276916587+286253804+294350559+292666653+283763780+275253321
3848+270570490+270095806+272707645+276505828+280045806+283243190+286339166
3838+288321528+287797052+285156562+281965391+279297547+277515147+276749780
3828+276894150+277564762+279074559+282630143+287759274+290477086+288702488
3818+285786157+284220503+282678021+279777561+276908195+276337284+279242249
3808+284338224+288101808+289384496+290862816+293682862+295026884+293280554
3798+290778662+289192514+288081638+287175230+287198433+288571310+290878746
3788+293635603+296573370+299196957+301314885+303898044+307862621+312222675
3778+315175459+316992192+319725728+325077021+333523878+343855368+353437069
3768+360475861+365049981+367760078+369839756+373164019+377977115+381926822
3758+383166785+383380291+385787075+392455183+403173110+413719609+418813170
3748+419706239+421459283+425923867+429701467+430471574+431529743+436690673
3738+446837455+458755801+466767606+468117222+465005140+461285576+459703138
3728+461245413+464744787+467490218+467934015+466700501+464625770+462092696
3718+459875715+459148922+461046217+465861845+471159932+472271307+467974355
3708+461605674+456427900+454270252+455735941+459304451+461911461+462384261
3698+462118725+462618203+464841749+469531647+476606244+484125993+488319063
3688+486876283+482060360+477398730+474803468+474963856+477609351+481947232
3678+487524900+493124121+495706662+494684093+492993974+491397431+487817937
3668+482201284+477007228+473395433+471113408+470319598+471763527+475502200
3658+479738349+481264636+479445400+478320597+482196338+490895127+496987112
3648+492489785+481155954+471809078+467937195+467844502+468414765+468260443
3638+468009630+468625297+470326017+472707890+475723098+479769649+483294993
3628+482436021+477219291+472154381+470691136+473771300+480102703+486060506
3618+488191331+487408032+486831085+487102392+487043413+487192199+489370548
3608+492672374+493646830+491676688+490212648+492012362+495673389+497990601
3598+498927014+500984402+504440373+506844094+507437354+508717686+512434953
3588+516036442+515520034+511825204+509063077+508868563+510001375+510828723
3578+510781375+510031585+508853546+507653599+507253911+508554266+511636049
3568+515312034+517520770+516731229+513052299+508080023+504173071+503140490
3558+505193402+509182801+513307353+515671146+515529221+514276568+514103372
3548+515802413+518099660+518946207+517663343+515376578+513513704+512814206
3538+513486968+514981954+515683690+514401650+512093037+510649932+510340465
3528+509916926+509106126+509028038+509852559+510048369+508686062+506750459
3518+505437031+504856727+504946711+506095188+508074605+509435734+508754434
3508+506384692+504461927+504828460+507032190+508821451+509037754+508729288
3498+508843535+508701550+507403492+505485321+504363816+504921447+507003510
3488+509575657+511046970+510091300+506823306+502966293+500359459+499512912
3478+499966838+501246169+502603941+502688566+500739360+497561703+494612188
3468+492857554+492591960+493486031+494549823+494783499+494087123+492987260
3458+491960303+491492951+492026319+493159278+493517861+492204668+489928385
3448+488080175+487152596+486643078+485942814+484927430+484216478+484691633
3438+486132411+486817982+485477876+483136873+481796797+481759932+481501463
3428+480039396+478233381+477381887+477564064+478091985+478648115+479017680
3418+478605832+477233072+475778749+475194764+475499109+476211857+477141439
3408+478288944+479357742+479891346+479674512+478767603+477443251+476150169
3398+475166909+474287060+473401558+473168765+474285676+476243628+477670596
3388+477837079+477178245+476632598+476931907+478254552+480086096+481488301
3378+481866935+481500049+481110785+481197825+481868967+482879641+483815583
3368+484552535+485439097+486833411+488622937+490331842+491561057+492324893
3358+492921362+493401965+493572275+493673125+494359196+495629928+496390436
3348+495607962+493592298+491638969+490635185+490511428+490964470+491916342
3338+492999009+493246760+491903386+489518038+487690411+487561618+488867184
3328+490375303+490973510+490454716+489508557+488860618+488469881+487923468
3318+487340897+487137932+487098093+486614722+485745915+485075008+484708888
3308+484435078+484643549+485942049+487892787+489137637+488980665+488130762
3298+487698950+487960687+488353279+488403895+488264708+488338320+488696962
3288+488995977+488790332+488087065+487698272+488441673+489870496+490624732
3278+490087330+488854523+487855598+487737228+488503655+489375671+489758369
3268+490151903+491200561+492512399+493340218+493557170+493177358+491999465
3258+490285819+488841007+488177462+488121104+488147398+487886898+487556671
3248+487820440+488834029+489747769+489710403+488990588+488454894+488399272
3238+488508219+488463197+488035684+486918036+485080456+483244848+482373244
3228+482611573+483080191+482674673+481206364+479785667+479684288+480590314
3218+480708801+479230686+477432209+476558426+476209089+475578846+474900814
3208+474809210+475252477+475581584+475370787+474873047+474528539+474139481
3198+473118266+471659291+470792692+470983349+471425526+471025279+469629228
3188+467956894+466733038+466263477+466453250+466829441+466797434+466117753
3178+464963063+463570310+462254762+461599019+461946059+462712103+462748114
3168+461465810+459366698+457428592+456106095+455142210+454286329+453758967
3158+453822657+454322487+454910506+455359220+455439929+454936594+454038578
3148+453262994+452710044+451801162+450148380+448268634+447030644+446686048
3138+446756304+446714433+446412621+445852428+445010475+444052096+443261465
3128+442643000+442058338+441704143+441831464+442118230+441981546+441391142
3118+440764815+440268783+439793392+439356751+439010211+438571862+437821954
3108+436797265+435769012+435086092+434952382+435148280+435217241+435179816
3098+435575264+436531670+437427184+437678439+437193772+436002041+434234128
3088+432480760+431461695+431329693+431670107+432019974+432131011+431895097
3078+431288587+430444249+429694194+429390055+429532717+429680649+429424624
3068+428824445+428164109+427525621+426944110+426753541+427284436+428235543
3058+428699332+428006401+426548809+425541934+425753939+426617947+426862606
3048+425894539+424201505+422543039+421236060+420217760+419545734+419538255
3038+420171089+420736435+420657699+420252623+420093678+420123771+420024600
3028+419853877+419689632+419222957+418222236+416978210+415991416+415535577
3018+415544057+415630832+415350249+414563800+413342329+411718608+410038795
3008+409205204+409802527+411196517+412162140+412218380+411745109+411086952
2998+410270498+409466794+409068373+409162597+409302550+408998588+408254510
2988+407448480+406830280+406377267+406108905+406200803+406639741+407038486
2978+406935870+406135906+404833844+403595972+403005391+403081153+403231000
2968+402889466+401982203+400871711+400140530+400188732+400783670+401254468
2958+401256382+401065430+401074117+401244898+401134744+400398558+399184448
2948+397987976+397211685+396900686+396806491+396707850+396698457+397010958
2938+397492091+397558224+396916115+396040536+395628481+395790959+396066712
2928+396025695+395533785+394647547+393605691+392768184+392334664+392190177
2918+392018895+391540942+390833140+390367554+390464399+390818830+390837645
2908+390314730+389586994+389151531+389134983+389136425+388810291+388399856
2898+388311521+388472792+388503415+388209435+387645443+387005101+386535216
2888+386237614+385762223+384960462+384302629+384302953+384771778+385065228
2878+384859819+384239558+383334121+382423502+382052111+382432306+382970445
2868+382925335+382318148+381693087+381312892+381128389+381150620+381282769
2858+381126710+380480862+379733574+379353438+379295049+379222849+379066349
2848+379062432+379332532+379651128+379689848+379342779+378727141+377999229
2838+377263396+376547674+375869376+375409709+375445691+376015542+376807291
2828+377339894+377181538+376266208+375077833+374142215+373440892+372764037
2818+372295595+372266768+372403659+372322302+372161649+372302014+372674082
2808+372762742+372269212+371492568+370947275+370780998+370728704+370541963
2798+370232819+369905065+369571688+369182306+368677941+368016044+367285364
2788+366731649+366477656+366331431+366089716+365842819+365726040+365628783
2778+365430794+365256243+365215727+365118116+364717163+364076290+363454792
2768+362925193+362338116+361691031+361283746+361329681+361572868+361561590
2758+361247175+360995037+360988058+360954432+360576593+359904332+359243790
2748+358812183+358612634+358534398+358442618+358246631+358002738+357848887
2738+357744592+357455353+356872281+356144163+355503231+355174035+355305478
2728+355732668+355986691+355742237+355093768+354347305+353733610+353304419
2718+353002135+352815129+352722996+352490350+351869382+351051073+350506575
2708+350379843+350395979+350272368+349939609+349546046+349402501+349683172
2698+350121963+350237711+349879394+349352091+348998691+348810949+348501216
2688+347897297+347195414+346777382+346808565+347088205+347282984+347209077
2678+346882442+346450836+346129973+346030125+345998500+345816441+345515630
2668+345255954+345009528+344673530+344343009+344159742+344058687+343912050
2658+343744890+343651903+343653522+343680523+343584385+343265347+342872785
2648+342632013+342449277+342072320+341618100+341455387+341618395+341834051
2638+341992495+342100617+341989138+341548080+341027520+340732922+340677270
2628+340756537+340937035+341070775+340856444+340223639+339533476+339179045
2618+339133199+339089620+338917484+338744288+338683690+338725355+338810186
2608+338823878+338634163+338281087+337999563+337958369+338073646+338120876
2598+337966054+337673164+337416255+337326771+337414577+337543870+337500586
2588+337232724+336968307+336928821+337044422+337108672+337049016+336915512
2578+336753063+336561817+336320397+336081244+336007278+336171964+336389828
2568+336418125+336261301+336130859+336147319+336198553+336110365+335861789
2558+335556826+335305159+335247889+335518283+336013137+336394304+336452399
2548+336303584+336196669+336294515+336590291+336890866+336963537+336800440
2538+336667142+336798821+337056083+337006615+336468005+335836467+335653936
2528+335977980+336418802+336687194+336842871+337010914+337109260+336987358
2518+336688549+336394834+336185244+336032718+335979717+336117373+336400252
2508+336625419+336631013+336466857+336337387+336381937+336559255+336745731
2498+336855620+336853088+336739607+336566028+336441770+336526218+336915099
2488+337458067+337815531+337808287+337589186+337380126+337205134+337017392
2478+336948402+337202189+337706113+338073028+337989934+337526674+337025401
2468+336818284+337036119+337535096+338037959+338425103+338757214+338999695
2458+339001933+338793285+338577570+338401959+338162099+337932722+337928894
2448+338124763+338265687+338275404+338309502+338418890+338508727+338581280
2438+338679391+338694143+338567853+338536582+338844666+339376474+339822038
2428+340034278+340037222+339867972+339602613+339434628+339547668+339886375
2418+340186244+340317069+340456373+340808566+341312548+341743360+341961990
2408+341991670+341962608+342011310+342176468+342403489+342643791+342911329
2398+343284722+343859520+344618085+345358953+345836317+345965169+345871415
2388+345763794+345741356+345704668+345469990+344936681+344091224+342918838
2378+341428150+339778312+338253733+336941600+335490958+333504621+331233255
2368+329540898+329064418+329601761+330288833+330335356+329836821+329833494
2358+331303187+334254705+338066344+342419920+347220884+351719448+354675736
2348+355429206+354463761+353064647+352172196+351660793+351228716+351169619
2338+351820121+352984144+354106003+354744873+354905319+355000986+355447521
2328+356274752+357141881+357711997+358015134+358410405+359182338+360242715
2318+361203508+361712378+361858073+362194630+363110844+364309613+365226357
2308+365764289+366230994+366737950+367066410+367031282+366694195+366257701
2298+365911809+365769648+365837666+366026763+366241153+366431191+366555980
2288+366613957+366726378+367010730+367355502+367519158+367435475+367234719
2278+367033373+366884616+366848046+366959584+367170793+367352970+367348701
2268+367123946+366895423+366940886+367245113+367490950+367428673+367128863
2258+366828641+366609246+366320360+365836842+365288633+364949691+364963029
2248+365250678+365622482+365906421+366048876+366150373+366354222+366673878
2238+366994034+367259629+367533969+367807161+367933716+367882422+367828273
2228+367860015+367825299+367569392+367085079+366390204+365519689+364642019
2218+363976353+363619596+363536650+363615386+363707343+363740351+363789465
2208+363955771+364215830+364445973+364568671+364635541+364736626+364845838
2198+364861237+364806116+364839448+365049362+365405589+365911220+366605948
2188+367400436+368075376+368477243+368629121+368693193+368900163+369399876
2178+370074581+370630062+370943741+371159279+371417572+371692795+371893346
2168+371959479+371892256+371793880+371828125+372085475+372505362+372922098
2158+373201827+373349582+373416747+373368781+373242402+373315014+373812077
2148+374552297+375177564+375599630+375967958+376359873+376694987+376825429
2138+376662774+376350421+376218153+376404070+376692926+376898748+377164931
2128+377692322+378411313+379112607+379723799+380292001+380818450+381232978
2118+381498779+381707368+382036093+382574732+383240280+383920756+384623787
2108+385401786+386200513+386869948+387330911+387695677+388164649+388772778
2098+389312625+389593678+389715463+389972342+390526882+391267014+391950965
2088+392423794+392696662+392874893+393054390+393274816+393509435+393688903
2078+393807802+394000550+394386428+394838646+395096673+395162129+395388238
2068+396069598+397045939+397815192+398057613+397992304+398107052+398569222
2058+399085512+399398160+399664756+400147185+400779430+401348457+401904998
2048+402676489+403693140+404748629+405658159+406404180+407076058+407741783
2038+408402383+409076264+409835153+410678166+411503394+412311073+413274016
2028+414496017+415863948+417237503+418639767+420159341+421770871+423360141
2018+424867583+426299027+427616194+428745826+429742072+430847382+432319401
2008+434202769+436282977+438281857+440115963+441907962+443726462+445456921
1998+447036798+448655572+450503370+452407643+453975418+455104667+456084364
1988+457167149+458367037+459693774+461243676+462945809+464495269+465721451
1978+466870369+468349603+470247929+472258234+474129146+476050144+478391265
1968+481127245+483787463+486036096+488014660+490028175+492234849+494695812
1958+497389096+500092745+502507832+504577823+506550056+508710737+511156506
1948+513860980+516931279+520558739+524445256+527618260+529442148+530446815
1938+531499949+532884575+534643449+536985747+539901754+543008154+546063907
1928+549200988+552560910+555914883+558644679+560375109+561715627+563643986
1918+566059603+567920475+569021074+570322488+572431758+574922048+577051753
1908+578523007+579574374+580643467+581884636+583013679+583797037+584537522
1898+585772214+587525788+589166292+590276195+591338398+592937561+594675823
1888+595696332+595916699+595866878+596010216+596722670+597970848+598910146
1878+598806559+598205761+598333435+599821237+602581067+606049229+608813535
1868+609050038+606610982+603436742+601288957+600433754+600178406+599807810
1858+599018858+597871559+596544233+595216435+594198577+593862432+594300457
1848+595408771+597103572+598580538+597953240+594618876+590599208+587775364
1838+586136155+584808240+583646631+583554821+585244558+587801924+589048511
1828+588128411+586168251+583816471+580765134+577462571+574992775+573557680
1818+572438531+571164971+570133451+569996825+570636785+571001492+570266189
1808+568874555+567959990+568303202+569987226+572276288+573793476+573628113
1798+572382703+571645456+572748823+575802162+578820874+578995778+576542294
1788+574353404+574141635+575453002+577356805+579581264+581647839+582605452
1778+582653742+583629376+587252596+593424642+599493395+602156586+601237546
1768+598851551+596710480+596181646+598096048+601293079+603207718+603363659
1758+603537797+604386346+605385713+607192170+611226030+616975245+621305265
1748+622064300+620689273+619677716+620068453+621489885+622970326+623652098
1738+624183405+626860377+632766946+638375885+638610032+635017906+631908504
1728+630701726+631014021+632163911+633575862+635620177+639964801+647865392
1718+657321981+662386773+659871926+653602829+648215671+645829676+647007833
1708+651347275+657084535+661612956+664464066+668020622+673506833+678046089
1698+678888632+677103316+673603354+669183998+666326528+666751715+669901928
1688+674623744+681139651+688985356+693170153+689986018+683933343+679877339
1678+679359989+681993382+685674078+688195285+690118698+692881473+695048809
1668+694052858+691289023+690259563+691943058+694271340+694871373+694154149
1658+694570326+698460259+707011705+717552815+721520778+718127642+715776981
1648+717077395+718660893+716591727+712001589+708302637+707267289+709557057
1638+715186784+722093132+724792011+720427894+713884309+710094077+709970879
1628+712164185+715307803+718698230+720724818+719488654+716613340+716200578
1618+719754838+723811960+723498546+719727807+716533485+715581054+716321892
1608+717566890+718587516+719435240+720441968+721681254+723074419+724725877
1598+726658948+728370768+729196821+729168436+729276853+730646639+733383796
1588+736487074+739080775+741375314+744057763+747244841+750794684+755391123
1578+761975047+768865377+771211916+768300620+764872033+763603950+763390237
1568+762414427+760735703+759138718+758469549+760657732+767914712+778487682
1558+782930771+777865861+771045433+766384274+763703651+762203894+761220899
1548+761136745+763831325+770807576+781175313+792175767+799930723+799343352
1538+791662303+784665559+781723993+781206584+780630697+780312866+782306653
1528+787128229+793541902+800421514+807977774+816063869+822353755+825352974
1518+826936296+828631921+830025558+831342519+834343446+840546056+850401920
1508+862879988+872458538+872668128+868192885+866638184+869882857+876055080
1498+881322160+882547783+881034187+881043197+884816410+891282672+897104204
1488+899522059+899560514+900219790+902902415+906830745+910538295+913700522
1478+917518138+923470170+931814441+940513524+945427322+944239507+940065782
1468+937660353+939493664+944694846+949280037+950331521+949195647+948568761
1458+949006904+947862668+943368285+938232236+934869841+932819932+930507019
1448+927556974+924849968+922564910+920240573+918363095+918180417+920189633
1438+923270120+924947726+923891471+922319279+922685459+924522833+925690036
1428+925661239+926266395+928630365+931666037+934125115+936251051+938223343
1418+938826614+937305068+934834919+932739723+931376297+930602304+930240423
1408+930178589+930259150+930342127+930681629+931825806+934084717+937490396
1398+941779840+945694978+947020538+945036645+942469562+942664783+945979477
1388+949206071+948249046+943510564+940226670+942332053+949071507+956766630
1378+962528035+965894847+967390540+967351437+966694752+967217462+970225220
1368+975423458+981300758+986589039+989870990+989169961+984836644+980601084
1358+979690170+981685017+983568973+983636579+983760837+986594163+992006349
1348+997788660+1002749217+1007299191+1011399834+1014274029+1015827788
1340+1016700894+1017361053+1017770575+1017594258+1016882982+1017025379
1331+1019887560+1025229608+1030333504+1033213823+1035041540+1038290983
1322+1043700401+1049599315+1053500437+1054649031+1054787070+1055510595
1314+1056749763+1058478072+1061476290+1065668094+1068651590+1066943656
1305+1060431578+1054157652+1053320704+1058235327+1065141263+1070643492
1297+1073623689+1073741823+1071215669+1066870868+1060837214+1053193030
1288+1046177676+1042891603+1042966276+1042405759+1039003554+1035052493
1280+1033209583+1033136913+1033094630+1031420499+1027917003+1025287085
1271+1026392689+1030051538+1031347946+1026911512+1018361597+1009683420
1263+1003437525+1000081726+998904040+998080637+995411616+990744450+986351476
1253+984167003+983858595+983815723+982766123+979683692+973458233+964210234
1243+954201432+945719889+938707185+931596547+923567516+914949760+906375641
1233+899009125+894282715+891808326+889095549+884963871+881119519+878771272
1223+876616657+873768432+871763515+871966804+873360147+873893810+872462719
1213+869300786+865880090+864274095+865216456+866909373+866830460+864602762
1203+862441904+863106479+867639729+874562154+881189304+885883795+888746271
1193+890468338+891601798+893170751+896961513+903939118+912399873+919187381
1183+923175425+925681497+927263995+927052226+925635563+925725194+929166855
1173+934778208+939493016+941776954+943825509+948675411+956037687+963213164
1163+969286510+976116654+984553912+991880088+994964050+994160906+992008351
1153+990479444+990317142+991381877+993594264+997767577+1003748583+1008602667
1143+1010458886+1011597822+1013849548+1014922528+1013085036+1010546043
1134+1009103234+1007946395+1007286824+1009664575+1015211796+1019614899
1125+1019316325+1016434828+1016181364+1021723168+1032010932+1042331322
1117+1047356894+1045118124+1039689508+1038122439+1041170360+1042394217
1108+1037882756+1032207743+1031411548+1035103963+1038421602+1038355762
1100+1036532875+1036921668+1041105699+1046595208+1050381259+1052450543
1091+1054478250+1057166588+1058952963+1057959721+1054494268+1050176792
1083+1046635253+1044936742+1045333309+1047309075+1049198272+1049316524
1074+1047499408+1044230413+1040384176+1036266456+1031528621+1026821763
1065+1022816994+1019040012+1015524739+1013064306+1011832677+1010843321
1057+1008909249+1006569777+1005952137+1007684451+1009982582+1010727896
1048+1009283320+1006647395+1004627343+1005924694+1012352088+1020864431
1040+1025005707+1022544215+1017301456+1012907187+1010580553+1011165568
1031+1014056842+1016160046+1015086713+1012022067+1009761390+1009175080
1023+1008479351+1005337323+999050441+991369039+985891662+985477546+989585137
1013+994524494+997320836+998169326+997994186+996189320+991749587+985178089
1003+978762826+974744100+972241267+967272288+957880715+947247088+939411217
993+934915893+932047469+929521433+926054390+920336093+913471380+908840019
983+907998832+908344105+905774196+899596025+893472268+890980624+891777821
973+892881423+892817115+892461654+892229862+891025734+888215847+884616301
963+880870296+876686383+872150130+868662593+868093655+871080919+876011560
953+879638136+879487260+876450999+874330951+876142061+881332172+887101586
943+892043298+896776598+901723610+906431410+910331590+913319326+916098707
933+920134983+926692642+935408215+944202288+950979608+955267933+958290709
923+961491450+964751788+965968813+963121000+957923823+955243435+956975631
913+959144204+956808089+949875358+942499714+938741047+939709791+943606967
903+947431532+949374850+950267213+952134033+955227358+957579197+957519365
893+956091101+956380723+959752481+964315176+967493716+968210880+966801343
883+964648259+963727039+965416305+968979103+971868551+972100048+969874116
873+967260451+966495173+968290971+972132084+976902720+981160011+984043510
863+986201601+988660208+990518429+990437396+989341685+989249699+990285930
853+990099837+987319749+984083497+983727800+987716610+995338945+1003999102
843+1010321436+1012815907+1012794236+1012830159+1013196220+1011492291
834+1007375866+1003814658+1003326576+1006178511+1010783724+1014139288
825+1013805145+1009993889+1003968362+997350517+992476999+991709424+996380948
815+1006582026+1020608730+1033868094+1041832522+1044698826+1045633884
807+1045867089+1043562127+1037163118+1029010241+1023900927+1025575411
798+1034510939+1048095259+1060263152+1064780737+1063582557+1063680432
790+1065967728+1064706182+1056342714+1042660047+1027247540+1014505232
781+1008314341+1008568628+1010620716+1009564108+1004602256+999035365+996251625
771+994972884+991944632+987363917+983784452+983385648+987215042+994050074
761+999950872+1001459168+1000011058+1000485124+1005384553+1012300971+1016569922
751+1016765555+1015375393+1013310114+1009262708+1005723407+1007967006
743+1015262088+1019702763+1016305505+1010171266+1009904847+1016704427
734+1024281005+1027737506+1026738493+1021681709+1014722183+1010182220
726+1010312014+1013153819+1015204612+1014878831+1013009067+1010995611
717+1010606111+1012824270+1016438950+1019147075+1019416910+1016926914
708+1012839699+1010266433+1011268508+1015463964+1020312159+1022624188
700+1019455424+1010712349+1000983806+993771524+989807978+990812409+998356126
690+1009104765+1016454379+1016919141+1011621967+1006404767+1006450937
681+1010374555+1011146606+1004677753+996841941+994229572+996237963+996967730
671+991424396+978284167+960478597+945889551+941527613+947633526+962920950
661+982009502+995317980+999067284+989620353+970925542+954936735+947961956
651+951479704+961299998+969313069+970072576+964249396+955443897+946936737
641+941335101+939702842+939843766+938144548+934780387+934350076+939777691
631+948848490+957117616+958201254+950313265+945044948+948545382+947369757
621+932397571+913781673+901610776+898146089+897276045+897933731+908438447
611+932526423+958448711+966242181+951121769+937282749+935427531+932843429
601+926388356+926504252
##END=
