##TITLE=<SNM>
##JCAMP-DX=4.24
##DATA TYPE=INFRARED SPECTRUM
##DATE=29/4/2025
##SAMPLING PROCEDURE=Instrument type and / or accessory
##ORIGIN=Admin
##XUNITS=1/CM
##YUNITS=ABSORBANCE
##RESOLUTION=4
##FIRSTX=4497.3318
##LASTX=599.83466
##DELTAX=-1.4281778
##MAXY=2.168026
##MINY=0.49388275
##XFACTOR=1
##YFACTOR=2.0191315e-09
##NPOINTS=2730
##FIRSTY=0.50336915
##XYDATA=(X++(Y..Y))
4497+249299833+249794734+250481044+250346934+249135495+247920277+248027936
4487+249629866+251687760+253179934+253949017+254143110+253422115+251495201
4477+249299803+248539340+249584759+250870854+251011045+250401989+250066170
4467+250241105+250752804+251563481+252429183+252874520+252797001+252515086
4457+252223517+251814843+251143560+250206833+249211420+248622704+248871498
4447+249868741+251006764+251675302+251652867+251180843+250787195+250801099
4437+251122453+251473533+251602034+251281801+250472276+249596892+249306475
4427+249827885+250706842+251308665+251497090+251453548+250914751+249531180
4417+248190739+248600328+250966204+253407916+254306621+253787985+252409552
4407+250293946+248087212+247022413+247388608+248071862+248043730+247556916
4397+247574672+248551886+250044857+251310583+251980598+251975845+251200887
4387+249830070+248482514+247638627+247279045+247355767+248036527+249177709
4377+250055455+250016636+249205487+248298870+247580768+246785782+245947209
4367+245577560+245737883+245914146+245995223+246329285+246812763+247013853
4357+247038221+247332801+247938845+248552388+248987069+249233236+249255641
4347+248892192+248059670+247099224+246523585+246330820+246138542+245974086
4337+246122764+246363425+246302009+246134557+246167398+246114144+245647242
4327+245030053+244682294+244674751+244912845+245313873+245654179+245622607
4317+245214051+244940829+245341991+246212194+246803302+246875227+246797235
4307+246592205+245985260+245317164+245255763+245839697+246687642+247634022
4297+248585125+249214992+249178299+248410161+247263370+246517519+246800645
4287+247783157+248404139+248039183+247031328+246107044+245767580+246107827
4277+246713591+246883197+246360827+245600940+245054880+244711356+244601572
4267+245048887+246118291+247375250+248321010+248826687+249127377+249464406
4257+249702071+249464465+248749286+248068349+247930668+248492935+249563387
4247+250576304+250763077+249730883+247916144+246338835+245848760+246559969
4237+247925148+249277043+250168280+250287806+249505587+248206473+247238248
4227+247224994+248045560+249032116+249500096+249204749+248601568+248426662
4217+248798968+249198461+249398459+249747325+250314699+250523582+250006009
4207+249204365+248780902+248914391+249392584+249933567+250229091+250045861
4197+249478399+248919084+248683279+248708282+248688504+248535886+248501938
4187+248689035+248799263+248711471+248848089+249491122+250218641+250476704
4177+250215482+249646515+248993711+248657597+248948250+249644685+250337665
4167+250934795+251334937+251197699+250562135+250072901+250152723+250547522
4157+250929097+251311676+251718283+251988125+252031903+251882916+251504825
4147+250885112+250244205+249954349+250236353+250874515+251283868+251140017
4137+250905452+251247883+252010678+252364947+252004036+251543850+251617325
4127+252119194+252458968+252223724+251480235+250623241+250049816+249957980
4117+250368750+251199205+252240786+253128156+253411695+252821857+251556662
4107+250240987+249482974+249452657+250012237+250992093+252018147+252458939
4097+252001911+251003104+250005979+249366252+249371625+250035263+250757025
4087+250884227+250592216+250574504+251032594+251543289+251724217+251597783
4077+251482389+251767523+252504842+253117204+252902889+251858739+250597706
4067+249614869+249104529+249201708+249868593+250742088+251390878+251573636
4057+251323425+251019930+251128091+251679435+252303900+252719511+252917354
4047+253061529+253373142+253845845+254050595+253485022+252086781+250347112
4037+249063112+248854701+249701215+250996137+252074264+252635556+252808396
4027+252988231+253513391+254300747+254822837+254656167+254133015+254131155
4017+254996414+256013346+256245904+255545868+254429483+253328183+252304549
4007+251352413+250690576+250647625+251331306+252446009+253309851+253226191
3997+252285037+251535024+251842680+252930106+253905534+254282090+254239493
3987+254302548+254710336+254940001+254336171+253165941+252390423+252598627
3977+253633153+254856991+255557765+255537662+255399420+255832389+256696320
3967+257238217+257094868+256606402+256148105+255666487+255084059+254729140
3957+254942422+255493795+255851016+255970218+256367822+257277538+258165616
3947+258552091+258895673+259796327+260708257+260513986+259268392+258116317
3937+257718123+257970046+258786509+260007985+260743208+260106050+258687676
3927+257964998+258425450+259142017+259192673+258950138+259432907+260847443
3917+262107118+261899357+260251022+258506984+257840985+258254294+259208083
3907+260858395+263882507+268043697+271742781+273598877+273395928+271246905
3897+267647037+264115301+262402347+263128065+265002700+265747075+265034788
3887+264780031+266129860+268076818+269388035+270243965+270561128+269568992
3878+268015239+267871566+269721728+272321431+274517361+275843072+275782408
3868+274799867+274335606+274442144+273589195+271278846+268830462+267444058
3858+267856806+271380778+278909456+286618529+287220854+281458385+275015569
3848+270768594+269274619+270258991+273017010+276634531+280436670+283804571
3838+285470676+284496931+281860062+279189010+276947708+274751277+272771758
3828+271878337+272525385+274539825+277764436+281287021+282676141+281314475
3818+280072600+280540669+280674040+278599496+275683133+274220302+275239300
3808+278045732+280777212+282898190+285896442+289764056+291337558+289377935
3798+286921522+286038905+285861638+285290900+284715320+284858049+285964810
3788+288196636+291559725+295344919+298699743+301760872+305119031+308492098
3778+311135254+313361796+316389951+321260565+328428922+337304830+346088872
3768+353362999+358975832+362855461+365336258+367931622+371709850+375769284
3758+378692024+380826345+383756820+388780258+396161040+404117609+409982660
3748+414159614+419052987+424763767+428306101+429056616+430429766+434806333
3738+441934720+449548622+454631365+455863380+454618111+453316842+453693074
3728+456307242+460323460+463779359+465319267+465123077+463647877+461069901
3718+457940374+455257159+454052715+454868765+456849228+457782944+456485867
3708+453810741+451180425+449764590+450281809+452290936+454237333+455393482
3698+456797214+459653150+463804923+468219749+472586663+477376303+481779350
3688+483371626+481426823+477755723+474448663+472860844+473702694+477472007
3678+484339113+491957147+494872979+492083906+488938379+487915660+486114147
3668+481181630+475246498+471046696+469116565+468448912+467995131+467873864
3658+468894545+470776264+472203760+473106037+474808245+477776712+479991534
3648+478806426+474634698+469917322+466362472+464528575+464278807+465118679
3638+466523326+467942438+468724776+469017997+470525817+474727302+479383157
3628+479483023+475032538+470327768+468144355+469482848+473927636+478761615
3618+480634419+479609516+478227216+477928680+478983694+481932411+486981443
3608+492180642+494537219+493562176+491348711+489764406+489153727+489233726
3598+490120859+491901059+493887722+495228488+496173953+497937887+501154911
3588+504782676+506967329+507025129+505662429+504091614+503456050+503860709
3578+503990833+502754656+500896258+500465739+503062549+508543398+514719915
3568+518284507+517587423+514768328+513128436+513489288+514446737+514935056
3558+515289827+515737290+515709955+515090981+514720919+515388187+516920804
3548+518509449+519351299+519178135+518558334+518074089+517306216+515522031
3538+513012009+510797659+509316290+508449171+508490558+509754306+511352044
3528+511697368+510601352+509411344+508658585+507252964+504464392+501430214
3518+500025242+500811181+502577950+503872930+504453056+504839000+505145948
3508+505277843+505564482+506456339+507797016+508544638+507705268+505605279
3498+503744755+503295343+503969756+504372231+503687663+502574466+501978990
3488+501963344+502121689+502231090+502007565+501146114+499928122+498847692
3478+497830730+496794875+496314290+496664751+497031566+496549033+495458389
3468+494672362+494667816+495227779+496260033+497855940+498968546+497775409
3458+494153431+490271854+488096883+487614350+487870701+488626530+490214231
3448+492338131+493982717+494427021+493394178+490673030+486816426+483596066
3438+482342325+482453822+482518972+482105044+481619529+481015699+479742090
3428+477855914+476325128+476027360+476748532+477483638+477504302+476847808
3418+476137351+476028895+476472668+476763351+476522616+476065824+475703083
3408+475474068+475581904+476268774+477252497+477856740+477669672+476859763
3398+476064526+475910933+476259387+476200199+475411426+474966295+475762064
3388+477078004+477649127+477422148+477323020+477810305+478552142+479171322
3378+479662150+480293169+481374455+482803338+483935221+484357474+484501443
3368+484993895+485820187+486530968+486810109+486694302+486736486+487774437
3358+489997495+492514985+494316676+495266569+495795566+496100802+496003445
3348+495579480+495440382+495790548+495787359+494858957+493907057+493883146
3338+494170257+493566810+491977516+490258953+489174686+489063957+489822796
3328+490761648+490909455+489820198+487898303+485912171+484686179+485025983
3318+486922580+488988946+489785276+489361252+488446488+487130666+485503320
3308+484433399+484580852+485378628+485722152+485373816+485199649+485871995
3298+486787290+486942152+486508386+486543101+487336125+488104293+488368850
3288+488521705+488807192+488863546+488627120+488703400+489468734+490645901
3278+491886033+493012337+493840490+494317325+494481191+494300529+494020886
3268+494185224+494855090+495315276+494972639+494035823+493048234+492191742
3258+491239665+490087767+489142391+488871162+489081580+489039986+488292541
3248+487246325+486796884+487228082+487704977+487234842+485971359+484983976
3238+484840598+485169302+485522685+485805132+485732926+484785130+483010155
3228+481200907+480098189+479861499+480164964+480361212+479992626+479565856
3218+480059223+481247785+481482173+479838325+477661968+477001695+478110258
3208+479386759+479513901+478605779+477272334+475931066+475080714+474968509
3198+474952982+474192784+472848505+471791927+471371091+471068718+470338218
3188+469356945+468652304+468326699+468139189+467969006+467662855+466868562
3178+465648562+464761812+464703127+464969780+464767510+463987652+462988786
3168+461788121+460112333+458092962+456335729+455421289+455658364+456768255
3158+457503685+456539121+454263075+452563080+452372381+452609751+451951427
3148+450554898+449452033+449163003+449481464+449929193+449965680+449219858
3138+447933586+446848344+446401826+446289679+445937123+445214386+444503664
3128+444178029+444259918+444541951+444775867+444747528+444476712+444330441
3118+444536254+444588327+443625003+441587625+439595354+438825414+439202916
3108+439600106+439375341+439094518+439353467+439631958+438889709+436875652
3098+434374368+432419174+431562712+431647936+432019681+432076123+431819890
3088+431769233+432194852+432680662+432752513+432583777+432483882+432086691
3078+430798293+428935289+427728957+428064628+429580507+431069138+431598962
3068+431125728+430123054+429013074+428051876+427332829+426670697+425759682
3058+424595858+423588460+423234015+423693256+424551342+425060797+424797568
3048+423997489+423135772+422360579+421481829+420417517+419489794+419143112
3038+419362238+419650205+419698854+419649438+419514886+418936915+417801607
3028+416576943+415824716+415686297+415845557+415860435+415582416+415142097
3018+414517573+413641893+412947584+412976160+413448892+413574942+413226046
3008+412975244+413101383+413296835+413178932+412603323+411701902+410897395
2998+410578963+410640158+410662328+410468795+410118245+409601587+408973049
2988+408437911+407926803+407117662+406150883+405594019+405472102+405118778
2978+404265947+403518206+403415005+403641305+403520184+402919247+402282325
2968+401936026+401792559+401693933+401636015+401573846+401296063+400645591
2958+399781011+399141432+399080798+399529767+400083827+400304223+399841704
2948+398596494+397024439+395958208+395835169+396327060+396834124+397072143
2938+397088409+396968469+396718583+396332374+395838210+395320046+394933660
2928+394822931+394920494+394840938+394143322+392881581+391744916+391374854
2918+391636076+391793978+391378131+390594612+389912111+389582492+389543673
2908+389563569+389488825+389373343+389313417+389287971+389220636+389002100
2898+388504866+387817169+387278431+387058448+386939896+386611250+385937841
2888+384992761+384038381+383387230+383195262+383499819+384302141+385347826
2878+386017900+385804382+384859006+383840450+383245770+383041138+382919634
2868+382685629+382299509+381831736+381506869+381523784+381794068+382078995
2858+382252572+382203923+381785566+381108290+380549596+380312964+380256345
2848+380175342+380047698+379972097+379916659+379629991+378965025+378180886
2838+377645188+377360498+377068309+376684934+376318503+375938079+375365776
2828+374650036+374175739+374229317+374604044+374832115+374706684+374346394
2818+373859196+373276886+372794028+372691181+372901451+372952078+372507951
2808+371739015+371005947+370447843+370048851+369854049+369868307+369881119
2798+369636074+369142766+368682461+368491320+368506168+368435055+368074912
2788+367581604+367325371+367392056+367410624+367050363+366451433+365922583
2778+365501629+365083272+364707837+364461139+364279178+364025159+363648987
2768+363197125+362725131+362232767+361697128+361169400+360767014+360538175
2758+360391107+360177737+359848117+359565936+359564047+359735056+359552121
2748+358687541+357552115+356862145+356805556+356979841+357029405+356976506
2738+356938159+356857334+356605470+356163497+355690056+355468096+355576582
2728+355565895+354873033+353672427+352800526+352736055+353127725+353360992
2718+353182455+352757191+352387837+352197670+352069642+351908935+351746458
2708+351501058+350987264+350265856+349646468+349332819+349338634+349613347
2698+349982198+350167052+350081149+349861875+349508699+348833076+347871168
2688+347001540+346552483+346539435+346786310+347077908+347204460+347034721
2678+346606268+346112075+345749570+345525041+345282328+344992561+344842186
2668+344921388+345032088+344953034+344730010+344557880+344496980+344454501
2658+344383564+344317587+344196408+343883910+343424757+343050149+342857236
2648+342693223+342427750+342190174+342220284+342511292+342733016+342605195
2638+342222616+341865011+341644143+341477090+341262539+340977996+340656731
2628+340337886+340075690+339960562+340031794+340169534+340177415+339967086
2618+339597821+339176542+338775041+338439104+338240465+338242088+338392167
2608+338580505+338810790+339137015+339447181+339522427+339293884+338888811
2598+338463635+338103728+337841886+337665446+337487116+337191621+336769633
2588+336344192+336049465+335956477+336067206+336264695+336355232+336294510
2578+336264429+336414922+336652469+336796113+336836585+336886591+336910768
2568+336686062+336111103+335429930+335024887+335044636+335292574+335443804
2558+335335171+335062052+334849007+334855501+335062554+335299186+335399259
2548+335349872+335262758+335240412+335306566+335407318+335473944+335533397
2538+335689823+335928669+336050557+335898972+335571626+335325784+335307629
2528+335427421+335511051+335531419+335600526+335730915+335788095+335752760
2518+335809911+336060860+336376575+336633458+336840304+336996288+337086323
2508+337159267+337178071+336995195+336681074+336552249+336718593+336944893
2498+337033276+337022442+337003756+336992981+336960539+336868437+336725235
2488+336628026+336690904+336910768+337125939+337163872+337042221+336929897
2478+336915757+336962900+337061999+337230292+337393331+337455706+337435751
2468+337411072+337406762+337408268+337431589+337543853+337776913+337978416
2458+337868986+337409655+336990236+337031298+337496385+338008762+338309718
2448+338356566+338138680+337717637+337342232+337246558+337420371+337741312
2438+338152702+338568962+338808723+338769432+338559487+338398190+338446720
2428+338705669+339007422+339172704+339207803+339274194+339484258+339814143
2418+340186567+340555920+340918809+341279749+341614800+341870502+342005320
2408+342033836+342023268+342046146+342149584+342354364+342630936+342889472
2398+343083299+343304256+343651234+344045531+344328539+344494412+344654735
2388+344795043+344727236+344315432+343640370+342845900+341835373+340249208
2378+337830108+334745481+331475232+328395416+325537857+322805520+320347926
2368+318525365+317408271+316529817+315454435+314500823+314483554+315817471
2358+318285279+321592723+325745323+330857645+336567776+341609487+344417985
2348+344287772+341978014+339400657+338175019+338327401+339055333+339958082
2338+340942779+341834606+342443219+342743141+342915715+343218973+343847453
2328+344932606+346439510+347977440+349108083+349962420+351108709+352720616
2318+354368537+355672492+356693587+357661073+358673961+359709373+360683945
2308+361486710+362078260+362501753+362757278+362822399+362829808+362994854
2298+363326009+363633872+363834608+364023063+364255710+364456593+364556489
2288+364617536+364785091+365134342+365599310+366056308+366417987+366624862
2278+366629733+366467698+366293117+366258609+366352748+366414326+366319803
2268+366085267+365782777+365486957+365328170+365411534+365623044+365707648
2258+365607782+365511046+365502455+365416847+365132777+364801032+364672709
2248+364849651+365261632+365750305+366132470+366282844+366219495+366108677
2238+366149355+366394017+366692197+366871354+366927412+366982319+367121860
2228+367277430+367227217+366810366+366150507+365534278+365145677+365019981
2218+365036690+364865887+364223858+363248785+362379039+361929362+361957022
2208+362336943+362810797+363142041+363297611+363375839+363438244+363531615
2198+363737930+364068731+364409214+364686199+365022963+365600609+366388821
2188+367135439+367622430+367845925+367959134+368129848+368459852+368962901
2178+369555957+370083271+370427562+370617494+370766008+370924058+371080721
2168+371262180+371512774+371806911+372078081+372310757+372511995+372639255
2158+372675801+372730295+372912226+373154969+373316679+373418464+373646122
2148+374116138+374707098+375157631+375335607+375327194+375241527+375122119
2138+375085101+375273969+375641020+376009636+376295979+376487652+376564847
2128+376598795+376763752+377156544+377706737+378289904+378897955+379652692
2118+380569847+381397261+381898598+382204277+382618678+383214007+383872951
2108+384540279+385167282+385610790+385854536+386158946+386779898+387688167
2098+388657956+389446050+389884421+390032582+390198100+390597948+391108584
2088+391508491+391775233+392006610+392255345+392532301+392827619+393094036
2078+393291613+393450608+393638797+393867842+394095943+394374995+394887845
2068+395667791+396373761+396600356+396385923+396183652+396361510+396920913
2058+397630690+398270240+398766175+399195306+399682710+400293773+401020140
2048+401839348+402750688+403733909+404689764+405490493+406132758+406762182
2038+407476713+408222829+408987071+409929731+411159561+412518423+413777006
2028+414917539+416042721+417126398+418056069+418886672+419912047+421407173
2018+423282162+425094273+426519053+427698670+429018181+430714574+432763111
2008+434958450+437074144+439027301+440827664+442398833+443682537+444863305
1998+446212249+447808864+449608459+451551166+453422878+454882551+455832620
1988+456567578+457446033+458558019+459754463+460941017+462265163+463960730
1978+466085014+468445753+470689771+472506900+473964123+475612457+477962805
1968+480793000+483287878+485069731+486669624+488710839+491188684+493807516
1958+496471750+499134507+501639511+503952811+506215869+508554262+511026793
1948+513599161+516161256+518768752+521561634+524240509+526273134+527813426
1938+529573582+531853938+534437996+537190494+540091419+542879991+545255461
1928+547374166+549790668+552809850+556060586+559006853+561729005+564488293
1918+566778863+567925182+568429028+569438669+571281068+573387433+575169139
1908+576529123+577742924+579050539+580326922+581299781+582122561+583349823
1898+585240457+587372919+589057740+590109004+591005053+592088553+593031892
1888+593527945+593949549+594724742+595737985+596665029+597235945+597168521
1878+596493872+595771815+595616127+596394863+598377776+601380840+604032734
1868+604381247+602130233+599113354+597155355+596653398+596839964+596786710
1858+596202038+595426549+594862896+594562206+594320142+593985622+593674246
1848+593859454+594948799+596136740+595271157+591666654+587577256+585131883
1838+584292631+583844400+583196379+582887364+583534146+584767489+585364973
1828+584630221+582960810+580759567+578119126+575528397+573642013+572427091
1818+571254618+569797100+568505603+568064929+568461559+568690161+567732416
1808+565899405+564547687+564613280+565972201+567858230+569390138+569959342
1798+569705116+569591051+570707200+573246919+575698136+575898164+574048503
1788+572501481+572705759+574192206+575907492+577565214+579136737+580191367
1778+580784363+582066532+585275232+590296869+594874704+596376796+595141800
1768+593470145+592855599+593841683+596347631+599091686+600345280+600430239
1758+601112504+602626286+603909872+605122610+607674078+611814604+615433867
1748+616465648+615616891+615024130+615854939+617895299+620263802+622016460
1738+623148786+625019819+628564573+632103542+632983413+631718011+630027759
1728+628589606+628088594+629076213+630977061+633090275+636211183+641704785
1718+648685779+652889300+651723853+648062376+645479323+645094796+646570557
1708+649350213+652519770+654821380+656505375+659696953+665282598+670224945
1698+671151222+668965683+665806400+663282150+662684194+664100384+666583483
1688+669891252+675211808+682191207+685778943+682819451+678125308+676092860
1678+677345332+680721646+684204113+686430448+688421450+691394403+693667852
1668+692687141+690032117+689304451+691304486+693611292+693834640+692683421
1658+692371750+694552565+700423963+709241629+714715453+713526507+711518325
1648+712025714+712860006+710602970+706338343+703302807+702854340+705136172
1638+709993797+715864251+718485208+715519399+710617908+707503554+706766736
1628+707403481+708700823+710728135+713050764+714343088+714408563+714974520
1618+717481648+720746554+721693731+720069780+718398951+717981480+718043117
1608+717528585+716792298+716926142+718102512+719331191+719705562+719640146
1598+720499708+722968638+726192688+728843401+730714848+732563327+734774548
1588+737149663+739685545+742648284+745879891+748685939+750784098+753047333
1578+756566287+760335098+761047591+758681037+757421775+759452156+762383841
1568+762360638+759600169+757006075+756399204+759012427+766292812+776298892
1558+779169824+771653693+762807570+757397746+755225019+755069626+756123724
1548+758322192+761988746+766963328+772486096+778244079+783628575+785382355
1538+782532795+779765596+779914376+781424794+781559936+780754219+781612540
1528+785034197+789822272+794616134+799387973+804365626+808799344+812706249
1518+817433454+822620817+825977352+827034697+828225119+832083021+839697985
1508+850287555+859165973+861028622+859028292+858449347+860748891+865686161
1498+871922602+876382298+877174318+876792743+879120509+885553199+893587465
1488+898477325+898822767+897707386+898225461+901350737+906615737+912853595
1478+918737510+923898954+929482415+936293669+942197657+944064498+942715201
1468+940855149+939328732+937880248+937289672+938880678+942007667+944400199
1458+944565570+943221527+941555185+939314504+936160416+932573330+929395567
1448+927327400+926639467+926757724+926417713+924977554+923490280+924015499
1438+927475590+931522479+932132007+929389545+926705001+925746371+925879329
1428+926431883+927650053+929409619+930752599+931141967+931013260+930869970
1418+930705721+930453857+930389681+930721957+931022647+930674548+930258612
1408+931375647+934390754+937331590+938002873+936764748+935774885+936381874
1398+938117293+939491269+939678071+939489616+940380232+942619202+944900798
1388+945554842+944626912+944439106+946664261+950072574+952128225+951835269
1378+950653822+951131454+954622896+959498586+962728718+964043241+965924428
1368+969792249+974374453+977420379+977938513+977170699+977760744+980987451
1358+985418512+989164534+992103126+994919919+996997060+996452004+992395609
1348+986651442+983238169+985673151+994314878+1006013749+1015937999+1020557752
1338+1019495624+1015180989+1011355914+1010701752+1012878552+1015289977
1330+1016577047+1018027302+1021140711+1026201846+1033109513+1040899353
1321+1047062644+1050741656+1054685166+1060373777+1063879092+1060651264
1312+1052810649+1046542857+1045062846+1047635922+1052772982+1059857768
1304+1067675003+1073206449+1073741823+1070172744+1066278237+1064646729
1295+1064468429+1062829245+1058081494+1051724079+1046681483+1044267814
1287+1043407249+1042465917+1040927456+1039391356+1038214337+1036608452
1278+1033693299+1029790172+1026117419+1023375607+1020765336+1016722521
1270+1011167104+1006406718+1004624776+1004859165+1003805775+999850103+994348885
1260+989307705+986441555+987083909+990473684+993122154+992247655+988832139
1250+985004583+980480239+973627716+964793815+956477516+950405323+945477264
1240+939038197+930383718+921810949+915620263+911164819+906004142+899264445
1230+891986126+884910845+878142985+872336708+868473256+866592659+865588390
1220+864349439+862694078+861072430+859886319+859362989+859539282+860181990
1210+861160990+862822785+865452894+868506023+870996798+872566728+873784071
1200+875641525+878699023+882454255+885643117+887607197+889414703+892760198
1190+898059086+904048446+908845083+911286205+911620429+911309525+911998993
1180+914438521+918208631+922188982+925332678+927346883+929119378+932281141
1170+937770138+945124796+953551145+962577457+971051511+977293561+981546499
1160+986242945+992282607+997092468+997979838+996016289+994779640+996418469
1150+999621146+1001067387+999790827+999075264+1002148880+1008489527+1015082157
1140+1018984221+1018799308+1015534166+1012755631+1013219448+1014918616
1131+1014072220+1011174071+1009985716+1012351680+1016977691+1021692262
1123+1024618161+1024492169+1021804320+1018846304+1017767054+1019557970
1114+1024656418+1032319441+1040295021+1045960606+1047505916+1045558072
1105+1041953923+1038245864+1034509230+1031126835+1031668467+1037955034
1097+1045210799+1047199617+1044210664+1040875619+1039407887+1039144688
1088+1039879734+1042350553+1045933448+1048609489+1048664633+1046166655
1080+1042268370+1037159885+1031074644+1025828360+1023890435+1026112814
1071+1029754394+1030338889+1026248016+1019393367+1013592699+1011733178
1063+1013198076+1014929598+1014378283+1012379665+1011838742+1013569437
1054+1015416795+1014559772+1010104268+1004138996+999530697+997579547+997564787
1044+997913004+998179629+999417105+1001991834+1004913600+1007610187+1010241004
1034+1011904866+1011040995+1007711382+1003204395+999343423+998427478+1000796512
1024+1003586619+1004341031+1004064370+1003967781+1003362031+1003194949
1015+1005423114+1007795572+1006822713+1004632216+1004099085+1002320922
1007+996145705+988149697+981689317+976372067+970814820+964985635+959000644
997+952843375+947436384+943610127+940675609+937668826+934782897+932261953
987+929028044+923850541+917794998+913668169+912763383+913356851+912323358
977+908296661+902277545+896114785+891527563+888733678+885630305+880295816
967+874036348+869894582+869020438+869870789+870169944+868747615+866261563
957+864915218+866385252+869742614+872399290+873323619+873869797+875493157
947+878008315+880210857+881616007+883150689+886498546+892888846+901944383
937+911141734+917295520+919623049+920659258+923050551+926586745+929910159
927+933682040+939554205+947020330+953466600+956986085+957794400+956715033
917+953971922+950414061+948038945+947829235+948460431+948140258+946452780
907+943915954+940700524+937037453+934402326+934741687+938524432+944671428
897+951830782+958073009+960963012+960392450+959134783+958656855+957432604
887+954747470+952966768+954429127+958197466+961516629+963839022+966964357
877+971996739+977996904+982678353+984837973+985568591+987007098+989704099
867+991373983+990177304+987323198+984621769+982625985+981934569+982884225
857+984624898+987474045+994077419+1005243042+1015135883+1014480422+1001790390
847+986666674+980285585+986528167+999283320+1007508757+1006690346+1002853226
837+1001611381+1001296226+998948446+996972027+1000621282+1010526639+1020286877
827+1023043685+1020878692+1021133863+1024215154+1024187878+1020401532
818+1018665287+1021291027+1024307257+1024899072+1025770147+1030367464
810+1038869089+1047826739+1052803328+1051194137+1044867542+1039808296
801+1039258280+1040050950+1037654875+1032591261+1027760027+1023451651
793+1019171849+1016181243+1015895254+1017411989+1017203105+1012321334
784+1003927988+994664158+983839963+970609125+959618437+956714561+961997213
774+970288893+977308676+982889952+987522103+990491278+992129812+994136814
764+996452712+996772236+995112152+994489046+996567249+999416396+999874546
754+996764797+991987171+989032934+989535658+992096277+994413474+995430850
744+996426616+999001700+1002269794+1004481310+1007417009+1014297871+1023342309
734+1029388937+1030787710+1028624961+1022828898+1015200000+1011506347
726+1015657796+1023989150+1029107317+1029946274+1030728788+1032452871
717+1034600624+1038726095+1040309545+1029859958+1010006852+995628751+995838343
707+1005338923+1011674847+1007922981+996313024+985708516+984641724+995168240
697+1011356622+1022362837+1021397181+1013849876+1010280915+1014760153
688+1023654394+1027003136+1014523285+992292171+974513610+969301805+977853614
678+992470354+1002592506+1006302926+1006689755+1003053961+986175108+954445953
668+927659558+926745090+943344448+955652315+957694800+955429617+951595567
658+945340114+940783829+942660766+948667307+954506882+961772980+971969109
648+977727446+972907311+964548327+960896710+962330139+966709068+972402107
638+975774170+973660306+968593799+965459489+966691415+971190609+974998917
628+972548113+958046205+934842764+917257380+917193853+932429154+944495371
618+938108201+925754400+927240257+940833127+946004726+933025929+915819818
608+906592947+904150940+902568080+896855145+886166801+877910073+881102891
##END=
