##TITLE=<SNM>
##JCAMP-DX=4.24
##DATA TYPE=INFRARED SPECTRUM
##DATE=29/4/2025
##SAMPLING PROCEDURE=Instrument type and / or accessory
##ORIGIN=Admin
##XUNITS=1/CM
##YUNITS=ABSORBANCE
##RESOLUTION=4
##FIRSTX=4497.3318
##LASTX=599.83466
##DELTAX=-1.4281778
##MAXY=2.10883
##MINY=0.38394576
##XFACTOR=1
##YFACTOR=1.964001e-09
##NPOINTS=2730
##FIRSTY=0.39326978
##XYDATA=(X++(Y..Y))
4497+200239096+200433676+200342084+200082861+200383161+200963532+200932318
4487+200414632+200441961+201458593+202950302+204287005+205101713+205034248
4477+203975477+202594798+201846933+201831668+201802913+201354391+200872972
4467+200667117+200515920+200422371+200891575+202004276+203039830+203424119
4457+203370129+203301086+203203485+202760228+201941484+201338306+201729985
4447+203049223+204154427+204119769+203170648+202057067+201239582+200824717
4437+200628362+200342463+200116700+200521763+201509988+202133985+201864278
4427+201363329+201344194+201504890+201106382+199923258+198226772+196484066
4417+195491637+196103161+198227106+200585297+201945066+202179220+201879073
4407+201583417+201557833+201745736+201839893+201673704+201298641+200646435
4397+199687996+198854472+198611168+198721788+198570637+198059203+197695323
4387+197958157+198816036+199681623+199854792+199246090+198529060+198286726
4377+198315588+198154042+197901648+198004545+198532094+199131357+199459896
4367+199359139+198852712+198228730+197895654+198010706+198409274+198807341
4357+198906444+198579271+198164573+198199868+198715810+199268670+199608285
4347+199746098+199658330+199568089+200054470+201250038+202441356+202927980
4337+202676330+201937129+200980770+200225758+199882637+199586935+199042861
4327+198768373+199497316+200998615+202122923+202113364+201383753+200797328
4317+200703884+200984639+201455103+201749044+201353329+200273572+199190507
4307+198708329+198904942+199574280+200420596+201211571+202027629+202910879
4297+203320357+202786556+201890666+201594813+201965976+202437198+202788437
4287+203101240+203301313+203274667+203057827+202767239+202606073+202816965
4277+203340205+203764827+203818514+203522297+202886463+201985126+201239719
4267+201074365+201453343+202179144+203210981+204294729+204879561+204784403
4257+204425637+204239752+204320692+204494286+204473436+204202014+203997358
4247+204107099+204449643+204919803+205441298+205805663+206002170+206329616
4237+206753480+206785907+206302621+205778274+205523254+205372073+205239131
4227+205346155+205793129+206375837+206965040+207678231+208450755+208823526
4217+208523470+208000366+207947985+208427083+208847259+208749582+208282608
4207+207862387+207709050+207798822+207912143+207758079+207365823+207164278
4197+207398539+207781750+207994737+208160577+208564440+209214295+209818216
4187+209966985+209434367+208582467+208224703+208771478+209766017+210473518
4177+210684623+210769356+211104920+211602151+211863240+211788643+211723697
4167+211923877+212396556+213240004+214352750+214946155+214332993+213117107
4157+212618753+213189337+213868538+213714079+212948703+212517829+212829236
4147+213415540+213715414+213646584+213408757+213156955+212863621+212365175
4137+211741118+211507737+211975651+212633002+212725201+212282612+212088214
4127+212705884+213893530+214956459+215435147+215389245+215192313+215185211
4117+215426907+215690470+215730727+215540745+215290794+215099310+215040964
4107+215299383+215972651+216734734+217153332+217355423+217785432+218365940
4097+218580155+218349203+218167126+218368307+218711807+218711413+218302967
4087+218127157+218843976+220168752+221086190+221076736+220591735+220269175
4077+220225382+220238903+220212332+220192272+220115672+219825828+219336488
4067+218880576+218662400+218663219+218712521+218727012+218803233+219005324
4057+219234820+219431114+219690337+220075339+220569702+221247022+222117829
4047+222817956+222885132+222387173+221883295+221728851+221818653+222008119
4037+222252895+222293274+221847165+221257401+221321877+222286218+223456277
4027+223927712+223473075+222655864+222148693+222107829+222341513+222764663
4017+223326977+223803511+224040427+224120850+224129621+224140152+224390422
4007+225044601+225922980+226736913+227307922+227397799+226759903+225564927
3997+224477826+224136161+224544699+225054737+225057863+224627019+224358844
3987+224723695+225692421+226868004+227819796+228306254+228381852+228458680
3977+229029385+230030979+230725810+230508817+229519059+228241171+226979672
3967+225946318+225482470+225961006+227455993+229468195+231119355+231790165
3957+231467484+230538316+229567860+229204299+229868007+231263374+232361037
3947+232480337+232318291+232915976+233834825+233622521+232093241+230597208
3937+230174072+230989645+233008069+235816997+238007755+238119802+236524650
3927+235202256+235486668+236666241+237177281+236905024+237036373+237951033
3917+238490145+237418947+235046644+232781471+231601685+231566936+232587255
3907+235237809+240262381+247001587+252841110+255368115+254363896+250726481
3897+245550500+240756380+238613603+239908744+242570831+243371336+242427176
3887+242738962+245277120+247645615+248229263+248422842+248553432+246866658
3878+244003770+243042782+245052632+248359565+251588867+254180211+254590766
3868+252681158+251356154+252345548+253446883+251848544+248411492+245893394
3858+246169627+250831032+260936564+271155569+270546898+260355753+249690760
3848+243290092+241889718+244467101+249391933+255304990+261578254+267273924
3838+270058892+268452481+264199947+259830328+256262822+253428249+251595832
3828+251166748+251925599+253955571+258395325+264787101+268718396+267803113
3818+265584510+264092361+260937596+255207146+249996856+248415255+251351192
3808+256883996+261103997+262733412+264423161+267278689+268419189+266510415
3798+264061163+262163527+259554095+256025131+253156948+252071576+252662751
3788+254506701+257080412+259341989+260726673+262232357+264704735+266715177
3778+266259462+264002347+262522641+263768906+268059406+273875196+278781470
3768+281818574+283655270+284559931+284966935+286701266+291016652+296302252
3758+299857134+302056192+306114829+314744236+327524024+338772878+342543780
3748+341602944+342368183+346619595+349965860+349391058+348186219+350510283
3738+358274270+370047092+380667851+385010855+383189090+379777606+378842050
3728+381368388+385630391+389107155+391221662+393245002+395626941+397706759
3718+399677566+403200460+410262150+421628665+434728752+443576244+444957711
3708+442008011+439862852+442034900+448678205+455800380+458871929+458455911
3698+458435850+461086314+466670058+475016161+485179173+493621754+495350955
3688+490287901+483857219+479497888+477155888+476520662+478536202+484398577
3678+493747306+502766510+505900153+504160481+504102303+507607564+509565382
3668+505812597+499441337+495156725+494712421+497497207+502246730+507871627
3658+512951069+515926748+517607210+521812552+531648224+545371914+554104840
3648+550072181+538347795+528278135+523830126+524079166+526387601+529447345
3638+533512659+538157813+541929717+544801785+549100540+556711904+564902379
3628+567100102+562674611+557540724+556096010+559298028+565454117+571126327
3618+573678036+573901523+574488829+576470652+578485859+579530275+580637512
3608+582670321+584488626+584765041+583757043+582381645+581113378+580179613
3598+579889905+580426711+581583174+582930287+584559520+587507824+592596493
3588+598256260+600854281+598925811+594746083+591479604+590957548+593010144
3578+595998690+598625845+600950972+602955435+603983827+604900536+608224070
3568+614424164+619488918+619607641+616600522+614499854+614593084+615382390
3558+615466577+615405637+616592631+618859609+619989609+618887166+617489492
3548+617875101+619713436+620851083+619892797+618110546+618265688+621579025
3538+626097686+628280356+626606631+623177363+621600572+623811709+628317077
3528+631519945+631246080+628402903+625495266+624324479+624487329+623799812
3518+621325007+618789079+618304109+619763026+621446947+622814212+624836277
3508+627393813+628852973+628782078+628488304+628711912+628977341+628908996
3498+629142923+630433041+632658685+635050699+637050853+638704426+640027563
3488+640281217+638500241+634909457+631506835+630767301+633185354+636078302
3478+636209226+634025585+633130484+635152913+637263718+636046740+632854433
3468+632144823+635057194+637712634+636404550+632557867+630660049+632942869
3458+637221230+639297437+637626626+634770521+633787834+635108422+637396888
3448+639676370+641379229+641596403+640032359+638007440+637165207+637769690
3438+638368831+636814073+632578868+627871196+625366103+625229655+625798631
3428+627036307+630475408+635366385+637859886+635631693+631460341+629519124
3418+630261997+631422405+632003398+632510220+632814070+632626880+632909607
3408+634583574+636744090+637511363+636093295+633863281+633546502+636534745
3398+641061661+643903199+643391582+639943801+635077103+630756739+628781229
3388+629545527+631627076+633676819+635821189+637883861+638183705+636334020
3378+634822053+635695607+637954209+639393399+639480318+639167788+638904180
3368+638381214+638220487+639845351+642699635+644176093+643125183+641382021
3358+641456253+643464601+645424270+645975886+645868876+646898058+649051775
3348+649696258+647229464+643519350+641639923+643006884+646646953+649950154
3338+650420921+647865570+644745918+643698407+645015232+646796936+647562085
3328+647293196+645905295+643432432+641492611+642096487+644889224+647528701
3318+648607472+648343743+647446214+646710989+646635057+647040878+647390797
3308+647260298+646879181+647416836+649285459+650529205+648930684+645509003
3298+643806812+645725449+649374320+651109470+649429311+646301526+644877995
3288+646607804+649908516+651570525+650612481+650022444+652880127+658044485
3278+661883823+663440766+664700293+666148710+665766378+662411889+657565099
3268+653731891+652251062+652834483+654634457+657020038+659259764+660368640
3258+660045852+659414663+660139872+662389067+664152501+663633662+662299538
3248+663232211+666311499+668028683+666671191+664452952+663733752+664089801
3238+663546622+661520612+659642459+659546740+660642870+661024351+660024123
3228+658387424+656772212+655672561+655699389+656684686+657485525+657183435
3218+655899265+654283567+653055421+653301305+655528770+657978932+657784822
3208+654428451+650482164+648511206+648497731+648831566+648652266+648541008
3198+649345185+650593726+650812175+649525031+647832369+646662613+645452737
3188+643338654+640990038+639994241+640543186+641072890+640464158+639226786
3178+637960461+636531589+635348965+635256341+635676487+635099500+633856847
3168+633804708+635377979+637004238+637196830+635947986+634127253+632416928
3158+630891851+629510262+628199932+626621381+624629178+622535248+620651147
3148+619151927+618485836+619121214+620530784+621031415+619233807+615637076
3138+612109538+610005714+609607480+610831013+613181875+615256869+615582387
3128+614146353+612371143+611511853+611726782+612080707+611146153+608568162
3118+606004982+605587689+607509240+609675521+609721591+607243993+604057817
3108+602250255+602306582+603307357+604281547+604804878+604739264+604230925
3098+603698186+603283321+602888729+602762964+602882416+602117268+599903278
3088+598060269+598594404+600396321+600431586+597897237+594865049+592979310
3078+591919112+591064678+590586931+590642772+590876942+590895515+590455946
3068+589298937+587621450+586474091+586668140+587402879+586969926+585073625
3058+583449794+583688031+585518839+587511952+588524138+588316007+587448098
3048+586732479+586345474+585453468+583366336+580699545+578738784+578262250
3038+579254770+581038660+582386016+582203074+580317638+577461897+574841297
3028+573539586+573639736+573984800+573433548+572111382+570939805+570406338
3018+570028134+568816011+566539321+564358108+563471687+563554295+563591199
3008+563608619+564337107+565719788+566793946+566848148+566159054+565471597
2998+565104926+564906810+564685994+564169158+563016701+561385100+559769888
2988+558115040+556149788+554416884+553767545+554182046+554827136+554853114
2978+553947512+552508565+551191436+550228719+549548182+549076868+548548075
2968+547831241+547451702+547809876+548282767+548090418+547340687+546413659
2958+545295799+544131081+543491758+543572303+543697218+543052432+541676488
2948+540361241+539674756+539397492+538821051+537443346+535504740+533915202
2938+533503676+534255106+535350265+535874203+535516636+534748392+534232406
2928+534090556+533949011+533527772+532864170+532053863+531131023+530110947
2918+528902527+527458359+526168241+525697474+526058197+526197437+525229560
2908+523694407+522762705+522683435+522794936+522484166+521524180+520084200
2898+518770471+518209932+518467471+518971014+518888163+517775462+516124014
2888+514908674+514516996+514565371+514646098+514741757+514964516+515242387
2878+515242145+514579939+513184511+511427146+509875605+508891218+508313533
2868+507572936+506373621+505168206+504633949+504802232+505063443+505008421
2858+504886055+505104383+505574209+505771566+505380494+504664328+504089981
2848+503697423+503137430+502209037+500859830+498991420+496864561+495248195
2838+494517674+494106846+493414321+492646259+492279315+492311727+492357128
2828+492072216+491461451+490960730+491078907+491777895+492367811+492122928
2818+490911656+489177993+487455256+486065018+485102300+484396088+483559257
2808+482419242+481305328+480599056+480218788+479812785+479213643+478455323
2798+477603256+476806636+476285582+476048438+475803858+475369388+474930153
2788+474704845+474562541+474143032+473293090+472285912+471583099+471312997
2778+470967782+469848344+467961178+466216195+465517996+465813136+466224298
2768+466102327+465691923+465589436+465769889+465520879+464422017+462981127
2758+461925846+461223702+460323957+459162335+458235611+457748485+457405911
2748+456991045+456497820+455842959+455080997+454637209+454703066+454763369
2738+454323921+453627239+453072376+452530472+451824321+451268517+451088975
2728+450813834+449875396+448482213+447374672+446955134+447000505+447010823
2718+446643878+445916757+445066268+444201060+443199557+442073503+441166839
2708+440748818+440572584+440096111+439093121+437866462+436853456+436170674
2698+435606129+434941769+434212583+433650436+433397602+433353020+433301124
2688+433067895+432557554+431844453+431244644+431021703+430993266+430726897
2678+430146450+429630038+429451164+429411923+429161578+428630963+427964903
2668+427274928+426676575+426313060+426098404+425740928+425202818+424756026
2658+424509231+424276397+423877738+423305151+422738057+422491263+422667497
2648+422886128+422669197+421935337+420915048+419929569+419328637+419198442
2638+419138958+418709192+417955515+417249789+416858566+416794409+416862208
2628+416818081+416571893+416181277+415713241+415258133+414906940+414597930
2618+414245614+414035177+414226282+414659265+414806729+414370468+413557551
2608+412698473+411890442+411207235+410922414+411146113+411448628+411255762
2598+410534680+409806011+409560157+409808985+410129587+410100513+409680823
2588+409110543+408619563+408371039+408438048+408636589+408574678+408064761
2578+407368473+406945475+407031452+407477971+407967524+408268278+408244728
2568+407854870+407297033+406963714+407083197+407516089+407950529+408178325
2558+408150890+407868861+407342009+406698194+406207670+406028158+405963121
2548+405638118+404933667+404126213+403568709+403389076+403549043+403968704
2538+404466117+404781864+404819769+404750878+404785202+404932878+405041010
2528+404986413+404817857+404756219+405017945+405560790+406007400+405989858
2518+405621609+405375816+405425527+405450048+405221766+405012331+405210507
2508+405791895+406345119+406464419+406001634+405087231+404085090+403438696
2498+403372445+403743881+404257744+404734763+405104894+405308685+405342827
2488+405308472+405320824+405381855+405404799+405375694+405393903+405507104
2478+405650926+405805005+406033136+406321781+406534858+406574615+406516619
2468+406555920+406787025+407052150+407112817+406938494+406676283+406392523
2458+406031072+405616905+405341765+405367652+405602398+405799725+405897386
2448+406113225+406630760+407310993+407803065+407879240+407614327+407264590
2438+407038918+407012424+407163317+407366683+407412539+407219280+407011513
2428+407091816+407433328+407698969+407688499+407547348+407490019+407532507
2418+407563220+407497819+407296759+406977432+406663020+406507180+406548212
2408+406726904+407025049+407451082+407884399+408093470+407979512+407726890
2398+407681337+408089464+408897253+409757665+410312468+410473103+410321967
2388+409846222+409022623+408078964+407316820+406647178+405585797+403775505
2378+401318210+398575518+395850640+393295411+390978752+389013135+387546539
2368+386436510+385160655+383531604+382200788+381816849+382181062+382951279
2358+384514170+387352612+391261388+395832218+400733120+404950905+406898738
2348+405678452+401963391+397895376+395606455+395357293+395842142+396063171
2338+396179012+396736121+397591131+398073309+398037984+397994312+398199620
2328+398430846+398618673+398994935+399677171+400546689+401452958+402341079
2318+403248137+404202600+405116214+405871863+406473767+406991787+407490748
2308+408150951+409215973+410622994+411912202+412695196+413063354+413411604
2298+413997028+414771373+415558888+416293718+417040597+417814030+418463065
2288+418787431+418753622+418552320+418386890+418214692+417826352+417234585
2278+416808825+416865121+417220685+417322353+416811799+415864711+414952736
2268+414402425+414275173+414507218+414966848+415483047+415968108+416400879
2258+416681421+416747399+416800661+417095801+417560984+417933361+418186043
2248+418511532+418893560+418969067+418479726+417726293+417287118+417304811
2238+417400440+417324144+417247635+417319743+417384750+417260563+416975985
2228+416645671+416313536+415982342+415703742+415563713+415579252+415682042
2218+415825227+416017334+416263430+416595626+417101931+417784076+418470440
2208+419008490+419469242+420052329+420842940+421733914+422537514+423121724
2198+423495892+423828968+424302193+424881032+425365395+425727757+426212849
2188+426974234+427778532+428247812+428310361+428252456+428365201+428693633
2178+429135903+429613954+430058682+430387782+430629690+430962220+431531074
2168+432303324+433150960+433982905+434741073+435366345+435858326+436339624
2158+436962134+437718027+438428639+438972819+439422433+439922396+440605057
2148+441584284+442776741+443812781+444461269+445037801+446036178+447480012
2138+448949733+450148806+451200536+452427408+453983228+455739258+457538534
2128+459451830+461617444+463933860+466145331+468116502+469778330+470970361
2118+471635117+472048859+472588730+473386048+474401724+475659703+477142413
2108+478568887+479548206+479985408+480253932+480933376+482306437+484082163
2098+485657982+486627559+486974777+486853504+486279734+485066701+483128003
2088+480779144+478459359+476202366+473717242+470906872+467984637+465186528
2078+462681526+460676092+459309313+458420039+457597167+456575482+455524966
2068+454834475+454629713+454644979+454598454+454503281+454470808+454421401
2058+454233118+454007841+453909966+453912060+453983289+454322161+455081543
2048+456065990+457009892+457958983+459139847+460587049+462073098+463454929
2038+465060491+467525251+471079950+475189027+479113887+482628041+485925657
2028+489090620+491990821+494506992+496592577+498271642+499734110+501180311
2018+502414406+502862412+502213711+500923259+499943455+499919661+500558802
2008+500925626+500516466+499682457+498794700+497657569+496112068+494517674
1998+493296812+492647504+492773177+493639386+494580739+494989231+495216329
1988+495962267+497216968+498527542+499789860+501136397+502436560+503421979
1978+504118570+504911821+506256354+508326279+510897138+513619709+516312721
1968+518808892+520727772+521843750+522602890+523799049+525759810+528176771
1958+530650059+533041588+535328536+537465865+539466322+541493061+543821769
1948+546622943+549805963+553176294+556461771+559065801+560502746+561286710
1938+562552125+564809816+567646438+570427642+572860931+574987699+576893104
1928+578600212+580363465+582637545+585397081+588116799+590720283+593440305
1918+595583036+595988372+594956459+594116046+594603626+596262298+597984701
1908+598722050+598610368+598756466+599713842+600848211+601419068+601605166
1898+602070167+602991853+603948076+604765364+606049169+608233721+610322310
1888+610629317+608990857+606930310+605773665+605635397+605873512+605915393
1878+605583683+604845484+603707776+602757137+603299527+606041946+609417862
1868+610177123+606990582+601854935+597201404+594011465+592217196+591296784
1858+590581772+589627673+588357888+586949957+585934068+585992580+587176054
1848+588910536+590791480+592089853+590982737+586885739+582196883+579301507
1838+578249868+577523262+576087835+574753772+575210033+577540318+579291674
1828+578406527+575661437+572289649+568357566+564366241+561628860+560609330
1818+560475068+560360107+560432883+561505098+563667314+565516271+565465771
1808+563876962+562643413+563108839+565375696+568642539+571358798+572112717
1798+571333062+571190909+573555003+578298486+582536848+582751109+579584356
1788+577016137+577409455+580048022+583130284+585995737+588668597+590734789
1778+592320685+594948204+600170406+607570119+613875644+615666453+613499564
1768+609957278+606739721+605417919+607204843+610934199+613559533+614317337
1758+615175292+616889622+618837880+621768400+627251660+634574773+640154785
1748+641599924+640393507+639313401+639939735+642279610+645049404+646666316
1738+647614102+650737882+657526313+664207432+665185081+661863975+658320232
1728+655816717+654814000+655908916+658710272+662634951+668704303+678357094
1718+689678815+696119877+694302664+688906747+685118577+684661588+687238121
1708+691989920+697691448+702954681+708146838+715789097+726656013+735912027
1698+738552172+735853333+730072717+723510626+719833227+720682927+724586301
1688+730007771+738342827+750719768+760722783+760092200+752993545+747278785
1678+746359952+750603776+757980181+765392883+772007235+777842418+779962145
1668+776491056+772199706+772174941+775946238+779217815+779578357+779399846
1658+781899234+788701140+800431839+814043421+819771594+817272753+817186016
1648+821943946+824772312+819070299+809211562+802412326+800748739+803634100
1638+809847790+816257532+817136002+811357753+805068313+802246259+802026778
1628+802005534+801537620+801645478+801938342+800702184+798767401+799136258
1618+802016399+802286319+795356585+785128566+777558598+774428081+774476639
1608+775292712+775026616+773467912+771667149+770623583+770404769+770498122
1598+770503402+770159735+769315619+768325649+767971663+768557269+769481930
1588+769860923+769315498+768256515+767408150+767168457+767961891+770835294
1578+776334700+781709191+781691528+777029136+773874523+774685558+776476246
1568+775479052+772456819+770024077+769580684+773316594+784672427+801789027
1558+808773814+798691712+785640547+777190955+773154229+771828300+771647422
1548+772264409+775202030+782257287+793741008+808346567+821363559+822929546
1538+812551242+802605222+799381292+800699513+801535070+800814049+802021497
1528+807108830+814300898+821328841+828897413+837877498+845338272+848696585
1518+850211283+851720761+851888649+850558835+850930848+856482635+868259342
1508+883248142+891707446+886446033+877083678+873522636+876945592+884504392
1498+892027623+896172025+896693232+896291781+897774795+902066813+907363065
1488+910219534+909618754+908316678+909386830+913116307+917706044+922727824
1478+929663932+938577310+947064898+952944269+955866230+956375540+955529421
1468+954902784+955889538+958891802+962623038+965605272+968493729+972684382
1458+977005717+977452327+973600970+969612378+967392986+966369935+965921019
1448+965952521+966217342+966285869+966096434+966453576+969189318+976022848
1438+985942707+993429095+994031454+991542202+991018993+992296668+993229159
1428+994102105+996802644+1001628250+1006910421+1011208569+1014633346+1016897593
1418+1016204492+1012883872+1009975992+1008893276+1008952820+1009318460
1410+1009324287+1008570731+1007582035+1006380838+1003947307+1000899824
1401+999565700+1000560344+1002055801+1002884560+1003636416+1004209397
1392+1003524369+1002482138+1003352353+1005720271+1005933743+1002674002
1384+999939594+1000969686+1004184815+1007143741+1010858347+1017740130
1375+1026811140+1033181914+1033920841+1031943692+1031329194+1033149259
1367+1036853243+1041537121+1045146053+1045279830+1041793385+1037323524
1358+1035403673+1038539653+1045786044+1052635355+1055986446+1057365849
1350+1059039756+1060622010+1060742797+1059884296+1060138860+1062392060
1341+1065582789+1068929509+1072117567+1073741823+1072687149+1069997658
1332+1067255360+1065076332+1064262504+1066019687+1069386923+1071154546
1324+1070412341+1069391536+1069784853+1071187079+1072394103+1073079010
1315+1073379582+1072696982+1070536284+1068190582+1067737053+1069052481
1307+1070038689+1069778177+1069388622+1069714688+1070054470+1069357060
1298+1067844486+1066705565+1066414097+1065903027+1063154174+1057104730
1290+1048784120+1039723733+1030461953+1021445389+1013672206+1007992105
1281+1004654793+1002981736+1001025285+997305216+992829771+989454159+986569587
1271+981668230+974695158+968493365+964242560+959430125+951531967+941980783
1261+934358251+930029329+927115683+922893102+916512738+909165407+901979166
1251+894953044+888028287+881771016+876102690+869662964+861724685+853687774
1241+847264618+842048910+836380523+830135028+824779717+820845388+817344497
1231+813882816+811552470+811122248+811539056+811041217+809430315+808118528
1221+807896255+808103293+808357856+809320878+811206374+813211627+814726567
1211+815971041+817490473+820054018+824313502+829728721+834678393+838178191
1201+840795817+843644457+847102374+850639865+853758668+856779444+860223341
1191+863675492+866037401+867121391+868333574+871366369+876572486+882756374
1181+888502696+893532791+898642157+904769597+912353040+920975679+929343390
1171+936087331+940879190+944382994+947194790+949906618+953565383+958093088
1161+961073804+960667558+958605857+958555236+962135883+967209377+970783165
1151+972475099+973921451+975463948+974943592+970793180+965430100+963408763
1141+966716394+973088626+978615042+981679945+983575578+985651543+987536068
1131+987847080+986747430+987064876+990555206+994292755+994174517+991108521
1121+988511775+986576810+984134660+982350102+982894799+984954496+987668752
1111+992341948+997920685+1000126967+997822842+994439399+992870924+992201556
1101+990916657+990244072+991542142+993264363+993019450+991353495+990618574
1091+991905354+994949134+997735013+997197782+992431780+985821555+979982610
1081+976099326+974237744+973717084+973838114+973134088+970229486+965446792
1071+959905566+954393656+949474819+945362343+941735505+938394551+936526899
1061+937509283+940213888+941207197+938276981+933166887+929953821+930713507
1051+933725240+936368965+938335432+940368241+941515478+940193251+937128166
1041+935361575+937366766+942655553+948148221+950965480+950373076+947410144
1031+943965276+941758692+941294358+941982239+943176213+944466149+945494541
1021+946285790+947306898+949024688+951788109+955516129+958784003+958854230
1011+953934907+945458366+936458433+928262495+920151715+911713899+903750613
1001+896614386+889948745+884107068+879562064+875634836+871898865+869189829
991+867441144+864673232+859580861+853141742+846989902+842182565+839182669
981+837509916+836048024+834384801+833120357+832425132+831154498+828094936
971+823426595+818359050+813790678+809948486+806856573+804292360+801573917
961+798378818+795882343+796204827+800390383+807194292+813844273+818140661
951+820270828+822551585+826944603+832896021+838087813+841476111+844629389
941+849592232+856199240+862202068+865946416+868336852+872178072+879718663
931+890416417+901015416+908371913+912014350+913150054+912687056+911301826
921+909428286+906721011+903203974+900311329+899309462+899767422+900619610
911+901159936+900313150+896993683+892020339+887894814+886398811+887841340
901+891805047+897201267+902520524+906989231+910672275+913124865+913227018
891+911491504+910968720+914397806+921206632+928120646+932131879+932658426
881+931553677+930772323+930308718+929189644+927626996+926726553+927008856
871+928248535+929837586+931075323+932295215+935221243+940434522+945104562
861+945620002+942269822+938308483+935771159+935201213+937331865+942279170
851+948026888+951871446+953256131+953692179+954077060+953645624+952180698
841+951980519+955715398+962580732+967910126+967569918+962286169+956395084
831+953937820+956635870+963084701+969062643+971373263+971040096+971275905
821+974723746+981797819+989838190+994341131+992836569+988429713+986671255
811+989335254+994316913+999213231+1002486872+1002660284+999925755+997799412
801+998700098+1000455095+998962977+992598090+983964222+977143135+973982938
791+973260095+972596493+970282110+965062579+956914045+948101667+941796567
781+939574747+939847277+938284568+931216019+919898790+909999082+906468935
771+909542579+915082895+918726728+919677609+920545397+923542866+928143589
761+932563921+936103658+939688372+944387789+949503043+952461908+951325050
751+947002927+942659255+941482034+944975945+952178210+959892759+964796482
741+966335338+966872568+968980702+972949204+976653734+977836904+976051072
731+973245649+971586735+970656794+968685532+965724360+962815934+959410762
721+955323476+953547234+956813288+961770547+962002956+957253464+953753240
711+956751255+965466458+973388591+975596329+973698086+970512881+965908637
701+959782290+953922768+947963034+940119504+933143275+931981046+935868153
691+938828900+938355523+937569070+938418952+939963937+941506009+942526268
681+942666053+941967915+939972738+937366463+935600904+933364941+927175530
671+916394864+906971629+909135119+923724289+935757563+938016590+935657959
661+933289798+930550899+927454555+927833791+931657166+929818770+916414955
651+898677483+885688897+880105668+881286410+888945725+901309676+913313148
641+920581087+922743180+921952357+920294778+919586321+920942963+921934755
631+918373045+912149704+910758465+916330039+919628505+909442125+889044722
621+872556580+867686179+873031110+882204637+886132775+881193968+873085313
611+871218450+878790482+887951202+888528856+881536968+874893299+873605305
601+878611183+888696138
##END=
