##TITLE=<SNM>
##JCAMP-DX=4.24
##DATA TYPE=INFRARED SPECTRUM
##DATE=29/4/2025
##SAMPLING PROCEDURE=Instrument type and / or accessory
##ORIGIN=Admin
##XUNITS=1/CM
##YUNITS=ABSORBANCE
##RESOLUTION=4
##FIRSTX=4497.3318
##LASTX=599.83466
##DELTAX=-1.4281778
##MAXY=2.0760558
##MINY=0.42626926
##XFACTOR=1
##YFACTOR=1.9334776e-09
##NPOINTS=2730
##FIRSTY=0.44055489
##XYDATA=(X++(Y..Y))
4497+227856214+227854334+228351708+228964038+229349492+229517503+229462090
4487+228999968+228166464+227530196+227849170+229340275+231367704+232912264
4477+233353392+232895139+232239650+231796995+231339050+230495851+229426161
4467+228713301+228649210+229042140+229756495+230779142+231608329+231427648
4457+230211111+228913789+228278985+228126573+228043323+228141771+228819595
4447+230089819+231392073+232052063+231789658+230813330+229710978+229194506
4437+229647396+230793646+231853964+232023794+230929920+228915623+226903192
4427+225738661+225588144+226006569+226399067+226307632+225600198+224641981
4417+223992226+223900236+224367707+225437983+226951715+228283548+228770672
4407+228187057+226756128+225152857+224286815+224477962+225016337+225012483
4397+224455504+224033042+224154981+224545028+224729948+224630883+224549513
4387+224709925+224920232+224667707+223758937+222867801+222866861+223477742
4377+223473457+222528666+221714537+221829725+222457099+222898475+223028521
4367+223036028+223026055+222981632+222752213+222133994+221195153+220467650
4357+220614729+221820739+223510713+224675090+224657056+223846102+223421513
4347+224152792+225570079+226523210+226408623+225590518+224862630+224803934
4337+225332490+225687564+225246265+224331115+223699424+223535082+223536546
4327+223541802+223484124+223316683+223414237+224275363+225554897+226236928
4317+225979764+225518736+225620945+226148160+226261467+225567382+224843347
4307+225081599+226116531+226952285+227131240+226997972+226911053+226838623
4297+226513884+225751238+224744776+223922894+223450722+223248092+223450799
4287+224292457+225528154+226479327+226782101+226699143+226529684+226213376
4277+225736117+225297593+224812026+223976087+223126476+223207368+224482525
4267+225940921+226436060+225952250+225308676+225027250+224990642+224967907
4257+224870815+224704731+224776605+225585324+227147917+228717725+229360575
4247+228647607+226906074+225088489+224124877+224193715+224826747+225549224
4237+226051608+226125224+225960913+226060717+226438634+226519017+226131082
4227+225889809+226294114+227042872+227440611+227139902+226397556+225702484
4217+225250427+225019204+225244200+226179789+227354956+227855999+227471084
4207+226907107+226833336+227198799+227500108+227442985+227282234+227531445
4197+228376154+229484826+230356926+230695506+230506024+230009251+229442022
4187+228860843+228224020+227665761+227508678+227973514+229051250+230595856
4177+232215018+233205913+233134562+232438365+231954154+231946001+232023332
4167+231864138+231554813+231239199+230872288+230531118+230640494+231434677
4157+232301536+232299794+231467724+230929673+231474368+232641411+233482067
4147+233725637+233786876+233963334+234080217+233818320+233154646+232497307
4137+232340518+232678343+232935693+232631269+231935257+231405607+231335104
4127+231562381+231798382+231914757+231921570+231826451+231587074+231177790
4117+230723513+230502047+230634113+230852650+230825599+230595917+230431868
4107+230448931+230649373+231047312+231498629+231724827+231686478+231622325
4097+231666162+231786005+232108139+232860165+233845449+234415745+234218386
4087+233653623+233372506+233537942+233818906+234022153+234370475+234999930
4077+235522552+235454423+234846084+234172777+233770368+233607782+233492132
4067+233236494+232669002+231765489+230856612+230505854+230995305+231932359
4057+232570585+232576905+232229677+231888800+231635550+231469281+231484664
4047+231745605+232178750+232552150+232549268+232158496+231916406+232282546
4037+232906191+233101022+232831772+232599486+232642506+232770472+232737856
4027+232545522+232506494+232934028+233698246+234346907+234641435+234660918
4017+234543696+234440068+234485755+234532351+234162496+233216055+232048472
4007+231168665+230915924+231459509+232694959+234061196+234852697+234880103
3997+234584049+234449425+234523426+234567433+234474750+234291926+233965322
3987+233456388+233024553+232933041+232954035+232642074+232027617+231617100
3977+231771917+232385603+233077084+233525873+233644421+233502275+233233041
3967+233027929+233102008+233676513+234882846+236448415+237658664+237995780
3957+237619405+236982150+236340595+235870489+235853811+236410281+237181189
3947+237588099+237544447+237602789+238151198+238793447+238879995+238378922
3937+237830220+237799547+238537484+239809620+240897791+241072784+240366029
3927+239657408+239718863+240343802+240848929+241352638+242677134+244825146
3917+246318794+245617248+242990498+240215913+238676995+238353243+238658267
3907+239803840+242541184+246544915+249945425+251185992+250407162+248462335
3897+246065128+244134128+243724012+245071305+246708456+246617252+245207147
3887+244799127+246191491+247617965+247813644+248012066+248937529+249242831
3878+248369328+247730594+248223128+249399035+251058011+253112584+254099486
3868+253015847+251274915+250343795+249819570+248815359+247532403+246630477
3858+246839535+249526815+255774123+262506305+263317011+258557663+253006460
3848+249205067+247810268+248795197+251466124+254590279+257328178+259438642
3838+260356197+259547371+257783102+256261771+255236134+254305986+253400407
3828+252768038+252590718+253550676+256786166+261642821+264465497+263472075
3818+261527957+260502783+258878718+255644108+252496816+251562938+253636979
3808+257322906+259588217+259798401+260820277+264141652+267000088+266813549
3798+264951403+263044217+261115298+259386759+258742861+259495364+261211973
3788+263567332+266458939+269439236+272068869+274762500+278231663+282195549
3778+285668442+288543648+291773218+296416392+302975137+310600643+317203040
3768+321765753+325242038+328446483+331494263+335058961+340017656+346037040
3758+351913383+357456633+363829517+372475636+383823709+395365657+403219843
3748+407980347+413409719+420482146+425368859+425853408+425508785+428243140
3738+435319944+445222075+454249038+459078412+459505838+457988591+457102418
3728+457916639+459748821+460984333+460638231+458778088+455728829+452035148
3718+448755791+447160397+448435152+453113871+459200859+461832619+458894925
3708+453878675+450969990+451674032+454802241+457769776+459000788+459189607
3698+459633248+461255802+464846735+470404011+476943581+483436385+488370696
3688+488970449+484633209+478768210+474918757+474056506+475054676+477044603
3678+480803978+486523378+491326331+492647791+491405497+488472366+483330708
3668+477085419+472194853+469520150+468448611+468410600+469437594+471427829
3658+473380424+474009433+473567148+473959892+476597509+480722501+483058561
3648+481116078+476967226+473867224+472748703+472853857+473265776+473756430
3638+474655180+476225635+478319698+481030439+485790511+494100330+503315620
3628+506620811+503098193+498570962+496582822+497116388+499032236+501074540
3618+502258816+502909805+504247726+506903254+510536051+514630307+518752616
3608+521740867+522309268+520726883+518484970+517074973+517586959+520474466
3598+525070997+529405432+531570214+531621079+531177901+531607577+533390835
3588+536019389+537946366+537754741+535289636+531514786+528244276+527371729
3578+529268619+532294480+534334533+534779869+534932097+536386115+539214371
3568+541692978+542076475+540699957+539105796+538342317+538450029+538377276
3558+537395106+536610849+537443197+539207465+540095179+540218613+541423668
3548+544207716+546623189+546550559+544672043+543581174+544293232+545898307
3538+547368972+547582115+545234217+540897994+537740869+538382455+542108412
3528+545727275+546513874+544556008+542174569+541048125+540513573+538884145
3518+535844534+532916582+531861104+532989644+535107198+537129926+539057211
3508+540848608+541727259+541659191+541861914+542798274+543107661+541592789
3498+539140693+537572858+537343500+537457501+537236158+537190040+537938968
3488+539035755+539562169+539408523+539302353+539540466+539289035+537911469
3478+536355658+535995159+536701667+537205454+536833610+535624425+533483072
3468+530687679+528442067+527606205+527465199+526765225+525468058+524537617
3458+524490943+525078519+526217047+528170166+530372373+531308857+530137774
3448+527561196+525108422+523964407+524077544+524175946+523066704+521058280
3438+519671034+519762161+520509178+520477795+519322990+518037599+517735364
3428+518596874+519597665+519328909+517711873+516318585+516309398+517014058
3418+517275353+516981627+516577907+516258779+515983765+515468573+514494850
3408+513626403+513557010+513862481+513736766+513484626+513861618+514631540
3398+515083042+515300624+515569873+515274081+513814544+512132216+511855506
3388+513180111+514862778+516045513+516802549+517128644+516790865+516090953
3378+515719695+515936815+516418775+516822094+517457113+519148628+521969362
3368+524546495+525545435+525237035+524737010+524652296+525147820+526482720
3358+528619881+530668442+531543024+531011000+529604825+528062146+527247802
3348+527779271+529172868+530162313+530140734+529408761+528343480+527407674
3338+527410634+528762921+530796932+532466005+533194155+532925831+532039288
3328+531138503+530529903+530072851+529557967+528878895+527970835+526968503
3318+526289492+526198058+526430252+526579581+526623233+526785078+527219132
3308+528091987+529333850+530218296+530166259+529560125+529159427+529209799
3298+529376577+529475719+530020938+531521814+533340340+534265540+534415671
3288+535102635+536614487+537730572+537564165+536770043+536725528+537999452
3278+539757801+540737752+540667958+540142716+539566793+539170965+539528936
3268+541089187+543396640+545057636+544612607+542006928+538928351+537108470
3258+536741004+536827938+536742052+537149470+538954617+541486803+542666948
3248+541404000+538928413+537198548+536814990+537038306+537249722+537602144
3238+538210375+538552500+538261179+537880087+537913134+537808690+536910926
3228+535448090+533725316+531462810+528855651+527182139+527352739+528613469
3218+529477199+529272750+528211722+526661706+525125747+524090862+523487564
3208+523044077+522933282+523462840+524411840+524877029+523930558+521800241
3198+520127531+520265022+521645425+522598555+522346754+521353055+520128209
3188+518845839+517897949+517801027+518437495+518866123+518359933+517104876
3178+515493204+513705538+512185270+511590142+511860624+511894134+510742041
3168+508867718+507483678+506919469+506549106+505941893+505089168+503981375
3158+502788066+501971841+501829664+502213777+502721756+502891246+502370752
3148+501201365+499755207+498401872+497350802+496609180+496090319+495766721
3138+495502743+494933726+493924397+492947190+492613912+492949563+493255898
3128+492727296+491315110+489840560+489078931+489063425+489372843+489578371
3118+489286217+488278675+486861280+485703207+485202874+485149326+485006316
3108+484526977+484053032+484069278+484595167+485280590+485876551+486243370
3098+486092807+485129195+483384379+481267010+479402922+478390756+478378024
3088+478821635+478962517+478452966+477349613+475914060+474714739+474398108
3078+475025636+475989187+476526267+476217836+475334838+474675619+474678085
3068+474846435+474405383+473265345+472012538+471209261+470960235+470965692
3058+470734638+469861012+468544608+467799164+468374871+469433062+469350475
3048+468003182+466931796+467116238+467892325+468107225+467361442+465974935
3038+464447177+463259479+462876105+463482948+464533155+464928150+464128912
3028+462789418+461836010+461334628+460820916+460342131+460281277+460305662
3018+459593758+458205310+457137346+456919826+457075722+457005589+456572275
3008+455809906+454785749+453745746+452963616+452483537+452213918+452151399
2998+452256953+452162004+451364153+449853041+448244206+447122787+446493501
2988+446024520+445616022+445450138+445534976+445582050+445501744+445596570
2978+445957993+446122182+445633285+444532059+443201628+442151452+441785805
2968+441937755+441908592+441317501+440501616+439878958+439482668+439232193
2958+439060236+438708061+437968011+437137267+436739898+436811973+436885127
2948+436690358+436401533+436131606+435770028+435411718+435305886+435280299
2938+434887586+434105919+433206922+432139235+430813799+429756903+429694076
2928+430536134+431338825+431373969+430896016+430712160+431207160+431898687
2918+431875782+430716692+428982357+427625353+427025384+426909010+426984661
2908+427158560+427275181+427136272+426717477+426124260+425482859+424963937
2898+424677332+424488697+424184305+423856206+423824792+424045673+423938947
2888+423085267+421822380+420879453+420601696+420631352+420233644+419054115
2878+417596212+416736274+416866212+417655555+418403805+418499895+417850170
2868+416959158+416384622+416222191+416268957+416419981+416691018+416998525
2858+417058238+416573103+415607271+414589927+413816367+413214056+412690417
2848+412344068+412204603+412084714+411804152+411358938+410817357+410205489
2838+409550586+408940814+408493196+408298797+408391681+408677453+408870774
2828+408669192+408106370+407563803+407292119+407131630+406841850+406395033
2818+405835603+405239180+404795816+404544724+404169397+403465262+402777342
2808+402514474+402509634+402260362+401582153+400782729+400326418+400378054
2798+400571004+400315011+399487812+398664867+398441520+398644952+398494852
2788+397578468+396344374+395458047+395030622+394735292+394375379+394000299
2778+393633757+393210678+392729489+392286372+391965301+391731072+391462717
2768+391158294+390992472+391017134+391020063+390893792+390792493+390667301
2758+390128711+389093209+388069853+387485206+387152667+386686799+386127554
2748+385839007+385911175+385984514+385741653+385305041+384956811+384668449
2738+384147060+383266282+382270086+381544494+381276263+381316832+381324046
2728+381070272+380664271+380427083+380491328+380613159+380469471+380060819
2718+379696837+379584963+379558636+379323729+378880119+378464962+378158135
2708+377857503+377541488+377221127+376792252+376229092+375728974+375455224
2698+375311814+375080730+374670814+374202141+373854188+373632722+373398093
2688+373121229+372927693+372898191+373002666+373141514+373083034+372587941
2678+371784233+371136543+370858446+370649280+370215411+369720257+369450453
2668+369359172+369208764+368899408+368467451+367972882+367486452+367057546
2658+366718904+366548365+366559402+366546023+366282569+365880268+365708558
2648+365915843+366187065+366084840+365572299+365042433+364835857+364919461
2638+365035651+364958397+364613188+364118928+363684781+363369322+363045292
2628+362649002+362314090+362188837+362214147+362145123+361799853+361292707
2618+360945772+360942874+361168564+361394870+361493580+361417158+361091433
2608+360446148+359574711+358795140+358426503+358484860+358708915+358887099
2598+358996661+359055357+359052305+358991636+358851925+358609773+358401964
2588+358455789+358752968+358970426+358847116+358467103+358131451+358045442
2578+358144368+358176552+357949321+357504447+357084697+356953371+357187415
2568+357567705+357725543+357507591+357135624+356909318+356891746+357002048
2558+357205017+357457743+357665275+357819752+358004595+358181207+358122172
2548+357627202+356796550+356060632+355812068+355998113+356258145+356428468
2538+356646728+356990518+357296021+357358817+357148726+356801729+356486670
2528+356335399+356436175+356752621+357082446+357249779+357282302+357310047
2518+357430121+357670084+357878880+357750698+357205942+356591207+356289342
2508+356323684+356482324+356622590+356737269+356846861+356916809+356886444
2498+356783079+356747873+356873188+357062624+357130846+356998780+356742109
2488+356498724+356357194+356290575+356222940+356182093+356270044+356468020
2478+356684615+356961386+357310325+357464494+357214142+356837890+356762270
2468+356991690+357218520+357255297+357111424+356887646+356746764+356797722
2458+357000938+357302032+357691447+358035022+358098835+357828415+357392203
2448+356970881+356685262+356602829+356638466+356621264+356566607+356663406
2438+356946527+357233779+357411779+357565177+357809302+358118349+358319808
2428+358244188+357896606+357459870+357151377+357100234+357269262+357476917
2418+357616444+357809178+358204112+358731851+359186467+359442737+359522674
2408+359564199+359730945+360045234+360365965+360600471+360827486+361166159
2398+361621361+362089202+362497854+362938412+363621616+364758387+366627593
2388+369707155+374561684+381693238+391625241+404899459+421785325+442176484
2378+465855139+492526792+521447942+551395500+581118756+609360309+634766763
2368+656724771+675738981+691503706+701203021+702332671+696581149+687281484
2358+673905350+653232980+624703250+591339059+558570398+533079661+519685462
2348+520022347+533190332+554987727+577585101+594480154+604807614+610683618
2338+613996978+615311224+614602496+612739887+611095661+609718342+607030537
2328+601915484+595078951+587491270+578703838+567784486+555124047+542221982
2318+530236423+519401292+509369716+499715409+490200905+480719757+471196128
2308+461712483+452586686+444173132+436637550+429893593+423705766+417973142
2298+412949030+408977777+405959222+403318522+400616075+397952316+395638143
2288+393713200+391974858+390331218+388945452+388047379+387685493+387696560
2278+387878690+388094977+388205957+388080797+387781306+387577997+387642581
2268+387829397+387888247+387798292+387735527+387755842+387698256+387447473
2258+387131489+386966006+387017827+387220858+387523216+387890374+388223159
2248+388407817+388448324+388475114+388602216+388775036+388793070+388561462
2238+388260090+388094238+387944908+387497660+386662137+385651606+384721164
2228+383987280+383405315+382806765+382061906+381277927+380728732+380532483
2218+380513092+380448786+380330068+380270848+380305036+380410960+380623517
2208+381007969+381594404+382360966+383218253+384060095+384863897+385664738
2198+386464193+387257173+388077159+388946777+389857797+390799121+391730826
2188+392563173+393231733+393798346+394425690+395172984+395866391+396335588
2178+396688905+397111552+397524828+397712199+397651869+397537868+397575601
2168+397795002+397996923+397994673+397885512+397833197+397698141+397270561
2158+396726329+396399679+396235953+395892810+395280881+394629122+394098577
2148+393646181+393240550+393022660+393255902+394134245+395589373+397357033
2138+399273251+401376532+403728345+406346233+409311301+412735425+416592925
2128+420717238+425002194+429512162+434311601+439280994+444277607+449354989
2118+454590979+459866491+465021805+470017062+474852755+479625744+484638326
2108+490223255+496650397+504331578+513762631+525087768+537885944+551340627
2098+564525321+576745416+587702810+597186517+604794913+610262636+613850855
2088+615987522+616574235+614891598+610208379+602444672+592174489+580118829
2078+566971560+553527728+540419425+527809359+515761529+504676139+495005154
2068+486802646+479774025+473536320+467787449+462466683+457723473+453668954
2058+450319433+447698031+445752496+444312288+443302527+442780121+442669080
2048+442731198+442872573+443338904+444623309+447179510+451110348+456244021
2038+462661699+470923396+481600042+494753877+509905039+526268653+542975349
2028+559263528+574554184+588305430+600015574+609703051+618108899+625887033
2018+632814878+638278284+642212698+644920849+646276219+645811214+643465536
2008+639789765+635333993+630085949+623735692+616281372+607989463+598973351
1998+589351968+579703025+570761762+562568133+554413469+545898368+537603809
1988+530382608+524506851+519790831+516063054+513191671+510917759+508959338
1978+507242544+505932305+505174037+504815326+504593120+504631623+505327466
1968+506597998+507760850+508394297+508790094+509377978+510300959+511662679
1958+513640892+516164570+518806934+521169445+523215664+525204358+527434926
1948+530040051+532957213+536063041+539153209+541803958+543670390+544973229
1938+546268177+547848220+549694737+551806372+554260810+557003550+559793826
1928+562526392+565517109+569039728+572546994+575130354+576926868+578878816
1918+581007406+582274054+582329174+582122197+582771675+584691746+587387443
1908+589730964+590891133+591075729+591092869+591466501+592278440+593505259
1898+595048801+596575019+597776990+598802936+599991775+601179627+601753084
1888+601522246+601002060+600707840+600793418+601223772+601763935+602050201
1878+602013763+601933241+602024491+602473465+603729878+606009216+608274620
1868+608513226+606098370+602815221+600636012+599817167+599211279+597750170
1858+595422803+593008995+591256811+590360835+590019634+589816665+589582929
1848+589647667+590536799+591823239+591691111+589208681+585927012+583526460
1838+582057274+580744816+579403811+578754950+579339012+580333204+580031895
1828+578088456+575797218+573734353+571287559+568411521+565968981+564351884
1818+563137212+562030436+561355248+561452972+562004787+562237043+561856814
1808+561436263+561621229+562496181+563843597+565382577+566583747+566932778
1798+566784559+567400003+569789642+573483046+576163698+575723664+573218606
1788+571366108+571410500+572793615+574558439+576440716+578488229+580442643
1778+582193162+584347771+587845049+592867434+597728282+599940601+599377687
1768+597818484+596515151+596146452+597235286+599392731+601263047+602369823
1758+603462602+604683749+605716045+607405525+611069088+616168727+620056900
1748+621284706+621297160+621804892+622980105+624272833+625442806+626483425
1738+627797116+630683390+636061156+641653607+643214228+641065908+638569605
1728+637493657+638084624+639859313+641864530+643734723+646619886+651953015
1718+658949852+663712976+663539478+660307935+657080337+655811840+657376530
1708+661322104+665761846+668770628+670828253+674365546+680271761+685527820
1698+687031410+686073100+684757991+683807758+683692278+684665323+686555245
1688+689822363+695954916+704849320+711473142+711425483+708262377+706434357
1678+707260539+710354590+714088440+716864967+719378780+723076499+726909676
1668+728386260+727990063+728237362+729952677+732004074+733403960+734762351
1658+737275856+741812088+748891174+756889972+760179780+758039722+756346850
1648+757114644+757648888+754807007+749619755+744855274+742008707+741931145
1638+744992581+749578076+751081173+747099037+741544504+738460009+738679255
1628+740868699+743273444+745263186+746741127+747100886+746485504+746717020
1618+749319863+752643582+752581248+748984705+745747551+745230386+746727008
1608+748264817+748822798+748609039+748202236+748066965+748344722+749031810
1598+750350680+752483709+755102090+757642846+759806580+761490450+762748713
1588+764073995+766170093+769148233+772187966+774338074+775792339+777939488
1578+781633631+785127641+785199285+782545884+780680747+780362174+779429945
1568+776787457+774373834+773565532+773973321+775992349+781433251+789745752
1558+793471155+788522633+781158083+775944566+773748032+773934170+775180286
1548+776575424+778478787+781990616+787971496+796572236+805903407+810439763
1538+807623530+802472409+799087960+797683697+796973119+796740123+798246611
1528+802412418+808585046+815336618+822320076+829225725+833576683+833984410
1518+833497394+835198774+838929110+843302634+848079384+853694709+860446343
1508+868178543+874332490+875244928+873311292+873497676+877540111+884302781
1498+890905332+894521420+895085628+895301977+897591302+902653949+909564653
1488+916176514+920507434+922172068+922584974+924057428+927783879+932317768
1478+935385370+937250199+940302140+944970438+948081630+947689132+946545856
1468+947737593+951741493+956919928+960752303+962575514+964527154+968538884
1458+972955629+972251709+964995920+956595498+950690084+947819965+947575378
1448+948834751+949983945+950255044+950239692+950594827+951461578+953342683
1438+956897548+961216013+963826564+964326959+964844124+966187718+966947929
1428+966132105+964557981+963045513+961436000+959863294+959461363+961099855
1418+963685065+964659528+963030839+960222684+958359890+958285903+959005298
1408+959271649+958845796+957957650+956845572+956314288+957732793+961431622
1398+965364310+966897495+965798364+963620820+961403014+959732523+959505015
1388+960740650+961739714+961599202+962270690+965803913+971238711+975648119
1378+977685829+978568672+979694315+981373006+984161432+989003352+995040400
1368+999724852+1002360126+1005061186+1009078219+1012671618+1013596942
1360+1012415501+1011917264+1013700954+1016047496+1015795449+1012561070
1351+1009202393+1008014047+1009127913+1012114808+1016667626+1022168765
1342+1027593637+1031395924+1032010073+1029999615+1028536348+1030043822
1334+1033985265+1038743518+1044047237+1050334976+1056249699+1058843788
1325+1057196973+1053851552+1051518512+1050733640+1051295073+1053635265
1317+1057788124+1062492183+1066411985+1069417192+1071734694+1073157083
1308+1073741823+1073446740+1071198909+1066401874+1061042295+1057970994
1300+1057528925+1058007248+1058590631+1059955927+1062455930+1065110317
1291+1066552929+1066306061+1064527550+1061130709+1055396389+1047159107
1283+1038892848+1033989951+1032344184+1030113677+1025044989+1019473747
1274+1016117845+1014269417+1012472471+1011686550+1012636043+1012465627
1265+1007811879+1000303611+994831203+992982158+991534182+987595205+982570168
1255+978988669+976207641+971846757+965671601+959317706+953278685+946609485
1245+938814580+930350160+921665261+913053361+905096858+898313965+892628168
1235+887490117+882450900+877447504+872589677+867830807+863012193+858437179
1225+854803519+852151105+849726014+847456233+846376894+846847016+847687071
1215+847912791+848068163+849003598+850558238+852204005+854059647+856511065
1205+859381924+862200192+865121423+869009535+874204740+879641018+883945365
1195+886978624+889573637+892404421+895487868+898532533+901488292+904368092
1185+906849166+908506524+909638578+911454822+914790193+918972709+922779004
1175+926505763+932130583+941051746+952189790+963017399+972142456+979198852
1165+983089306+983212740+981738992+981923465+984610283+987768764+989126724
1155+988705803+988394012+989118216+990019864+990830632+993404251+999539824
1145+1007438864+1012884514+1014562958+1014560677+1014069962+1012446082
1137+1010260707+1009627445+1011050636+1013331577+1015863516+1018461736
1128+1021003479+1023732777+1025825237+1025601120+1022886064+1019884372
1120+1019075762+1021001074+1024310241+1027231535+1028990069+1030395627
1111+1032270629+1033711145+1033469271+1031892065+1030544155+1030527015
1103+1031262625+1031299926+1030766484+1031676148+1034668468+1037584521
1094+1037431739+1032760357+1025003864+1017976138+1015812343+1020109907
1085+1028123565+1034809412+1035834125+1030087104+1021357011+1014519738
1077+1010782867+1008043087+1005270383+1003797991+1004328905+1005668553
1068+1005749445+1002644295+996358715+990673781+990370621+995571746+1000653752
1058+1000368411+996056357+993243885+994083138+995332523+994260582+993237720
1048+995629208+999779725+1001345155+1000754866+1002378869+1006583642+1008940728
1038+1007574136+1005435249+1004721712+1004091409+1001649363+997432320+992698975
1028+989531307+989678478+992810386+996502803+997857249+996239597+993967719
1018+993535762+995015737+997115411+999604439+1002818102+1005883361+1006853015
1008+1003651436+995083497+982605620+969735430+959041182+950851190+944322872
998+938277377+931645232+924966351+920124863+917714693+916111899+913458684
988+908965733+902220388+893955732+887360024+885274470+886492718+887224876
978+885609135+882588576+879044995+874888128+870697474+867820696+866348674
968+864804330+862498172+860652333+860009391+858723075+854782926+849206259
958+844974111+844035408+846285459+850431660+854954205+858820552+861848941
948+864368734+867086133+871011361+876487222+882612190+888367658+893692771
938+898613425+902244064+904248295+906854838+913676080+925931505+940019018
928+950005155+953793693+954624869+955734234+957325682+957814425+955793546
918+951855679+948207037+946090531+943718279+939713578+936389305+936363594
908+939222061+942192247+942964912+941340971+939021434+938540091+940695994
898+943578137+944915750+944888930+946073638+949879994+954245195+955975615
888+954620368+952584877+952389245+954991225+959761501+964748065+967872574
878+968868740+968278698+966370280+964439726+964826491+968746663+974361186
868+978115875+978976215+979371980+980665325+981424180+981333423+982047454
858+983526690+984315324+984627300+985688265+987016014+986695344+984274878
848+982203565+983269278+986520490+987907736+985616067+982083584+980310560
838+980889874+982931284+985413406+987471524+989039975+991518336+996939139
828+1005713069+1015730156+1023213639+1025408077+1022582843+1017052417
820+1012744124+1014303204+1023190087+1035565677+1046003069+1052434218
811+1055521180+1054710288+1049067095+1041587804+1036535886+1034197236
803+1032574960+1031249246+1031177972+1031791320+1031759937+1032212981
794+1034602990+1036692244+1034523948+1027591972+1019173177+1012343981
785+1007854421+1004954646+1002637575+999843847+995969793+991536833+987103380
776+982044371+975523328+968483641+963619402+962860732+965780854+971080442
766+978392523+986355808+991189405+991297117+990165186+992470973+998622824
756+1003419119+1002661312+997747256+992595394+991271406+995720150+1004237902
746+1011867632+1013609273+1009112129+1003562221+1001791540+1003430217
737+1006212847+1009636139+1012643441+1012456749+1009168791+1006751098
728+1006748817+1006101127+1002377883+997328554+994548821+997121207+1006209641
718+1017330483+1021054529+1014460857+1005655482+1002836907+1005907776
710+1008432502+1004842433+994747537+983039304+975837771+975017508+978160144
700+984216552+995238930+1009240188+1016266373+1008267821+992544960+984038491
690+987699834+996213331+999649817+997815508+999097570+1008175954+1019774440
680+1022690370+1012822365+998753903+988343639+980182687+972479957+968793274
670+970963112+973253301+970212581+967745379+967821832+969181641+973517802
660+977773996+973597708+959885922+946527421+942373082+944162383+943381333
650+941553436+947774648+963204153+975142791+976300803+975233487+975145689
640+972025002+968030474+967345668+965642315+958311182+949645519+946302564
630+949156407+950384767+942064250+926583572+915781118+920371546+941033619
620+964934634+970447796+951326984+926739252+913611281+916070899+929390433
610+944553463+953398420+954058379+948771061+940175931+931299468+925188557
600+922620611
##END=
