##TITLE=<SNM>
##JCAMP-DX=4.24
##DATA TYPE=INFRARED SPECTRUM
##DATE=29/4/2025
##SAMPLING PROCEDURE=Instrument type and / or accessory
##ORIGIN=Admin
##XUNITS=1/CM
##YUNITS=ABSORBANCE
##RESOLUTION=4
##FIRSTX=4497.3318
##LASTX=599.83466
##DELTAX=-1.4281778
##MAXY=2.1398058
##MINY=0.57125419
##XFACTOR=1
##YFACTOR=1.9928494e-09
##NPOINTS=2730
##FIRSTY=0.58183265
##XYDATA=(X++(Y..Y))
4497+291960163+293050086+294816497+295881146+295422847+294337978+293516042
4487+292534929+291075267+290365341+291846089+295015393+297635324+297988224
4477+296414787+294571300+293697023+293661072+293346068+292074536+290613109
4467+290136027+290557448+290926708+290882622+290554308+289896544+289237314
4457+289421285+290523023+291473868+291630592+291665257+292263771+292967118
4447+292957128+292335015+291917273+292225458+293251704+294722013+296097689
4437+296685496+296191934+295003250+293614982+292080577+290358492+288920365
4427+288540488+289441803+290976028+292119280+292139289+291061958+289766109
4417+289265608+289611359+289925944+289743647+289650241+290121850+290406616
4407+289497434+287884039+287155061+287958274+289397119+290410534+290913967
4397+291474197+292440386+293471059+293747510+292877240+291500667+290547518
4387+290035951+289231392+288033017+287423676+288190071+289873812+291375227
4377+292182658+292625434+293073864+293260647+292668952+291465344+290372430
4367+289667289+289157007+288943964+289242966+289678894+289732790+289507185
4357+289418444+289720408+290537768+291598978+292036371+291258880+289837024
4347+288903706+288892968+289345615+289780705+290186753+290538725+290433983
4337+289608607+288524516+288066905+288681330+290057216+291622936+293043685
4327+294068945+294093949+292503644+289802599+287694086+287372681+288201795
4317+288755117+288702207+288673793+288745546+288306119+287310918+286651957
4307+287092760+288382926+289602894+290282223+290902212+291921550+292737654
4297+292468650+291371459+290530051+290422976+290609072+290542254+290123226
4287+289703539+289656103+289814084+289756568+289618657+289915147+290675590
4277+291469800+292008047+292103278+291640463+291047153+291104877+292002155
4267+293008721+293163681+292139678+290444332+288812602+287678264+287250262
4257+287601068+288419834+289116690+289426549+289508381+289473657+289313552
4247+289164933+289173218+289319325+289579715+289983699+290510281+291087680
4237+291518941+291346006+290269362+288825732+288003856+288117242+288723293
4227+289488611+290329271+290898264+290753833+289902166+288747879+287695133
4217+287034048+287139389+288383883+290435568+292077736+292364954+291512660
4207+290259104+289138793+288623007+289027081+290045372+291000165+291535152
4197+291767009+292008017+292408143+292495209+291451735+289409441+287684664
4187+287122639+287179916+287171900+287388174+288302679+289599156+290638802
4177+291264264+291721696+292094993+292092451+291495433+290725269+290439666
4167+290543481+290416606+290103336+290237748+290859233+291342626+291462622
4157+291686254+292401294+293368141+293934084+293654612+292678673+291531503
4147+290716984+290547847+291043982+291789919+292097775+291571611+290544468
4137+289865348+290130404+291179112+292412002+293371132+293852760+293754060
4127+293098808+292089550+290968970+289874620+288931791+288417680+288564804
4117+289168104+289723459+290023957+290156814+290036160+289599485+289223376
4107+289331887+289843455+290421272+290953985+291409055+291513408+290996127
4097+290030716+289135772+288769952+289138105+289983340+290506872+290188398
4087+289733658+290299152+291825033+293069587+293140591+292222915+291024302
4077+290139676+289808132+289928457+290253540+290552783+290699039+290790023
4067+291025588+291316874+291320134+290945880+290536542+290419357+290447771
4057+290248725+289909434+290006729+290705619+291341490+291353842+291046525
4047+290953507+291073742+291056275+290709866+290171320+289733000+289540504
4037+289555428+289906772+290812335+291882847+292244689+291714069+291044909
4027+290716147+290422288+290150114+290674752+292250133+293739853+293897385
4017+292980846+292277709+292419748+292887559+292912533+292366719+291742991
4007+291508323+291665227+292009603+292548059+293339129+294066313+294113719
3997+293123992+291371309+289616025+288608083+288683035+289769908+291582379
3987+293680334+295505456+296487886+296200906+294691296+292790563+291763360
3977+292348205+294119402+295722029+295956936+294933412+293790848+293143762
3967+292524640+291581840+290782516+290592023+290951293+291645667+292474004
3957+293198077+293717032+294110668+294436769+294535978+294048188+292813563
3947+291227176+289925496+289367838+289877970+291350193+292819515+293271025
3937+292823314+292319612+292169198+292279773+292671554+293422426+294172580
3927+294315546+293760102+293143313+292965263+292927847+292718243+292769657
3917+293581753+294749948+295340806+294975584+294113779+293421020+293020685
3907+292618346+292260990+292398632+293144031+294124935+295020448+295409597
3897+294766698+293386415+292457075+292848707+294129900+295016021+295006690
3887+294763109+294833186+294948875+294777973+294816407+295716406+296943882
3878+297185998+296073792+294480197+293563239+293918292+295305573+296651280
3868+296905509+296206320+295481379+295346249+295673367+295839423+295214738
3858+293775804+292603002+293579210+297208489+300399179+300686248+299497176
3848+298760989+298916009+299317720+299299804+298857476+298477838+298527159
3838+298778845+298757400+298635968+299053053+299992652+300468778+299832937
3828+298760092+298254356+298497489+299318827+300585514+301364201+300724053
3818+299710608+300150304+301958887+303243549+303032001+301983951+301276926
3808+301577484+302339362+302725162+303141738+304331977+305618344+305770911
3798+304999342+304337989+304337241+304967997+305968671+307028237+308068989
3788+309493268+311741696+314426710+316456232+317532218+318843021+321648808
3778+325637686+329399613+332147555+334361977+337329932+342039175+348025572
3768+353894725+358996646+363374554+366775027+368946678+370284459+371389606
3758+372356573+373221608+374546199+377062136+381263878+387052994+393447324
3748+399602679+405694387+411572124+415430119+416538347+417229669+419792952
3738+424784299+431311276+438270083+445440708+452530757+458149151+461194481
3728+462234606+462610894+462743482+461793055+458835419+454125608+449489374
3718+447071659+447466372+449613318+452161677+454129795+454855543+454490591
3708+453937090+453954527+454738538+455859388+456591656+457075259+458722900
3698+462630066+467925081+472066795+473295168+472518604+471932353+471998004
3688+471420366+470144766+469334255+469347296+469680425+469922481+470192831
3678+471060648+472890675+474722169+475201255+474716097+474668392+475669335
3668+476790633+476867948+475927452+474736525+473776468+472796013+471468101
3658+470080073+469157402+468711694+468341059+467914014+467716673+468261440
3648+469874237+471865865+473060321+473329534+473584241+474437134+475591721
3638+476647996+477581224+478134097+477846220+477171228+477804587+481066700
3628+485434348+488132881+488935765+489058632+489237370+489707603+490647532
3618+492045550+493584052+495079635+496494313+497540748+498321110+499650278
3608+501737465+503547035+504117644+503699572+503427936+504468180+506955554
3598+509781739+512010996+513652416+514776764+515278522+515459413+515498176
3588+514823064+513124816+511640001+512082539+514606341+517708051+519925763
3578+521103051+521767814+522193841+522447173+522662938+523001989+523180249
3568+522354274+520221386+518136770+518030533+520301423+523363891+525312061
3558+525782892+525464957+524442359+522423664+520241365+519533114+520756522
3548+522981531+525554027+528638688+531996301+534349501+534481700+532433873
3538+529422609+526904011+525728218+525781636+526148264+525781576+524665064
3528+524069092+524865515+526232488+526715582+525877645+524164383+522070675
3518+520193630+519097276+518437717+517587756+517152277+518356484+521008179
3508+523250535+523494655+521890382+520146971+519911406+521033601+522131391
3498+522526372+522446156+522025512+521445332+521259177+521675693+522189235
3488+522176733+521502160+520328640+518951439+517775347+516975454+516478541
3478+516449589+517192116+518366832+519212307+519655622+520030684+519928215
3468+518756610+517031025+515724649+515072806+514812177+514749009+514547540
3458+513919266+513313245+513306246+513642127+513755423+513503886+512899480
3448+511850084+510353784+508576276+506942035+505880136+505151726+504177642
3438+503270494+503381278+504292792+504444552+503152532+501680249+501450785
3428+502367354+503030502+502053666+499460324+496862765+495996324+497321872
3418+500047353+502640186+503336952+501592166+499212616+498584701+499832485
3408+500869439+500160201+498381198+496944447+496029284+495100332+494637516
3398+495729114+498133579+500286358+501179388+501072553+500458545+499511349
3388+498619485+498426810+499232954+500642248+501776258+501853812+500856757
3378+499737822+499741531+501321966+503817774+506206865+507890039+508771165
3368+508914012+508298300+506961655+505500050+505101838+506500634+509105551
3358+511681874+513543606+514622074+515021422+515069038+515118208+514896102
3348+513809978+511984556+510305271+509791490+511209846+514375801+517596908
3338+518927332+518240017+516991784+516235140+515934492+515610156+514953229
3328+514004926+512994233+512071891+511209428+510404928+510045958+510772094
3318+512461309+513747049+513368756+511662493+510159673+509995411+510910395
3308+511567621+510984450+509687226+508920592+509036759+509406258+509597259
3298+509932781+510884553+512318104+513480198+513826906+513634350+513514175
3288+513950671+515226779+517014037+518533487+519609502+520816460+522344704
3278+523461994+523324172+522075281+520902718+520580177+520341681+519144951
3268+517378391+516124475+515659147+515722495+516253145+516975095+517199354
3258+516641786+515753062+514996777+514246294+513123620+511844162+511315247
3248+512235554+514295764+516156658+516324090+514575296+512309849+511096909
3238+511267152+511999929+512394492+512178487+511822508+511994785+512706027
3228+513277114+513103401+512180222+510830238+509261976+507531666+505761995
3218+504260969+503380261+503180048+503273066+503276237+503350412+503914081
3208+504817401+505162434+504216165+502272781+500371838+499368772+499348822
3198+499698372+499589532+498629684+497280807+496379072+496165700+496287161
3188+496604020+497115199+497378729+496955005+496073400+495275720+494798936
3178+494344824+493160687+490931012+488635237+487486333+487262223+486795818
3168+485716303+484595693+483854781+483569207+483854661+484618783+485284563
3158+485350184+484985351+484519783+483643621+481817871+479356010+477411759
3148+476742300+476945533+477143054+477064991+477022908+477025630+476537631
3138+475209690+473388365+471760853+470764038+470380780+470294193+470148535
3128+469740333+469111461+468498501+468044748+467661969+467355399+467317833
3118+467378190+466863542+465500397+464031075+463425981+463748971+464147721
3108+463839656+462842721+461779596+461231030+461293959+461668364+462137281
3098+462670802+462946954+462390702+461058962+459783512+459179255+459226961
3088+459641413+460017672+460006007+459633398+458984815+457744090+455859537
3078+454296779+454130005+455100291+455811114+455380511+454367843+453768611
3068+453580931+453082194+452271055+451955213+452403762+452985437+453172520
3058+453017560+452659277+452143163+451730624+451674305+451710376+451377276
3048+450751635+450370561+450583036+451203175+451557898+450976612+449549641
3038+448122611+447228563+446484660+445461255+444622989+444751927+445709771
3028+446347168+445750508+444286390+443108892+442912508+443505489+444218197
3018+444295991+443348615+441837779+440637371+439942100+439278892+438697127
3008+438955244+440159391+441180553+440948427+439621473+438109530+437131019
2998+436888515+437033545+436866651+436006999+434863808+434199852+434294395
2988+434702836+434821187+434514587+434120712+433998234+434111351+433952353
2978+433024777+431490702+430053083+429222683+429063775+429409137+429862621
2968+429904823+429391580+428682641+428221829+428291667+428865656+429325241
2958+428853722+427375038+425601928+424192035+423357717+423146587+423585954
2948+424475814+425246367+425252139+424394820+423324697+422770419+422831733
2938+423134683+423345933+423223544+422636814+421889501+421530082+421658811
2928+421840899+421656987+420950440+419822802+418752260+418344417+418660857
2918+419096964+419105368+418654516+417919676+417069236+416485108+416634774
2908+417420610+418043560+417820168+416908713+415989153+415485361+415347151
2898+415388724+415603951+416082649+416654065+416851526+416417035+415609963
2888+414785036+413904208+412704518+411237529+410011429+409512303+409707162
2878+410144675+410428573+410424057+410203267+410013911+410079712+410294819
2868+410326822+410019325+409528305+409194846+409364881+410062693+410781532
2858+410849277+410011399+408547161+407000344+405928965+405647878+406004336
2848+406505286+406765078+406778508+406700414+406487790+405933870+405076820
2838+404377751+404245223+404466073+404429285+403934616+403400795+403169118
2828+402998277+402448664+401528566+400728044+400473307+400701575+401020108
2818+401159904+401111930+400912764+400562975+400170476+399915978+399781775
2808+399506012+398902922+398109519+397413471+396887008+396349748+395722641
2798+395243524+395211133+395570642+395884719+395773397+395284679+394764946
2788+394459872+394321422+394145526+393827381+393471311+393217471+392977838
2778+392520227+391841167+391222045+390878179+390769638+390730128+390575018
2768+390155481+389522661+388957765+388684963+388660168+388709339+388702101
2758+388547619+388225018+387861621+387594501+387364649+387046863+386689028
2748+386426874+386297696+386291744+386374533+386334424+385867900+384969097
2738+384049477+383552026+383532106+383641754+383502018+383061335+382536158
2728+382096641+381772096+381587735+381560757+381589231+381535334+381390245
2718+381233939+381082389+380883133+380624807+380345066+380015914+379528992
2708+378900209+378411073+378390795+378869911+379518404+379904861+379803888
2698+379303805+378673108+378134861+377728484+377328149+376783711+376065081
2688+375263722+374502502+373913379+373624097+373650836+373853292+374062148
2678+374195723+374249200+374226918+374072018+373694473+373134512+372609814
2668+372334739+372366981+372597043+372802669+372809488+372626803+372302467
2658+371782046+371100623+370490175+370132789+370043211+370200743+370481262
2648+370576404+370336232+369998287+369788683+369572499+369150629+368612382
2638+368156176+367829029+367646702+367727637+368097255+368513472+368668133
2628+368493343+368194161+368029451+368049699+368055053+367906883+367774116
2618+367837314+367885528+367547433+366846779+366179773+365788051+365557541
2608+365331307+365171921+365235896+365516415+365821400+365987755+366046048
2598+366110144+366104850+365736308+364891372+363959190+363505676+363672061
2588+364122405+364520108+364796021+364996563+365155949+365314977+365452888
2578+365433627+365184393+364862509+364674171+364599816+364456102+364130630
2568+363643587+363111562+362769190+362863704+363389389+364026336+364403283
2558+364356534+363981532+363546203+363295803+363264847+363319790+363342312
2548+363297178+363208079+363134681+363101811+363066967+363044415+363158280
2538+363460064+363809105+364020474+364025618+363840390+363484769+363008704
2528+362574003+362436420+362742631+363351105+363957904+364366614+364522561
2518+364392635+364004592+363547160+363276392+363332621+363680047+364124468
2508+364348429+364119773+363587896+363191688+363162587+363320777+363433684
2498+363527091+363746027+364102066+364427330+364515861+364350792+364173819
2488+364223079+364461965+364646325+364576308+364266567+363942560+363816762
2478+363850260+363861835+363829473+363888993+364069346+364231843+364287175
2468+364314183+364393652+364443301+364324531+364002050+363516772+362996620
2458+362744396+363003559+363580748+363997683+364022179+363811677+363630846
2448+363643378+363865664+364173579+364399424+364459273+364371339+364183240
2438+363924914+363665481+363582303+363827918+364304702+364745295+365034996
2428+365283123+365569205+365774143+365737355+365525926+365391783+365397377
2418+365317100+365073280+364999344+365427585+366229183+366957832+367299037
2408+367262847+367052525+366860777+366793002+366919548+367303583+367925456
2398+368620877+369168874+369527606+369996912+371052379+373025164+376074144
2388+380469997+386790271+395812010+408179367+424032230+442933086+464256441
2378+487575911+512540210+538580046+565052968+591328848+616076365+637254750
2368+654239080+668516862+680351955+686886051+685844072+678639111+667759679
2358+653847867+635773405+612188281+583850517+555363565+533023504+520987122
2348+520764358+531984098+551034260+570400923+584040680+591806977+595903588
2338+597933230+599258091+600734711+602167843+602961814+602897090+601892319
2328+599639912+596027951+591367311+585671273+578389565+569383111+559439838
2318+549558538+540365150+532028723+524150385+515990781+507192734+498029465
2308+488846336+479675171+470526349+461743286+453840423+447034811+441072610
2298+435539906+430222489+425134895+420362544+415986521+412093352+408780454
2288+406084732+403856283+401822544+399876348+398176097+396908782+396088909
2278+395581738+395194264+394782144+394336676+393899432+393416129+392791833
2268+392051698+391359090+390904140+390738084+390654667+390368016+389872390
2258+389423183+389125586+388823742+388456366+388224001+388278616+388456635
2248+388456905+388189785+387851422+387679802+387719701+387853246+387972524
2238+388027856+387984099+387868111+387815022+387930023+388129338+388230551
2228+388143426+387844692+387264303+386378869+385370419+384533708+384029288
2218+383797551+383660567+383443455+383071893+382646224+382402972+382528501
2208+382969603+383446656+383697953+383696099+383589532+383521877+383592613
2198+383871098+384321800+384805164+385237113+385664068+386138608+386618263
2188+387051170+387504564+388104663+388821379+389419175+389713422+389794088
2178+389896018+390129370+390438722+390754205+391061672+391344494+391600906
2168+391932689+392412434+392841273+392934649+392777895+392713381+392785013
2158+392735484+392534374+392480896+392775113+393279832+393699250+393863063
2148+393851847+393850979+393910469+393964933+394039796+394277066+394791835
2138+395580033+396498307+397352635+398126298+399047503+400285178+401702877
2128+403100835+404567735+406326579+408324906+410290572+412155265+414096166
2118+416178568+418281727+420365984+422537425+424841306+427139323+429157032
2108+430623154+431451939+431790243+431844827+431732608+431500063+431154492
2098+430666971+430067350+429527458+429249362+429291265+429587875+430081347
2088+430703161+431260819+431465847+431077625+429991321+428280272+426194670
2078+424030705+421987424+420200855+418804182+417819061+417083413+416409647
2068+415747456+415149809+414700692+414507388+414629269+414966346+415341438
2058+415727566+416259772+416944006+417518563+417777278+417912378+418317080
2048+419110872+420064797+420953371+421794569+422765962+424010247+425449391
2038+426730314+427554763+428146308+429100384+430669423+432497178+434155497
2028+435665854+437386773+439591295+442242720+445136022+448209916+451522276
2018+454843610+457639437+459668242+461218289+462580207+463677249+464330078
2008+464610896+464845863+465332576+466013879+466471461+466373149+465902976
1998+465637890+466001796+466892524+467848214+468535140+468996131+469450393
1988+470075586+471027718+472403633+474071553+475709922+477092358+478261481
1978+479473134+481023840+483000961+485148356+487139654+488987508+490971927
1968+493200077+495488793+497655779+499680097+501573891+503329714+505031312
1958+506850273+508908449+511273493+514012403+517003808+519799665+522056139
1948+524039661+526283095+528881551+531536715+534108074+536752291+539580511
1938+542436546+545065988+547435519+549736139+552009422+554061077+555838225
1928+557567698+559496008+561717069+564128294+566465881+568669715+571138126
1918+574202509+577448321+580059100+581772900+583020774+584266256+585531656
1908+586643324+587708691+589033791+590759436+592823713+594977598+596725315
1898+597715970+598202115+598631851+599016005+599254861+599687109+600648692
1888+601818144+602665832+603251515+603954741+604740876+605214998+605236592
1878+605036200+604862966+604837782+604966871+605104034+605067545+604863863
1868+604652883+604499329+604298279+603825294+602939741+601948010+601412574
1858+601387809+601290126+600660955+599616284+598501088+597492129+596571163
1848+595661622+594773018+594073381+593667991+593205115+592140884+590523212
1838+589025476+588062219+587239475+586090122+584795709+583704261+582721263
1828+581620423+580515695+579556026+578499213+576975336+575060127+573240747
1818+571873295+570937614+570311554+569955634+569773367+569576504+569220883
1808+568675099+568049517+567587897+567522276+567918275+568635738+569400338
1798+570030407+570611843+571331280+572226883+573167230+573980044+574585646
1788+575082379+575710414+576657161+577891875+579275119+580729127+582181999
1778+583495554+584557931+585463762+586616645+588439255+590718161+592711613
1768+594048497+594905038+595630816+596567574+597948723+599684537+601496799
1758+603316837+605105410+606527954+607347647+607919632+608966576+610903679
1748+613470670+616115247+618387333+620032761+621101180+621890485+622666630
1738+623544706+624674379+626302698+628458857+630754273+632985024+635178629
1728+636949018+637900790+638407872+639109363+639969673+640646998+641453531
1718+643178757+645804012+648215775+649880763+651258623+652745831+654254155
1708+655578955+656821685+658244947+659784855+661152186+662340900+663692320
1698+665458700+667623652+669856318+671501267+672391726+673147234+674325299
1688+675749399+677007023+678516962+681319100+685000092+687697728+688528428
1678+688248417+688592314+690525229+692835420+694264724+695844351+698962451
1668+702686991+705301060+707131028+709421180+712274224+714640285+715877093
1658+716250001+716280329+716571645+718038156+720865897+723258458+724431260
1648+725534373+727628918+729891374+730641618+730039664+729485864+729921522
1638+731295554+733029453+734548424+735388934+735368177+734944483+735202061
1628+736746695+738744633+740411596+742714549+746781430+751696777+755816358
1618+758720308+760956204+763140417+765484525+767812243+769742646+771042862
1608+772039139+773495421+775750878+778019973+779056150+778766269+778476269
1598+779382460+781433636+783646443+785088069+785681110+786217622+787528963
1588+789582473+791593392+792980045+793736510+793962803+793672983+793227275
1578+793442502+794650477+795393423+793877143+790737927+788199948+788132592
1568+790266438+792383714+792876978+791596981+789183663+786712500+786001617
1558+788528650+792689985+796551689+799943757+802760551+804667625+805572560
1548+805572500+805091918+805071400+806375264+809150963+812945490+816285637
1538+817211507+815958429+814315394+813744426+814728740+816761792+819129468
1528+821494154+823915787+826504553+828747747+829652921+829221749+829093079
1518+830775834+834718352+840563997+847025114+852505566+856439292+859831181
1508+864469748+871299526+878764817+884650001+888274704+889205959+887681663
1498+885960266+886669235+889596454+892568776+895005543+898186273+902920071
1488+907811191+910702100+911669306+913110513+917312524+924216897+931044761
1478+934895279+935752717+936094580+938342500+942474942+946015421+947617181
1468+948869242+952179240+957827005+962408205+962247054+957975414+952655754
1458+948751639+947258449+946732824+945101932+942722471+941809461+943736216
1448+947081626+949040921+948712637+947290093+945955423+945257879+945175868
1438+945030808+944266327+943340397+942772839+942431574+942513047+943510820
1428+944834902+945605724+946898462+950415012+955027139+957373879+955847550
1418+951735626+946748437+941982995+939211842+940034646+943104054+944495432
1408+942400708+939291999+938001415+937976530+937145173+935958493+936951600
1398+940904288+945769925+949639406+952020900+952438553+950526454+947329992
1388+944857932+944115405+944818931+946950504+950948235+956445676+962081836
1378+966697432+970164094+973226144+976823689+980989451+984453182+986185167
1368+986675559+986797948+986485396+985600740+985137027+986240379+988624865
1358+990671137+991338233+991309640+992347251+995608736+1000037759+1003190314
1348+1003929910+1003767443+1005092543+1008479586+1012170030+1014273129
1340+1015115613+1016589661+1019520170+1023179507+1027123820+1031727573
1331+1036123875+1037573277+1035213556+1032589677+1033660788+1037707510
1322+1040939385+1042330045+1043804572+1045844622+1047129285+1047578282
1314+1049284426+1054191697+1060890892+1064756723+1063260304+1059469724
1305+1057841943+1059613767+1063526496+1067865731+1070929515+1071904318
1297+1072164768+1073156559+1073741823+1071917239+1067350813+1061792597
1288+1057303098+1054502395+1052572051+1050176918+1046735798+1043368375
1280+1041394005+1040084219+1037212930+1032554624+1028955822+1028419011
1271+1029190909+1027515632+1022221813+1015606484+1009853498+1005433030
1263+1001693415+997805033+993788937+990341896+988667276+989054422+989277066
1253+987275479+984209481+981829482+978422459+971073695+960616402+950387077
1243+941713333+933815375+926402605+919730389+913281893+906156252+898308542
1233+890766923+884416470+879069592+874145452+869885716+866920632+864695682
1223+861931708+858761985+856512091+855454141+854551898+853475404+853311262
1213+854696300+856572448+857481928+857201200+856766080+857725868+861185771
1203+866695475+872394863+876796130+879926373+882417574+884373281+885357594
1193+885041035+884277272+884872526+887765948+892213275+896915010+901156023
1183+904765651+907982392+911476391+915662909+920424104+925987884+932643471
1173+939421746+944626734+947800525+950215099+953140942+957024121+962011369
1163+967444924+972000822+975376321+978619501+982490237+986406615+988879034
1153+988715071+986815893+986349249+989282629+993440614+995264660+995117985
1143+996166484+998912812+1001407782+1002666663+1002815371+1002141755+1001078840
1133+1000025436+999985776+1003716956+1012878879+1023863113+1030037580
1124+1028450595+1023165749+1020474514+1022400072+1026636180+1030224812
1115+1031839194+1031711541+1031731282+1034370953+1039279421+1042241514
1107+1039796253+1034082747+1030147407+1029473492+1029146045+1027371110
1098+1025784005+1026039909+1027307104+1028458132+1029364861+1028653260
1090+1024463572+1019431399+1019071890+1025233316+1033958086+1040206249
1081+1041880210+1037464766+1027781824+1021134671+1024842342+1034200111
1073+1037646854+1032320374+1024894265+1019689336+1016558435+1016113625
1064+1018794810+1021616210+1021197959+1017881501+1013987914+1010008787
1055+1005151763+1000788421+999360793+1000437526+1001377155+1001536452
1047+1002889905+1006097494+1008265317+1005895187+999568722+993813463+991756185
1037+991835325+990692013+989022598+990985064+996685230+999810269+995456020
1027+986544736+979321292+977243675+980038037+984866348+988222406+988777223
1017+988094454+987823656+988034277+988640717+990164594+992580723+994346446
1007+992677390+985564071+974508833+963762437+955983937+950332164+945027338
997+939609157+934046873+928085898+922321846+917986081+915168629+912045863
987+907144992+901750619+897928694+895435877+892622493+889339713+887047288
977+886694598+887601806+888034413+886533507+882724443+877552834+873013626
967+870754759+870301993+869232797+865957673+861661747+858548911+857454173
957+857811169+858770180+859902185+861273824+863182513+865834627+869080200
947+872348683+875021733+877213483+880159485+885310936+892691823+900497780
937+906939635+911785054+915935502+920679349+927541251+937208401+947508072
927+954231254+955462020+953129337+949860256+947287880+946461547+947043043
917+947301160+946312300+944936235+943846880+942012067+938778697+935667476
907+933848216+932269007+930401533+930586791+935126298+942382822+947564301
897+947699013+944918110+943945222+947176019+952632903+956357563+956230867
887+953161938+949969723+949781056+953903808+960585715+966384761+968606241
877+966752585+962427826+957800086+954135963+952125164+952631887+956211785
867+962588199+970418263+977471285+981138638+980763217+979017414+978234270
857+977556765+975650828+974156980+975820294+980341496+984570665+986553410
847+987480118+989238842+991796801+993935553+994671739+994046277+993885604
837+995901967+998247331+997630422+995439809+996770352+1003053688+1009837108
827+1012817984+1012377002+1011017447+1010107607+1010355016+1012027781
818+1012527744+1009576897+1006221198+1005943401+1008393807+1012270286
810+1016864706+1020551202+1021800930+1021801648+1022677271+1023715481
801+1022953154+1022299936+1025966213+1032341072+1033858189+1027214386
793+1018773036+1015363621+1015910960+1015468781+1012225182+1008402181
784+1005457316+1002380611+998745380+995243843+992441944+990493536+989114779
774+987787645+985885716+982440947+976654044+969719762+965003432+964756561
764+967848161+971979168+976308592+980547811+984014353+987524922+993302792
754+999818703+1000902316+994200967+986120563+983663637+986373954+990027370
744+993736536+999263109+1006604037+1013374894+1017462891+1019326836+1021345233
734+1024036707+1025431435+1023364705+1016979199+1007840007+998890081+992781713
724+991999227+999087542+1012904242+1024666835+1024314504+1013475150+1001437990
714+993291666+989697052+990497244+994270417+997649265+999010376+1000918168
704+1006322531+1013107266+1014657523+1007674310+997675825+992674877+994676405
694+997967261+994651520+981847846+965732260+957548908+963525256+979527606
684+993435171+995018746+984857256+971541655+962360231+958975819+960221121
674+964634710+968967545+967538839+957634030+948200292+952072583+966125866
664+976703873+973919979+961443692+952525589+953544956+962178502+973596780
654+982175353+981778038+969668917+952509498+941986345+940676319+941508514
644+941199552+944909257+956373893+971087632+980121364+979651968+974335060
634+969194317+961615849+948186833+931870915+917826425+910667405+914899087
624+931517148+951831515+959979155+951119914+936686963+926293437+920399758
614+919630910+928291435+947473198+968672580+978674355+971743961+954317991
604+939672924+934679394+938492525+946887335
##END=
