##TITLE=<SNM>
##JCAMP-DX=4.24
##DATA TYPE=INFRARED SPECTRUM
##DATE=29/4/2025
##SAMPLING PROCEDURE=Instrument type and / or accessory
##ORIGIN=Admin
##XUNITS=1/CM
##YUNITS=ABSORBANCE
##RESOLUTION=4
##FIRSTX=4497.3318
##LASTX=599.83466
##DELTAX=-1.4281778
##MAXY=2.214241
##MINY=0.51837486
##XFACTOR=1
##YFACTOR=2.0621727e-09
##NPOINTS=2730
##FIRSTY=0.53153324
##XYDATA=(X++(Y..Y))
4497+257753995+258205877+259682891+261496171+262838146+262950524+261502877
4487+259074292+256983015+256350686+257179532+258297907+258470896+257610314
4477+256581801+256047081+256066446+256572870+257400935+258013609+258012280
4467+257749111+257861517+258426153+258926941+258801296+257844175+256477112
4457+255757869+256613306+258850895+261222077+262569948+262642757+261820530
4447+260572406+259294019+258230677+257337231+256573390+256404448+257464726
4437+259530423+261381163+262036817+261600485+260684177+259809027+259474263
4427+259848134+260266921+259900710+258878267+258027859+257696274+257462414
4417+256899107+256095610+255434176+255145918+255218466+255490422+255740238
4407+255876837+256043208+256499281+257328531+258444796+259714859+260716000
4397+260811816+259863742+258422483+257062356+256099426+255864322+256454278
4387+257214159+257331277+256939428+256736379+256800141+256800603+256919224
4377+257448655+257897011+257587134+256772422+256262790+256350108+256769965
4367+257409115+258282790+258799215+257983607+255965485+254462054+254978131
4357+256983709+258525236+258425575+257168317+255730006+254495495+253495597
4347+252958189+253155168+253921668+254625649+254721032+254371989+254303170
4337+254760659+254963737+254102433+252568161+251570979+251883429+253274338
4327+254842341+255689512+255485335+254584895+253636937+253051230+252657242
4317+252043239+251373161+251412586+252510844+254085813+255273759+255613957
4307+255216096+254667704+254624262+255135368+255445911+254814969+253506985
4297+252551859+252477142+252761758+252767770+252695858+253121871+254061158
4287+254943562+255221964+254850723+254242298+253792728+253648354+253829783
4277+254137724+254089715+253509442+252884628+252736901+253120975+253918836
4267+254965529+255776570+255805590+255087590+254259005+253979967+254417600
4257+255164648+255693327+255824435+255721711+255768968+256468730+257918111
4247+259368418+259779227+258829940+257232166+256097547+255885451+256038323
4237+255861258+255374692+254919861+254617296+254629089+255128720+255758881
4227+255921378+255625779+255367148+255391456+255626877+256016356+256555528
4217+257135165+257521406+257554732+257417237+257520742+257996903+258480637
4207+258591425+258589836+259103919+260056762+260495608+259877443+258800053
4197+257995573+257366915+256432051+255139270+254029190+253895192+255092590
4187+256937231+258131103+258011644+257083832+256295076+256158129+256532231
4177+256921132+257020590+257136119+257927823+259589879+261406830+262286835
4167+261704684+260135380+258662297+258145729+258593709+259176265+259000472
4157+258041819+257163375+257103313+257632050+257942217+257776771+257731595
4147+258343951+259276185+259709916+259371770+258723024+258191946+257817063
4137+257723964+258198189+259005848+259347462+258860520+258127230+257861257
4127+258010690+257941812+257315178+256531277+256257327+256693601+257485248
4117+258205126+258664205+258896621+259112792+259480796+259830300+259906982
4107+259880217+260048495+260187494+259911607+259442151+259222482+259079524
4097+258527606+257684597+257249566+257671157+258727591+259826485+260508037
4087+260747534+260790716+260683599+260217785+259471662+259056545+259465910
4077+260356465+260777276+260053525+258414072+256953533+256813552+258029160
4067+259410270+259816716+259170022+258188795+257689077+258037715+258791324
4057+259117793+258831327+258577552+258979604+260019071+261125278+261653871
4047+261455359+261000298+260768605+260678136+260319989+259571409+258856387
4037+258749038+259247455+259699337+259635460+259248669+258885204+258690565
4027+258881273+259718818+261046341+262253654+262812538+262660677+262142750
4017+261732373+261618839+261477413+260918384+260192350+259983693+260419851
4007+260878613+260970440+261132590+261937359+263213607+264143645+264099971
3997+263201525+262027799+261025271+260390716+260211137+260337360+260454305
3987+260547028+260866907+261356768+261688468+261797609+261839260+261969124
3977+262510782+263646788+264692788+264544107+263088598+261343270+260219837
3967+259935510+260359414+261177623+261877846+262121534+262105059+262298657
3957+262924424+263834721+264792969+265749974+266798633+267849026+268495229
3947+268481528+268195178+268216076+268445746+268165118+267004284+265449895
3937+264419503+264715218+266609862+269474895+271858592+272484822+271460500
3927+270153440+269811797+270445138+271133077+271429515+271844169+272795798
3917+273732281+273612764+272120171+270059676+268667351+268722991+270314810
3907+273348410+277638313+282153117+285116075+285729732+284498054+281770575
3897+278104734+275221405+274761632+276539766+278325443+278077593+276870772
3887+277223023+279334591+281150762+281978625+282984535+283520065+281616055
3878+278442533+277214843+278909040+282187801+285753491+288364488+288242051
3868+285922145+284434408+284983493+285519717+284077735+281686494+280541643
3858+281926800+286686390+295016468+302400380+301207086+293128500+284841258
3848+279837806+278858227+281120384+285003293+289143619+293196222+296726273
3838+298031164+296141144+292836803+290158200+288222483+286415041+285030982
3828+284690813+285218915+286532911+289619607+294406945+297521359+296700491
3818+294629273+293537634+291786496+287841936+283556801+281814509+284090048
3808+289272703+294025703+296723816+298984238+301393776+301905084+300185307
3798+298473219+297507340+296304566+294751767+293945033+294495650+296107442
3788+298462467+301506154+304845122+307967195+311152395+314787656+318020923
3778+319884959+321340988+324304900+329829545+337892350+347250102+355556074
3768+361562719+365995581+369448488+372290744+375790590+380653165+385298441
3758+387806366+389071631+391607391+396886845+404157540+410169099+412663440
3748+414303558+418822553+425671310+429379669+428279994+427732730+432461537
3738+443330121+456815685+466462822+468673472+466041434+463293231+462837273
3728+464403917+466487795+467818498+468545284+469530326+470392758+469726438
3718+467509111+465871537+467047835+470990980+474556351+474263556+470466520
3708+465757598+461998224+460722815+462809265+466367093+467518274+465319330
3698+462683505+462433400+465277795+470706740+478118081+486059981+491022418
3688+490262074+485739437+481304899+478951493+479062629+481549368+486323583
3678+493150374+500080062+503052414+501073081+497449122+493718103+488564380
3668+482426627+477984863+476344370+476213609+475854450+475125843+475393030
3658+477480290+480211699+482093684+484158659+488818618+496326382+501917651
3648+499273646+489709029+480131376+474817006+473392077+472827325+471082229
3638+469365632+469877894+472615923+475995732+479758430+484699218+488894230
3628+488232911+483545176+479490549+478544759+480693208+484633144+487841900
3618+488210655+486870154+486481340+487735592+489415597+490861192+492352687
3608+493538263+493533407+492512236+492045555+493691858+497200087+500093705
3598+500053355+497599075+495307003+495041146+497321367+502483183+509942389
3588+516118150+516514999+511777838+507023277+505825619+507605169+509160078
3578+508697328+507554703+507195891+507256011+507849695+510964138+517730867
3568+525485065+529149837+526919677+521932787+517859084+516056469+515615917
3558+514975871+513944237+513804284+515438795+518021581+519846337+520197113
3548+519939234+520258621+521199555+521617620+520555521+518343917+516029820
3538+514307442+513344251+513140422+513752951+515190800+517187822+518841987
3528+519058419+517943252+516541649+514999746+512658133+510019793+508793000
3518+509774284+511924381+513557388+513904581+513497095+512984399+511922242
3508+509770931+507721478+507745237+509947013+512422798+513920189+514866615
3498+515597246+515630369+514929972+514360972+514496531+514978646+515229184
3488+514881934+513781393+512288048+511095535+510297212+509156610+507246935
3478+505140888+503658585+503107910+503292432+503663383+503536958+502579895
3468+501328302+500858095+501494326+502244726+501849900+500152726+498149346
3458+496747973+495856233+494637995+492579466+490445440+489894765+491837216
3448+495012126+496704964+495728073+493695847+492393383+491514303+490016565
3438+488357544+487767271+488278810+488809080+488500214+487487135+486748354
3428+486996464+487517079+487017448+485786319+485362300+486013330+486367055
3418+485495085+483984282+483017161+483304320+484650833+485998300+486309652
3408+485773313+485591450+486248954+486762806+486315490+485680069+485926907
3398+486689332+486959872+486715230+486408907+485779614+484461773+483007941
3388+482413389+483063552+484435269+485564974+485800367+485009269+483227465
3378+480988663+479850113+481176364+484361072+487488869+489694519+491514881
3368+493081641+493609656+492823125+491803630+492067753+493970838+496035957
3358+496359795+495062303+494424049+496201807+499564996+502021704+502135586
3348+500736583+499361629+498415897+497351889+495880339+494285947+493049962
3338+492600045+493011751+493846725+494454398+494490875+494084140+493523927
3328+493045858+492913189+493436637+494524981+495240755+494601519+493101295
3318+492357253+492905906+493505024+493016838+491862998+490933799+490293637
3308+489927368+490477408+492052550+493310906+493133841+492282277+492024917
3298+492555823+493608557+495072766+496409741+496823701+496286148+495307928
3288+494343465+494144087+495392847+497549418+499383827+500605244+501566470
3278+501833367+500852777+499459613+499027096+499741194+500687331+501086262
3268+500716293+499637198+498262591+497411547+497773538+499316019+501034871
3258+501459468+500071507+498015637+496798786+496653227+496704560+496205160
3248+495186011+494276640+494081366+494591055+495238963+495593266+495660901
3238+495498751+495043863+494254442+493076669+491696339+490893333+491369726
3228+492540908+492949377+492169147+491165203+490559841+489826494+488482467
3218+486970913+485979166+485584802+485282526+484659042+483974744+483743716
3208+483758804+483313194+482527039+482345726+482838218+482735696+481255271
3198+479280737+478158691+478278237+479203824+480258119+480524034+479183186
3188+476442122+473580270+471791471+471252501+471313720+471309037+471136048
3178+471110786+471292418+471209868+470534213+469707795+469374014+469447950
3168+469257589+468479643+467395172+466173871+464540950+462458575+460675702
3158+460097221+460774466+461829860+462325126+462004439+461120242+459724766
3148+457607100+455069288+453150537+452602954+453093943+453790496+454290185
3138+454531561+454206191+453059230+451596900+450655300+450364412+450272672
3128+450199805+450205788+450118556+449843797+449704047+449778330+449506923
3118+448542952+447314714+446435749+446167059+446417482+446777161+446660245
3108+445822728+444701433+443987452+443852702+443731624+443030996+441982857
3098+441375328+441412989+441430100+440904860+440129227+439606819+439383740
3088+439281998+439357235+439774635+440435029+440970761+440984693+440203452
3078+438734126+437329401+436850870+437158956+437172887+436448760+435934301
3068+436543796+437690410+438014884+437179304+436013642+435054325+433998151
3058+432728522+431854355+431746313+431795507+431215350+430067117+428947297
3048+428137296+427568209+427196795+426953801+426695950+426580104+427027679
3038+427988153+428772313+428805726+428121804+427098985+426078767+425288450
3028+424820064+424584325+424386622+424051309+423580900+423257553+423308424
3018+423371232+422731475+421288741+419840949+419161421+419194140+419347012
3008+419147431+418501027+417723890+417329295+417380137+417234751+416465591
2998+415664147+415628046+416158344+416349254+415766322+414771886+413907200
2988+413398550+413148041+412941466+412678846+412405531+412074322+411507577
2978+410733157+410092301+409878558+410045015+410312635+410407815+410197251
2968+409739617+409181832+408558434+407846360+407216893+406918056+406840565
2958+406564071+405942957+405300166+404943810+404849006+404890194+404974824
2948+404880424+404426288+403837257+403480873+403290108+402817791+401900615
2938+401027749+400858835+401394538+401891539+401777311+401243892+400665411
2928+399982414+398986996+397851134+397167761+397432924+398315358+398727700
2918+398076641+396968903+396221132+395899259+395711963+395591376+395559813
2908+395555911+395566923+395613777+395606840+395418618+395029746+394525404
2898+393987012+393422405+392829588+392309984+392012940+391907990+391769021
2888+391476023+391181666+391032320+390826121+390169166+389015297+387912617
2878+387593808+388291806+389466948+390257930+390240472+389690895+389128571
2868+388777332+388536621+388317472+388153732+387954412+387490563+386808405
2858+386304380+386178504+386139368+385836398+385280405+384672818+384098499
2848+383563258+383157420+382984142+382971106+382941595+382882458+382923097
2838+383044030+383078946+382996368+382880464+382648250+382111391+381300986
2828+380448410+379724601+379216299+378990155+378981687+379014174+379065826
2818+379233612+379338967+378995849+378247992+377688299+377705612+377981991
2808+377960428+377534733+376988306+376436619+375726366+374845262+374036678
2798+373452764+373032589+372764940+372732278+372878040+373011085+372999783
2788+372778640+372301843+371652750+371037532+370533710+370010407+369409525
2778+368921138+368715082+368672016+368581171+368415061+368159985+367640063
2768+366857319+366238864+366189554+366610596+367043084+367069068+366545707
2758+365709433+365038836+364800379+364778615+364583659+364113134+363610092
2748+363371606+363442825+363538439+363304954+362673984+361828923+360888972
2738+359917370+359207319+359130955+359589543+359995844+359970322+359715766
2728+359541129+359393517+359104624+358781884+358626295+358545277+358282368
2718+357855401+357556391+357508035+357462049+357096763+356387117+355637988
2708+355202610+355163358+355254839+355142981+354806945+354538111+354506606
2698+354490506+354158691+353480983+352712517+352098947+351722967+351534687
2688+351426471+351323400+351239579+351244522+351375080+351564632+351670044
2678+351611832+351450028+351249927+350940136+350443077+349878759+349460550
2668+349237759+349092113+348927506+348731740+348517072+348321191+348192106
2658+348090567+347935614+347792742+347831676+348060710+348272228+348251041
2648+347938533+347451562+347002599+346751858+346729631+346845565+346882099
2638+346617138+346105569+345692071+345659728+346011487+346550341+346980025
2628+347018265+346581586+345817716+344968869+344273126+343857980+343635565
2618+343433412+343248428+343226547+343432689+343752655+343964259+343888763
2608+343556831+343199811+343017342+343001358+343004306+342887564+342597630
2598+342210347+341887492+341682130+341476451+341236202+341152873+341354217
2588+341663083+341821302+341778524+341635653+341474514+341331411+341239584
2578+341252764+341401070+341595506+341681032+341632040+341576256+341610882
2568+341690512+341656724+341362107+340869008+340459181+340317524+340345387
2558+340402443+340524966+340770389+341039656+341155936+340989913+340529186
2548+339967238+339624873+339599235+339626751+339496973+339392775+339559550
2538+339882319+340093432+340173207+340254542+340318998+340228211+339951457
2528+339645510+339559897+339849022+340401489+340875483+340990809+340821201
2518+340730039+340933088+341219380+341261724+341088215+341005145+341141485
2508+341335429+341448819+341539519+341675685+341791387+341807862+341714936
2498+341488475+341159925+340977629+341187384+341628456+341875063+341814568
2488+341760806+341935039+342150950+342160459+342044642+342020449+342064817
2478+342018021+341914517+341915182+342020623+342105773+342159939+342299805
2468+342573379+342853544+342963841+342889500+342774723+342707580+342642517
2458+342553002+342514011+342597283+342780157+342986530+343167988+343290136
2448+343273834+343080034+342857706+342829987+343023238+343275193+343452286
2438+343486768+343325138+343022747+342768220+342699024+342813685+343091856
2428+343528332+344002933+344285496+344284196+344203988+344343911+344772439
2418+345302997+345763897+346156411+346513460+346753506+346793162+346711884
2408+346670725+346741395+346940282+347312043+347825433+348311913+348656793
2398+348932998+349241170+349547088+349748923+349805315+349781960+349836184
2388+350090277+350438192+350562392+350202597+349328517+348048714+346488082
2378+344787209+343086942+341447663+339866913+338381575+336992285+335532527
2368+333961807+332780191+332605178+333268405+333952356+334287091+334674431
2358+335632910+337492812+340539592+344786688+349536076+353527142+355696431
2348+355704755+354071286+352127880+351243684+351644493+352622800+353711896
2338+354935018+356229909+357254896+357848695+358267338+358738702+359151130
2328+359436700+359842856+360561058+361424704+362155392+362726329+363350998
2318+364167762+365076816+365953295+366852232+367825076+368730893+369445395
2308+370039513+370557960+370876134+370931022+370855496+370797197+370802169
2298+370901916+371134100+371453834+371745676+371912798+371906988+371742092
2288+371516208+371358423+371340358+371449874+371587225+371581155+371345098
2278+371054817+371026925+371385650+371963466+372517986+372926512+373170952
2268+373260727+373214856+373030017+372663747+372165215+371786488+371759318
2258+371961472+372027748+371787500+371378395+370998050+370780867+370818644
2248+371068691+371325357+371451233+371548696+371775678+372080208+372258025
2238+372269760+372367599+372798208+373417617+373737582+373459325+372884197
2228+372595968+372768842+373058545+373163494+373129879+373053804+372883734
2218+372621114+372379363+372167671+371872332+371476292+371103202+370844917
2208+370676871+370539635+370420899+370334881+370272911+370227185+370250453
2198+370429917+370787168+371262924+371799177+372344042+372790982+373056001
2188+373218787+373442416+373761861+374085815+374372483+374667446+375000707
2178+375349085+375695266+376074830+376528620+376988538+377286478+377384404
2168+377495713+377809377+378222066+378549575+378854741+379278615+379670349
2158+379743851+379581845+379615200+380034855+380548909+380821154+380876418
2148+380940613+381100972+381273701+381392004+381499671+381670088+381916377
2138+382225706+382632353+383163172+383733299+384197784+384500840+384701895
2128+384887515+385122590+385446919+385854174+386288309+386685534+387007725
2118+387260287+387521404+387905188+388431845+389018997+389683524+390582259
2108+391697773+392713568+393424053+394020945+394737384+395478073+396033633
2098+396428719+396858114+397410726+397954638+398263996+398275499+398179336
2088+398183181+398314086+398563699+399036970+399781677+400622893+401320834
2078+401801013+402132279+402359723+402457938+402451840+402524504+402910601
2068+403626433+404374781+404835508+405028152+405240653+405611315+405966456
2058+406114819+406154736+406361282+406839582+407473298+408215779+409171050
2048+410279367+411248107+412010185+412901896+414120394+415336262+416105623
2038+416387811+416438653+416468395+416626846+417137749+418202970+419767880
2028+421509942+423123526+424538425+425809528+426957443+428049198+429239399
2018+430519664+431615205+432396186+433224800+434581458+436467692+438452372
2008+440242934+441915973+443586960+445208088+446809157+448600615+450591885
1998+452384702+453709710+454962690+456712932+458820568+460577544+461655512
1988+462330763+462913348+463593021+464672058+466378683+468488401+470455768
1978+471929862+473061764+474318271+475988101+477961047+480096113+482521721
1968+485259403+487922195+490225077+492381417+494571748+496553393+498195303
1958+499885886+502023265+504500611+506969979+509313557+511647771+514046961
1948+516470141+518993328+521942614+525478533+529072490+531905526+533815374
1938+535246171+536534876+537835778+539367969+541318456+543711403+546449576
1928+549388920+552526833+555973034+559435884+562281002+564543996+566942666
1918+569530424+571508774+572672152+573774197+575366276+577294334+579182331
1908+580815107+582094274+583013588+583793066+584835800+586328335+587980361
1898+589398729+590556731+591725138+593268891+595490264+598059177+599691491
1888+599389908+597945238+597085755+597618914+598981209+600092676+600417439
1878+600300494+600378072+600993376+602403477+605043089+608832263+612181231
1868+612797576+610485445+607484998+605643363+605057425+604900246+604536752
1858+603942143+603496793+603409330+603284003+602621123+601698340+601460346
1848+602657253+605203736+607686342+607693568+604462007+600149154+596999332
1838+595445926+594658413+593921076+593617875+594525282+596067416+596281766
1828+594442386+591886306+589452548+586738191+583837231+581658231+580568499
1818+579974295+579164584+578188560+577778068+578342617+579176954+579100706
1808+577940854+576767417+576696603+577890793+579534090+580591276+580679432
1798+580282120+580462943+582413950+586272377+589662909+589382774+586011087
1788+583013473+582248504+583032665+584025973+584936905+586061726+587240828
1778+588388425+590418802+594572973+600565137+605491213+606479550+604487442
1768+601984545+600084351+599657326+601727359+605625327+608730174+609796320
1758+610032638+610220108+610369136+611580148+615419614+621304198+625761339
1748+626245594+624306957+622960849+623560430+625569533+627595344+628471418
1738+628862429+631313703+637121288+642798921+643252942+640076875+637302052
1728+635795643+635277225+636089595+638257034+641323786+645751503+652517826
1718+660251792+664160165+661951452+657173247+653501886+652160402+653294125
1708+656659684+660956351+664242310+666793880+671376001+678782544+684544230
1698+684714011+681266133+676681873+672530419+670770987+671917138+674424486
1688+677238676+681905312+689575516+695650460+694252499+688493530+684259065
1678+683949505+686938795+690495177+692445433+693901896+696519945+698801901
1668+698163242+695931810+695349687+697020559+698683915+698418174+697304683
1658+697876458+702144453+711038155+721815113+725996743+723065550+721616949
1648+723833177+725062283+720779952+713877723+709322482+708688159+711744737
1638+717813959+724528025+726760671+722567595+716904876+714052880+714408570
1628+716120485+717533419+718973406+721016270+722372379+722241502+722499613
1618+724598088+726277052+724308183+720412296+718218844+718521524+719873934
1608+720988118+722057674+723648366+725348257+726456314+727157867+728020125
1598+729097833+730287860+731720507+733443405+735624660+738878997+743332901
1588+747820738+751000099+752849885+754367508+756397018+759529786+764636107
1578+772033574+778962164+780430188+777214929+774924706+775537698+776598179
1568+775727481+773785434+772068374+771090963+772760042+779914429+790783648
1558+793980005+785713747+775692103+768763397+764978790+763655747+764095374
1548+766172286+770518379+777248977+785344587+793803287+800868650+801429499
1538+794829604+788521000+786842383+788414866+789432280+788725928+788985542
1528+792471111+798435932+804441507+809528693+814225158+818588477+822747677
1518+827032262+830179829+830474590+829051656+829336300+833943047+843737045
1508+857015686+866405493+864966893+859237580+857558962+861237145+867535285
1498+872327999+873552134+873635030+876163419+881904178+889131402+895235309
1488+898669544+899414510+897908853+895735923+895326298+897623052+901337365
1478+905044221+908936292+914447266+922567213+930933363+934916655+934820810
1468+934935500+937227977+940775977+944441847+948195989+952363167+956976446
1458+961111367+962292204+958816058+951624501+942771033+935183205+931326397
1448+930890990+931598035+932122870+932514632+933198034+934994348+938271057
1438+941404346+941360528+937672633+933956817+933145198+934901336+937107563
1428+938531018+939513748+940118936+939763361+938916364+939262747+940998074
1418+941460477+939013943+935932045+935292346+937743967+940852572+941713270
1408+940645332+940705509+943802899+948540060+952035918+953028822+952501327
1398+952137255+952039907+950476442+947222104+945256010+947001626+951355291
1388+954954567+954813170+950968154+947119727+947303960+952078985+958318566
1378+963045842+966594247+970437181+973580528+974104497+972996093+972955628
1368+975041443+978607710+983144452+988252218+992628832+995482332+998285539
1358+1002625041+1007213579+1008780975+1006195587+1002267443+1000687446
1350+1001924182+1003375847+1003508804+1003889988+1006785109+1011837726
1341+1015772459+1016050514+1014198011+1013848737+1016298277+1019745230
1332+1021929317+1022383107+1022405074+1023050207+1024130400+1025582065
1324+1028230463+1032156757+1035596888+1037388577+1039298310+1043636425
1315+1049270586+1052659500+1053233877+1053842475+1056036043+1058160242
1307+1057804378+1055043486+1052860555+1053993469+1058358060+1063541322
1298+1067277197+1069164038+1069463712+1068014360+1064894483+1060549778
1290+1055438312+1050564668+1047827246+1048520012+1050919953+1050789308
1281+1046068391+1039454044+1034581902+1032072011+1031011241+1030745788
1273+1030531438+1029478645+1026732437+1021630683+1014576882+1007964615
1264+1004783231+1005693701+1008313195+1009507038+1008093642+1005063482
1255+1001518603+998438845+996040638+992648603+987316081+982214096+979838203
1245+978715348+974225083+964665438+953858708+946753631+944723544+944393289
1235+940103038+929578468+916734078+907142984+902496466+900096756+896890861
1225+892659401+888761145+885576292+882480405+879376598+877172451+876689180
1215+877270377+876974345+874665508+871284688+868649874+867725357+868391301
1205+870089804+872136888+873838455+874894080+876108907+879003912+883718933
1195+888118035+890072568+890035803+890333570+892556330+896408572+900746340
1185+905319790+910517388+915529540+918738036+920264273+922222795+926105328
1175+931475309+936857372+941157565+944960439+950197231+957479026+964053486
1165+967423612+969785054+974482096+981207666+986450007+987569047+985860948
1155+984710460+985085401+985480458+985621046+986622736+988070355+988812373
1145+990847317+997460277+1007293700+1014255125+1014556534+1010613823+1007326419
1135+1008476097+1015169641+1025084688+1033628886+1037269147+1035481388
1127+1030463456+1026344085+1025987643+1028968898+1033139833+1036958026
1118+1041169774+1047048924+1052130792+1051107481+1042622826+1031804246
1110+1025129085+1025715601+1032988840+1043280445+1049476266+1046325173
1101+1038207827+1033475811+1036455909+1046246901+1057619510+1063789663
1093+1060785748+1051868230+1045633447+1048592850+1059711914+1070378113
1084+1073741823+1072299060+1068770368+1062800922+1056506597+1052748871
1075+1051244717+1048952066+1045364410+1044372431+1046894925+1047227318
1067+1040760380+1031053787+1025268285+1026324315+1030935051+1034781801
1058+1036583433+1035722677+1031325252+1024508693+1019329015+1018152746
1050+1019293406+1019828473+1018389526+1015311732+1012225846+1010970611
1041+1012570726+1015956750+1017368296+1014862452+1012200873+1014077540
1033+1019268548+1021532410+1017589699+1010502832+1004366438+1001051402
1024+1000915554+1003118718+1004780225+1002654870+998254323+997271593+1002011471
1014+1008616338+1012717211+1013920997+1013282454+1010012046+1003948142
1005+997753709+992941340+987753222+981003489+974649969+970719745+967677504
995+962369897+954951619+948081704+942935901+938709701+934331930+930012141
985+926526399+924117902+922680111+921842479+920596667+917924336+914296562
975+911477978+909962609+907516306+902255697+895364798+888953644+883906981
965+880148561+877314716+875718301+876434248+879558634+882908586+883756392
955+881854637+879666445+879946408+883349022+887933397+891232189+892735014
945+893496976+893875211+893657450+893579410+894679084+897143654+900689978
935+904779462+908642398+912880853+919250212+928109172+937910800+946757620
925+953049806+955282105+953722629+951265574+950758890+953135824+957095646
915+959828501+959820465+958878606+959800984+962417646+963601315+961788699
905+958660440+955801911+953464229+951864808+951113424+950471239+949289247
895+948270214+948274376+949023621+949919003+951033592+952767705+955470442
885+959827980+966449265+974507185+981029734+983261339+982078133+981310332
875+982874953+984160710+982522442+980610513+982777952+988460441+993966038
865+998383581+1001162393+998618395+990542440+983401349+981890720+984385004
855+987435165+990316874+993732033+996735254+997509761+995813685+992941225
845+990763612+991190001+994908302+999539155+1000694961+997453341+994649902
835+997281421+1003986989+1007986929+1005819490+1001059958+997585836+995240581
825+992383381+989044066+988165853+993765330+1005575426+1016141965+1018681685
815+1017677683+1021317944+1028646100+1031345369+1026399927+1020460194
807+1019095819+1020588065+1022054644+1024526614+1029964692+1036191960
798+1039900781+1041519047+1041877686+1041450950+1039599603+1035925235
790+1033014391+1033227701+1036450591+1039243624+1036797784+1028132306
781+1017440440+1009016020+1004194634+1002135758+1001601846+1001109557+999159128
771+995496553+991208962+987060456+982614356+977773199+974409258+975907748
761+983856758+994448269+1000146944+998760371+997451375+1001534674+1006824302
751+1005830127+997917304+991296829+992672997+999276246+1003913226+1005366047
741+1007694076+1011818996+1016324869+1020793282+1023849918+1022403224
733+1015272192+1004470260+993201128+985238128+984708726+993533406+1007504351
723+1016803516+1014622897+1004733285+995585692+989668851+985680588+985285068
713+990836565+999964966+1008059651+1013123483+1014765450+1013776593+1012934683
703+1012848897+1010616482+1007085130+1006306693+1007484234+1005467442
694+1001005850+1000637384+1006079162+1011315261+1010731635+1007510479
686+1005856256+1005097357+1002231371+997721337+996739648+1002875695+1013161983
676+1020394294+1019898189+1011686964+998172005+982659099+972512591+976145452
666+988417779+999719168+1009673987+1019427866+1019705574+1002006153+976029028
656+955227535+944337562+940240389+935348766+924945072+915320623+917569687
646+933567309+954973933+973717533+985504621+985134421+974061488+962399957
636+955172791+950707094+949930102+956555376+968680234+977279638+975300189
626+967442227+964417732+970582279+978136000+974011080+966726626+971026819
616+979381639+972942679+950879766+931325819+924357226+926201000+928031305
606+920835412+912718818+919854591+940444624+960353336
##END=
