##TITLE=<SNM>
##JCAMP-DX=4.24
##DATA TYPE=INFRARED SPECTRUM
##DATE=29/4/2025
##SAMPLING PROCEDURE=Instrument type and / or accessory
##ORIGIN=Admin
##XUNITS=1/CM
##YUNITS=ABSORBANCE
##RESOLUTION=4
##FIRSTX=4497.3318
##LASTX=599.83466
##DELTAX=-1.4281778
##MAXY=2.1569362
##MINY=0.54791665
##XFACTOR=1
##YFACTOR=2.0088033e-09
##NPOINTS=2730
##FIRSTY=0.55616581
##XYDATA=(X++(Y..Y))
4497+276864241+276860562+277010849+277436015+278661042+280696106+282123286
4487+281246991+278488115+276350713+276542244+278241958+279553715+279515112
4477+278287000+276739294+276244577+277511945+279395031+280062199+279336103
4467+278532326+278320707+278289819+278279226+278691514+279599499+280460097
4457+280732810+280231773+278979894+277291128+275790481+274964687+274789862
4447+275047145+275676393+276558326+277450821+278364473+279479239+280463213
4437+280549201+279461436+277762612+276423735+276257989+277305222+278733352
4427+279861352+280897844+281994451+282513054+282010889+280916656+279792602
4417+278912806+278508292+278716290+279511463+280729665+281718237+281505669
4407+280037127+278592411+278297593+278900314+279501167+279729520+279733140
4397+279653917+279508377+279300645+279116918+279030069+278802961+278115705
4387+277296677+277127874+277562446+277431772+276114229+274720697+274634501
4377+275517768+275831428+275025603+274118984+274103169+274813243+275611383
4367+276364095+277227423+277967643+278099534+277564375+276840533+276397001
4357+276359258+276661405+277115887+277359818+277274364+277411655+278307444
4347+279435503+279579797+278388091+276749174+275469641+274580528+274029227
4337+273981367+274259717+274382232+274394041+274894039+276072422+277376672
4327+278216381+278461529+278130037+277174281+275986908+275561682+276491535
4317+277984912+278688874+278467226+278296614+278576180+278648669+277749823
4307+275912076+274090944+273363186+273877397+274856237+275644615+276263508
4297+276835964+277095770+276800180+276244013+275877182+275515602+274600289
4287+273345205+272757735+273251442+274140823+274684883+274777637+274541747
4277+274036408+273485167+273319064+273967777+275576192+277641699+279124929
4267+279266107+278174218+276574170+275296417+274883802+275276240+275922283
4257+276402223+276748403+277019958+277053309+276935335+277157813+277875246
4247+278469837+278273499+277426698+276741103+276976638+278188341+279446482
4237+279508703+278206530+276691166+276021891+276195619+276602744+276734991
4227+276430144+275969876+275870209+276301102+277027347+277884177+278768958
4217+279272042+278995768+278327739+278272550+279289459+280650649+281038013
4207+279774413+277568321+275954684+275933024+277127370+278278989+278497639
4197+277859520+276980673+276479874+276642593+277248371+277881210+278317651
4187+278363998+277775519+276727425+275790155+275189065+274692271+274265414
4177+274314699+275273867+277116095+279117600+280243909+280139643+279467756
4167+278964109+278662792+278313348+277949811+277743206+277808959+278303349
4157+279185549+279987071+280321174+280301977+280051992+279308478+277916400
4147+276303505+275169600+274861994+275170253+275639897+275971983+276141913
4137+276359228+276951832+277954973+278811804+278925980+278445328+278013872
4127+277937912+278005386+277946220+277821302+277893523+278126624+278081701
4117+277591079+277168643+277324301+277818513+277961294+277401270+276388396
4107+275448188+274990591+275140136+275740751+276536843+277375930+278166622
4097+278739375+278974316+279044341+279226377+279404526+279082439+278019153
4087+276674876+275849231+275908901+276558385+277322135+277920762+278208874
4077+278167275+278006573+277941888+277891624+277667573+277280921+276900826
4067+276642653+276507587+276405516+276183513+275861545+275790807+276235171
4057+276808874+276853678+276485689+276592626+277581317+278752876+279163206
4047+278690802+277985387+277610514+277533457+277394771+277086275+276949696
4037+277391597+278305812+278965562+278749226+277934055+277453551+277865869
4027+278789609+279394022+279244091+278591996+277913611+277401180+277060787
4017+276996992+277224871+277425511+277318040+277086334+277102446+277462245
4007+278035235+278711543+279385328+279884199+280048194+279800287+279169645
3997+278430848+278061436+278271393+278716261+278909839+278832277+278961319
3987+279669346+280696462+281370514+281337549+280752482+279811770+278774655
3977+278275962+278746229+279669079+280246609+280519678+280845592+280812746
3967+279941614+278987935+279274356+280877489+282387216+282680907+282161295
3957+281768026+281681860+281636907+281751826+282234169+282698947+282623551
3947+282244139+282291347+283012844+283829172+283922045+283169896+282291940
3937+281987449+282393210+283355285+284590994+285477822+285406521+284532333
3927+283587081+283083047+283014179+283128297+283419436+284255436+285702704
3917+286849931+286564222+285010789+283493585+282898756+282978454+283142361
3907+283613370+285293086+288340015+291369468+292819554+292587254+291477710
3897+290077769+288744797+287924255+287934373+288255807+287732694+286527578
3887+286311924+287755987+289286602+289504541+289163910+288924311+288105579
3878+286766465+286275249+287266255+289078544+291126041+293070280+293935359
3868+293377293+292604998+292298964+291512218+289508903+287289162+286335008
3858+287550480+291793032+299387626+306338523+305752833+298908458+291674523
3848+287268836+286295456+287643026+289524362+291014268+292500524+294369901
3838+295949535+296372861+295904582+295462444+295372093+295112555+294173712
3828+292721400+291451391+291409495+293584610+297369831+299664849+298843447
3818+297452170+297471100+297504629+296089288+294359516+294003248+295377731
3808+297344610+298403178+298832587+300213271+302587068+303853309+303334884
3798+302545379+301792282+300278252+298354516+297307550+297566703+298672805
3788+300400055+302695934+304879416+306316388+307707516+310306314+314081239
3778+317746764+320609016+323326886+327151689+332911949+339869788+345916054
3768+350118281+353511776+356790293+359698655+362345936+365100569+367786305
3758+370284307+373295364+377809174+384468723+392934094+400819709+405603888
3748+408621204+413347375+420850581+427134961+428576413+428122822+430216369
3738+436926598+447141265+456272766+459931615+458752876+456922843+457673538
3728+461380870+465505061+466292845+462936173+458244422+454531066+451955887
3718+450250060+449802521+451069978+453800845+456537289+457237453+455582691
3708+453459026+453035997+455372199+459710976+463533821+464679030+463713720
3698+462733189+463020530+464733092+467631425+471460145+475536238+478216811
3688+478128389+475967872+473440970+471465961+470068779+469293071+470021304
3678+473479869+479054591+483373251+484824791+485452882+485660703+482927997
3668+477353512+472240215+469034809+466698814+464417444+462990650+463496820
3658+465549895+467124514+466712136+465727955+467298271+472805817+478874989
3648+480456165+478510293+476895084+476152846+474693828+472212679+470279211
3638+470200492+471592155+473214307+474777799+477606226+482917226+489021737
3628+491706582+490457136+489121819+490081017+492851317+495690692+497003874
3618+496551914+495875844+496475124+498012297+498851353+498214539+496663569
3608+495143190+494938574+496935095+500389060+503693540+506270944+508809834
3598+511711550+514482414+516256783+516214293+514779725+514305749+516745239
3588+520389400+520823201+516964038+512256560+509943175+510932193+514380225
3578+518121294+519563577+518075659+516017213+516396952+520367265+526716894
3568+532262063+533565779+530194122+525038187+520936131+518904627+518580672
3558+518990497+519398602+519886405+521025858+523139909+526063938+529146355
3548+531152459+531071159+529218694+526748702+524414843+522532410+521695134
3538+522532826+524730491+526680220+526626573+524525103+522184361+521271896
3528+521782665+522521076+522489268+521633832+520481026+519185263+517403595
3518+515319928+513953130+514060364+515569348+518179985+521350052+523662962
3508+523805505+522329456+521038499+520754956+520515268+519647251+519605711
3498+522040513+525856889+527741280+525939792+522052322+518790213+517599013
3488+518332913+519807953+520754125+520900347+520713593+520210717+519064261
3478+517723574+516994066+516603052+515480511+513378033+511202324+509921574
3468+509764374+510293954+510776535+510728348+510316564+509881458+509420063
3458+508676668+507405828+505692761+504263000+504275818+506309814+509267788
3448+510633102+508653168+504360204+500492912+498598372+498122913+498348715
3438+499658483+501771288+502592185+500659845+497390733+495263983+495062038
3428+495940973+497017819+497919365+498485442+498576297+497997520+496696742
3418+495304189+494959908+495993136+497178759+497001025+495506075+494107558
3408+493786925+494510619+496165944+498728869+501342057+502447566+501363242
3398+498895564+496270982+494240487+492933003+492057183+491487308+491660175
3388+492993148+495049220+496694487+497000699+496021740+494875284+494609425
3378+495004801+495306117+495830417+497448208+499866660+502015011+503565833
3368+504573722+504544525+503340506+502031687+501915433+503434922+506123713
3358+508867754+510447654+510533287+509951483+509695120+510107616+511083281
3348+512394178+513459452+513496245+512493816+511345817+510517798+509561716
3338+508399356+507845148+508322150+509079550+509157646+508602548+508337579
3328+508938906+509843953+509993321+509127084+508012259+507521310+508055461
3318+509481365+510911601+510970410+509164768+506704626+505172023+504773353
3308+504640246+504449635+504568856+504795073+504382102+503371543+502674139
3298+502999400+504441386+506472356+508020804+508301143+507794706+507717441
3288+508484395+509547236+510589129+511691492+512442009+512416372+512460049
3278+513767088+515876688+517191560+517358494+517493144+518023437+517745947
3268+515447694+511875516+509415672+509598687+511323919+512188790+511350920
3258+510118595+510000382+511152179+512401537+512336555+510794279+509156934
3248+508726457+509267254+509572220+509240787+509073497+509589845+510262918
3238+510637434+511348665+512844654+514019179+513615881+511991533+510270692
3228+508843423+507669610+506992204+506757264+506269520+505286437+504546305
3218+504565651+504869965+505027640+505458414+506414971+507068105+506450933
3208+504656328+502472074+500415112+498641930+497447199+497374681+498565259
3198+500037807+500214057+498594396+496342521+494882791+494536225+494677047
3188+494648177+494242327+493543499+492573352+491363280+490262905+489642647
3178+489291660+488755848+488319051+488761219+489830706+490056716+488599300
3168+486278942+484440394+483639495+483483867+483205783+482447048+481513724
3158+480718997+479982011+479296683+478880478+478692359+478413593+477925078
3148+477304880+476418437+474980724+473118112+471364276+469911697+468414165
3138+466931766+466366164+467199227+468496475+468970599+468407905+467396425
3128+466407556+465597963+464931299+464258137+463506404+462817071+462542993
3118+463026256+464014591+464427533+463463914+461897514+461221652+461547210
3108+461494602+460351292+459104723+458908326+459676379+460506267+460712901
3098+460261475+459634838+459290646+459057100+458266527+456558890+454402735
3088+452852655+452679432+453570889+454480238+454852588+454964243+455075512
3078+455051596+454807161+454446175+454056407+453783694+453875795+454262448
3068+454321583+453494217+452053744+450895954+450606803+450999419+451438620
3058+451369188+450702910+449927083+449624521+449797299+449884534+449383023
3048+448254756+446896236+445908850+445693137+446068662+446383776+446136699
3038+445427842+444767409+444534130+444716077+445089347+445416864+445475643
3028+445106557+444333163+443343523+442341954+441500019+440943852+440581234
3018+440021833+439020917+437967838+437442382+437363485+437174120+436755126
3008+436477042+436492353+436583178+436470930+435881976+434786466+433740182
2998+433374271+433612001+433955955+434176327+434123897+433490109+432367806
2988+431380717+430835826+430431163+429972141+429615725+429297377+428748984
2978+428140210+427839190+427641873+427145495+426625320+426557639+426606716
2968+426030016+424761165+423373864+422420660+422239484+422835945+423732090
2958+424359054+424603341+424697964+424754696+424618028+424057085+423078927
2948+422063501+421430099+421226788+421184655+421026742+420591191+419876992
2938+419147424+418699114+418408242+417862253+417093726+416773954+417391986
2928+418535742+419260236+419029805+418115590+417198348+416771283+416782292
2918+416730544+416229418+415404515+414617918+414063442+413716135+413379420
2908+412835924+412204420+411885331+411960430+412090926+412126858+412280647
2898+412658160+413096827+413391853+413348710+412797113+411791034+410675259
2888+409820268+409343829+409098919+408847303+408400625+407664203+406737911
2878+406028045+406003358+406704768+407611802+408028304+407582516+406463685
2868+405239133+404412093+404169616+404411945+404809576+404965055+404768658
2858+404454999+404220444+404050870+403959718+404032533+404092173+403670924
2848+402572091+401243718+400393445+400347394+400822083+401228704+401163515
2838+400627792+399886355+399232420+398839211+398723550+398818915+399025401
2828+399163196+399049554+398692069+398203761+397568608+396776908+396068852
2818+395715936+395670924+395684900+395640926+395566035+395427468+395109506
2808+394612534+394153898+393944208+393911065+393723510+393078714+392037682
2798+391128155+390887220+391179042+391285860+390816186+390162578+389930485
2788+390201685+390477721+390300966+389831797+389545970+389426393+389002562
2778+388249523+387752314+387787090+387857560+387384504+386417413+385441095
2768+384803124+384560587+384666189+385022932+385367747+385278672+384508899
2758+383384549+382633617+382673406+383232570+383696517+383610944+382906448
2748+381904138+381044518+380493989+380150895+379928624+379755163+379496100
2738+379163361+378935364+378768401+378311634+377418842+376494242+376099578
2728+376295679+376571151+376518988+376335498+376360096+376395999+375960240
2718+375079494+374361320+374268952+374672903+375136375+375367666+375320844
2708+375069673+374710141+374299009+373826369+373299666+372840852+372599977
2698+372531257+372357441+371888509+371316260+371003490+371002660+370981296
2688+370633187+370024027+369525809+369454686+369708646+369810747+369483052
2678+369062426+369062307+369435459+369611531+369233038+368507684+367821733
2668+367374165+367243787+367443567+367776543+367910451+367702571+367272776
2658+366787792+366357374+366040124+365802038+365605315+365541966+365623118
2648+365529800+364977580+364256735+363984735+364338095+364839666+364918593
2638+364477226+363858749+363388808+363087076+362848664+362715349+362763714
2628+362840979+362666539+362202414+361771848+361769771+362274872+362944622
2618+363324391+363275047+363062953+363022392+363136450+363013283+362371573
2608+361456704+360797963+360674944+360953828+361282472+361401426+361417449
2598+361642034+362042751+362181911+361812795+361144291+360488131+360009259
2588+359752806+359674206+359755625+360086999+360628211+361051507+361066432
2578+360691590+360063617+359278207+358532349+358144362+358285421+358774292
2568+359174534+359114241+358604392+358051667+357856279+358005290+358172312
2558+358150741+358000246+357840998+357745752+357769133+357881737+357969239
2548+358016061+358134896+358334735+358449654+358392744+358337881+358520095
2538+358897875+359128573+358917310+358309544+357618371+357166560+357092173
2528+357300943+357610449+357941555+358289278+358576857+358707323+358695959
2518+358614184+358476804+358279694+358078787+357975085+358053477+358338266
2508+358748745+359077240+359092343+358772512+358381379+358168781+358096709
2498+358029443+358032499+358253524+358612878+358807762+358620207+358172045
2488+357857703+357935829+358189136+358152195+357693708+357177182+357022444
2478+357277859+357659288+357914465+358059501+358212666+358296904+358135045
2468+357863786+357926453+358474222+359046293+359094331+358652905+358225484
2458+358159821+358375949+358585877+358590209+358421852+358299960+358379658
2448+358548520+358581070+358450871+358331115+358341293+358476180+358722100
2438+359047984+359328886+359455377+359468403+359454131+359410958+359327996
2428+359251948+359185364+359077300+358982113+359074837+359456890+360021216
2418+360516704+360763158+360846357+361037680+361477801+362021268+362399286
2408+362460647+362305583+362215766+362354096+362576812+362682354+362701136
2398+362755109+362854302+363068235+363690154+365009833+367107119+370085596
2388+374421524+380916010+390313221+403012300+419091552+438501306+461153021
2378+486802886+514875268+544371447+573974504+602442973+628889672+652582478
2368+672832832+689416414+701935268+708832399+708737034+701561285+688102728
2358+670310499+650471810+628441391+602165721+573402018+549016732+535118619
2348+534205382+546099943+567237896+589550434+605270391+612933646+615190002
2338+614603749+613061650+612599602+614799582+618800991+621095149+619177110
2328+614512894+609774024+605000675+598204606+588518808+577240351+565958808
2318+555253490+545229553+535898569+526933141+517798169+508143111+497846906
2308+487035660+476298504+466464170+457951710+450505029+443571520+436859036
2298+430536913+424941153+420128223+415807724+411679943+407657882+403834148
2288+400442077+397726432+395689380+394112239+392850360+391875377+391094240
2278+390399388+389801621+389314530+388864410+388423637+388040634+387693713
2268+387275876+386721845+386062836+385383087+384742119+384139605+383597680
2258+383232451+383131627+383171179+383071571+382700111+382238389+381945915
2248+381837525+381769517+381758153+381958377+382374761+382808057+383059792
2238+383089908+383028340+383029853+383046736+382829806+382252780+381516180
2228+380907643+380470044+380083392+379778426+379659769+379563039+379206533
2218+378670276+378269293+378035628+377803684+377644317+377745528+378023018
2208+378207813+378192413+378108620+378155086+378394033+378698969+378940497
2198+379151908+379427439+379795547+380272045+380859278+381435502+381831412
2188+382073860+382382446+382849894+383277908+383464929+383544805+383844163
2178+384460297+385161677+385673929+385929729+386071560+386294068+386641613
2168+386945511+387029867+386946401+386904326+387028948+387324270+387796644
2158+388400493+388893934+389000040+388742370+388427969+388299579+388373284
2148+388585110+388936067+389465648+390139345+390793665+391245447+391495105
2138+391768589+392341668+393376262+394870648+396663146+398537805+400414542
2128+402369047+404443842+406612904+409005750+411924883+415462375+419256883
2118+422797550+425875842+428638576+431314816+433986013+436538730+438766037
2108+440524710+441798338+442640600+443112172+443281004+443285010+443320379
2098+443453753+443528496+443417049+443296078+443500100+444145015+444991074
2088+445626821+445725242+445109138+443645877+441260657+438091540+434448298
2078+430611626+426829372+423394752+420521966+418240241+416511181+415290754
2068+414429562+413731268+413168722+412838950+412696348+412562499+412395833
2058+412302871+412308746+412384528+412666290+413346574+414336600+415288113
2048+415999107+416601472+417289826+418056425+418792521+419509508+420345064
2038+421452501+422951338+424849646+426980461+429178393+431521806+434243326
2028+437449236+441059335+444940603+448964592+452966417+456774158+460325062
2018+463642983+466646117+469119047+470963411+472319794+473354239+474045620
2008+474249554+473918180+473192261+472243775+471133905+469960002+468953211
1998+468227797+467716494+467507961+467824410+468536561+469131420+469270194
1988+469033266+468691299+468579763+469058546+470305767+472134672+474058883
1978+475608014+476717677+477812652+479392849+481588556+484190973+486926854
1968+489528470+491719252+493431310+494970975+496728075+498795749+501018220
1958+503257307+505481380+507748952+510121087+512459218+514506804+516329597
1948+518392019+521090602+524397574+527797122+530475885+532098750+533406560
1938+535408393+538232784+541207255+543737362+545781091+547729810+550056963
1928+552923726+556083882+559149090+561793433+563896386+565733718+567716323
1918+569792216+571535607+572901990+574316915+576043809+577903514+579577473
1908+580929495+582003077+582900350+583741068+584693411+585911554+587393004
1898+588953143+590368840+591581523+592789577+594210674+595657408+596554799
1888+596630818+596338374+596303539+596713721+597312377+597714014+597751934
1878+597688021+597973285+598717155+599700001+600951317+602726279+604527649
1868+604793329+602697141+599489213+596970322+595824637+595598064+595519968
1858+595157321+594466860+593478257+592201068+590895156+589989635+589587524
1848+589552452+589942754+590504321+590038771+587761942+584666885+582128054
1838+580540083+579525667+578706965+578248536+578523949+579107592+578729218
1828+577020127+575112592+573769650+572495487+570760879+568899394+567474083
1818+566602328+566011268+565431542+564840362+564337842+563902143+563412797
1808+562883750+562568696+562867727+564007833+565596694+566674905+566665707
1798+566146333+566281280+567810857+570459355+572641650+572565987+570618217
1788+568961289+569087275+570916833+573407596+575645081+577300525+578452559
1778+579550353+581333386+584398653+588560408+592329606+593948376+593493687
1768+592255427+591168670+591008502+592461645+595142900+597450232+598523221
1758+599114875+600008468+601474667+603922049+607506986+611256304+613791396
1748+615068704+616013215+617174566+618795709+621018952+623313228+624619615
1738+625177443+626978220+631208101+635597794+636540702+634783602+632951018
1728+631774356+631269462+631873637+633808946+636872432+641245568+647285187
1718+653762641+657339567+656483004+653475004+650847929+649738978+650500651
1708+653160840+657180882+661210954+664430098+667740691+672173111+676573071
1698+678828714+678534668+675979280+672393750+670241601+670879780+673624295
1688+677280444+682179245+689020237+694898442+695476803+692467557+690177019
1678+690745292+694065735+698180252+701082740+703439089+706959876+710486834
1668+710923187+709035353+708681726+711361794+714928809+716814684+717621043
1658+719622875+724275637+731935332+740235045+742786813+739671876+737789324
1648+739068472+740140689+737249062+732146891+728793334+728598866+731087789
1638+735313694+739696919+741319072+738963494+735503771+733824115+734718361
1628+737440682+740714956+743813810+746279352+747727688+749098877+752305797
1618+757680650+762288430+762904653+761133667+760291761+761322141+763356494
1608+765109617+765773908+765351679+764391265+763511736+763250150+764048201
1598+765965943+768433977+770552894+771904203+773013035+774562374+776364396
1588+777635058+777992127+777676005+777191822+777352999+779056333+782350547
1578+785951981+787628908+786267273+784125153+783909083+785735852+787472004
1568+787033159+784795021+782344494+781228125+783209009+789444817+797557776
1558+800485781+797330906+794001028+792623429+792809411+794243564+796544547
1548+799385673+803100928+808048509+813955851+820436866+825943462+825858007
1538+819452892+813071100+810555057+811008678+811664482+811491793+811928679
1528+814240106+818468444+824383323+832077140+840423735+845913358+846576165
1518+844574036+842292756+841007081+842023634+846015963+852439593+861152634
1508+873031765+884976827+888023934+882325362+876304971+874714448+878343655
1498+885359770+892076735+896034230+898429449+901539757+905857882+909786002
1488+911408333+910724044+909020175+907471490+907188837+909518304+915016473
1478+922130089+928018560+931210644+933186305+935917765+938658898+940467329
1468+942203243+944308808+945716612+945729430+945860342+947838733+951705433
1458+955482464+955323602+950421004+944767948+940890863+938815980+937949447
1448+937586740+936965295+936062266+935403910+934697901+933321727+932394189
1438+934526517+940318971+945996713+948135925+947749837+946743076+945287322
1428+943108350+941148829+940842142+942665173+946052793+949831071+951729111
1418+949769947+945647180+942359910+940433563+939218269+939037034+940464600
1408+942327805+942051206+938414165+933543553+930625933+929770260+929073390
1398+928982951+932212420+938969798+945224774+947168509+945610625+943820174
1388+943375573+943271069+942728017+943770326+948225356+954349836+958683093
1378+960054342+960560363+962853453+967088972+970652308+971610704+971326568
1368+972290602+974803618+977145548+977876481+977312956+977382506+980002993
1358+985393692+991690030+995497327+994078129+988788789+984631841+985376067
1348+990562030+997096454+1002208773+1004480320+1004306682+1004351427+1007420313
1338+1012941507+1017177798+1018050740+1017851464+1019572661+1023646588
1330+1028791783+1033368942+1035765467+1035200043+1033064154+1032074187
1321+1033962257+1038397586+1043155861+1045641164+1045751305+1045880318
1312+1047590358+1050362528+1053640778+1057718502+1061770591+1063664002
1304+1063071043+1062597482+1064821555+1069386608+1073259361+1073741823
1295+1070790437+1066159275+1061232108+1056355858+1051631884+1047129141
1287+1042492401+1037243000+1031569174+1026289270+1022507313+1020991207
1278+1021252674+1022033278+1022171073+1020503166+1016234712+1010261558
1270+1004830684+1001309838+999331922+997587106+994694232+990484943+986507390
1260+984027309+982481175+980847985+979145600+977264828+974012214+968478083
1250+961323817+954091751+947697555+941903084+936005771+929644155+922904581
1240+916039910+909216246+902420473+895605236+888831895+882174511+875711774
1230+869700818+864544170+860532198+857698846+855688409+853655481+850810616
1220+847252977+843867790+841468713+840409670+840833264+842564608+844594688
1210+845651298+845690464+845844223+846951038+849184903+852616199+857014616
1200+861491959+865149533+867918260+870757665+875028256+880809197+886023704
1190+888664131+889505977+890775096+893020295+894989370+895814362+896316764
1180+898411646+903377149+910270126+916311822+919792077+922242961+926619836
1170+934074261+943152798+951262137+956740011+960278898+963751379+967037165
1160+968038170+967071940+967391386+969877045+971991274+972374395+972885995
1150+975994285+981955927+988710871+994161625+997834924+999678843+999424497
1140+997787449+995986732+994285653+993149819+994085131+997013611+999673384
1130+1001103442+1002644947+1004950795+1007905505+1013321424+1022364770
1121+1031847376+1036815252+1034938457+1027832674+1019533257+1014072475
1113+1013781810+1017976442+1023547485+1028180901+1031037338+1031208366
1104+1029762760+1029252881+1029758843+1029674219+1029751010+1032216136
1095+1036404833+1038973336+1037923194+1034010563+1028849346+1023783909
1087+1019722682+1017125932+1015880076+1015347409+1015267889+1015862035
1078+1017016858+1017412916+1014593035+1008318535+1003253692+1003784815
1070+1006813230+1004650043+995624381+985659313+979637260+977890605+979197525
1060+982104344+985070033+988182774+993223286+1000080480+1004138977+1001015376
1050+994145187+990790740+992163709+992677920+987692894+979276274+973053106
1040+972434510+977029294+984562943+992495142+997572982+996499578+989862668
1030+982195318+976215161+971652067+968611309+967798838+968900846+971431725
1020+975540545+979692865+981294069+981587997+984183323+988526847+989972928
1010+986073352+979311583+973456582+969799780+966552923+961039680+952436900
1000+942657755+934637668+929108521+923682276+916392054+908929321+904248132
990+902489193+901379530+899782242+898598341+898194687+897132558+894195414
980+890435770+887906375+886816117+885276036+882044074+877850274+873736706
970+869730252+865698578+862364011+859991223+857162678+852455616+846871339
960+843077870+842343495+843445858+844592789+845410898+846807901+849628317
950+853712569+858011408+861531126+864098086+866379307+869420658+874110925
940+880821837+889298572+898368800+905714153+909639305+911435750+913913813
930+918071948+923115131+928632053+934830712+940829028+944247684+943766231
920+940927419+937564783+933654169+929689553+928303824+931009766+935511915
910+938175605+938031341+936809875+936713086+938432324+940128656+939093885
900+935544969+932391222+931017362+930143411+929013512+929665103+934497558
890+942408987+949339529+953198870+955744525+958309526+959621906+959419842
880+959781006+961285600+961569261+959211487+956288942+955879887+959186029
870+964330511+966971175+964179245+957833889+952448591+950572982+952116446
860+956461038+962374730+967992001+972847956+977745925+981656658+982258400
850+980215680+978913804+979407304+979664973+978659992+977696374+977360786
840+976994875+977952737+982084761+986833779+987426620+984853014+985233820
830+990685820+997026429+1000447341+1002106939+1003903977+1003924866+1000853962
820+999545677+1005120399+1014766437+1020376884+1019830687+1019407568+1023671038
810+1030409841+1034549639+1034312502+1033447038+1035779591+1039468735
801+1039745038+1035308997+1027867568+1019089368+1011386353+1007671454
793+1008750199+1012497144+1015306937+1014214661+1008673053+1000175785+990611819
783+981788103+975092028+971080827+970271382+972338789+973628856+970367519
773+965600995+966595235+975612826+987692122+995985070+997088621+992953867
763+988436170+986081007+984514400+981913199+979302800+979371520+983725132
753+991825749+1000284858+1003856740+1000184449+992852627+988620550+991868832
743+1000961848+1008271298+1005563338+994421846+985268418+985751414+994420422
733+1002024096+1002344313+999067487+996382553+993079616+988322231+984342898
723+983399396+986047004+992005618+1000157745+1007123477+1009017719+1006244126
713+1003142719+1000661808+997031058+993344822+991299906+991216410+993582492
703+998537432+1002245328+1000170088+995803361+996038717+1002398434+1010859146
693+1015827972+1015235962+1011362853+1007503038+1007871204+1013339702
684+1015886959+1005375219+985105935+969901139+968737889+978021991+988538834
674+994825025+996697785+995947684+991926395+983106062+974759408+975065976
664+982966961+992012265+996652328+995601949+993371586+990876610+984126353
654+974632116+969953954+970681089+968272874+961562318+958649861+961086384
644+960416930+954707973+949689002+945422091+939636106+933880683+933408309
634+940253278+947792802+948067562+941818757+934586514+928794238+925870209
624+928825275+936002092+939049852+933691852+924880242+918378932+916783127
614+917888814+914498108+903343857+888365871+877280814+875763581+881944318
604+891143737+900412113+904641223+900625394
##END=
