##TITLE=<SNM>
##JCAMP-DX=4.24
##DATA TYPE=INFRARED SPECTRUM
##DATE=29/4/2025
##SAMPLING PROCEDURE=Instrument type and / or accessory
##ORIGIN=Admin
##XUNITS=1/CM
##YUNITS=ABSORBANCE
##RESOLUTION=4
##FIRSTX=4497.3318
##LASTX=599.83466
##DELTAX=-1.4281778
##MAXY=2.2074435
##MINY=0.64602613
##XFACTOR=1
##YFACTOR=2.0558419e-09
##NPOINTS=2730
##FIRSTY=0.6631161
##XYDATA=(X++(Y..Y))
4497+322552081+323541896+324248161+324167271+323538736+322263516+320108567
4487+317849592+316691677+316929273+318234877+320311372+322348117+323116542
4477+322454317+321449977+320945589+321186404+322478903+324690562+326471939
4467+326265336+324074059+321460038+319944873+319825539+320388579+321049732
4457+322086892+323898537+325710558+325911798+324000794+321240794+319169895
4447+318371404+318767736+319987116+320957360+320211433+317539745+314798388
4437+314239203+316252493+319215559+321449687+322790721+323975541+325233482
4427+326126895+326237474+325598414+324703725+324078031+323689643+323028404
4417+321880144+320696686+320130514+320575380+322009800+323762270+324718598
4407+324311626+323034000+321606655+320285597+319463361+319784804+320862206
4397+321238475+320445637+319517403+319025192+318617437+318644082+320110248
4387+322822584+325196777+325920408+324844601+322780023+321103136+320698890
4377+320884907+320412441+319480408+319340692+320141300+320859742+321259437
4367+322002899+322963953+323376927+323241211+323015010+322679186+322123336
4357+321408721+320383738+319048937+318229369+318885389+320826052+322836443
4347+323750122+323132025+321473085+319798373+318823692+318625990+318928153
4337+319202918+318919774+318209450+317804421+318134968+318986255+320042956
4327+321125200+321954481+322079237+321123866+319458693+318391960+318896406
4317+320278900+320858988+319852096+318020620+316776394+317095923+318845930
4307+320855045+321953757+321838365+320903492+319891990+319700783+320644876
4297+321708332+321311305+319217386+317030197+316342980+317203922+318710533
4287+320092186+320890474+320964754+320707964+320677087+320906681+320950895
4277+320504087+319755434+319129566+318786436+318631383+318654954+318836768
4267+318870371+318475199+317869278+317504432+317453637+317394694+317121930
4257+316819274+316839453+317334650+318030217+318392772+318241169+318025549
4247+318252563+318883794+319768220+321225428+323374462+325318112+325833575
4237+324729964+322879178+321113806+319820958+319282301+319409579+319587218
4227+319485859+319365597+319221909+318630658+317780270+317497967+318058369
4217+319011682+320016892+320902448+321353750+321222587+320781432+320486169
4207+320645717+321168718+321721031+322165694+322402159+322094169+321331397
4197+320959274+321447223+322233276+322667183+322592410+321829986+320286757
4187+318651301+318041524+318930647+320685727+321937405+321604944+320054147
4177+318900523+319315729+320869512+322194687+322464436+321912587+321274049
4167+321050021+321063387+320758702+320009817+319213066+318741759+318858455
4157+319815594+321418723+322800521+323156784+322498532+321593405+321419419
4147+322310397+323396526+323416299+322175841+320589471+319352579+318291790
4137+317145182+316413172+316995724+319031948+321429450+322758249+322669328
4127+322216692+322380763+322625636+321769942+320022487+318741527+318426984
4117+318485201+318635326+319136786+319947048+320717387+321285066+321548176
4107+321293474+320591935+320059627+320277479+320961680+321175792+320635598
4097+320285945+321037468+322364005+322794142+321594941+319467739+317740666
4087+317274084+318029173+319386008+320777779+321904759+322369079+321677426
4077+320137618+319163778+319793850+321271730+321864169+320996414+319868883
4067+319780832+320573032+321039468+320390145+318918325+317514203+316971602
4057+317617823+319149253+320672680+321134478+320123788+318418692+317432762
4047+317955270+319557964+321126157+321776002+321379844+320509421+319968763
4037+320228945+321096555+321853934+321893336+321299998+320538791+319684170
4027+318518804+317253528+316552946+316825971+317841648+319055606+320124368
4017+321080696+322018005+322786575+323191808+323259825+323155886+323048293
4007+322964330+322732533+322420309+322562838+323315375+323814863+323181080
3997+321760751+320697353+320627045+321227255+321777770+321977067+322216402
3987+322877410+323553667+323429288+322269894+320598342+319161169+318639559
3977+319364611+320834547+321963150+322113971+321660407+321362158+321425218
3967+321533535+321667018+322295901+323472719+324318787+324067014+323073459
3957+322128670+321555366+321497120+322178422+323378029+324339024+324575287
3947+324440528+324763798+325919539+327244626+327649424+326832493+325430169
3937+324341257+324415160+325938674+327874611+328482880+327325284+325695192
3927+324943235+325434083+326640068+327696305+328172222+328200258+327859535
3917+326889464+325159608+323228861+322090574+322245221+323239965+324389965
3907+325970856+329047545+333717214+338169960+340536817+340536585+338393436
3897+334494338+330554736+328984398+330514204+332760915+332621953+330885486
3887+330725794+332559183+333587326+332870102+332693072+333486084+332949803
3878+330925989+330098418+331711752+334609410+337663078+340009322+340036169
3868+337852140+335879730+335321967+334948858+333343758+330998239+329520069
3858+330412874+334880696+342811303+349664799+349008634+342513837+335761150
3848+331496191+330260575+331630746+334557629+337823757+340960982+344039961
3838+346347122+346618582+344876114+342273429+339542596+336852816+334541596
3828+332890890+331727495+331555568+334171416+339889843+344578937+344701664
3818+342676632+340913985+338164045+333640238+329507776+328385407+331203972
3808+336044062+339145713+339903121+341460441+344831465+346937561+346053077
3798+344061445+341897972+338962333+335879005+334267353+334563630+335842417
3788+337285911+338738277+340053594+341255810+343153245+346375419+350078266
3778+353015789+355352841+358027950+361835229+367479086+374558871+380621819
3768+383553457+383876350+383155675+382650968+383554123+386294785+389634902
3758+392087434+394312487+398483017+405983371+415532270+422483008+423830710
3748+423508687+426793746+433977238+439171678+438441552+435926164+437213909
3738+444605250+455839908+465265559+469235458+469068489+468029154+468396870
3728+470676343+473529729+475234275+475689346+475406608+473579974+469421128
3718+464219991+460649729+460963025+465499734+471238688+473446288+471473588
3708+468352685+466049931+465245554+466333075+468803697+471035477+471883285
3698+471776447+472032482+473779908+477466518+482864546+488612023+491620724
3688+489609318+484278235+478853506+475608050+475878640+479632311+485740053
3678+493307468+500332543+502431854+499021140+494921266+492655825+490531058
3668+487400703+484647198+482958221+481389623+479435942+478187541+478926249
3658+481210129+482911079+482956018+483223564+486491663+493311063+499193473
3648+498133612+491193660+483447881+477723308+474409922+472941523+472666584
3638+473626217+476399351+480767611+485607962+490530188+495682849+498806419
3628+496814555+492007778+488793460+488527480+490251857+492495205+494172671
3618+495024132+495474449+495852109+496242932+497112311+499566205+503858881
3608+507528443+507392119+504190501+501680071+501765715+503328544+505186346
3598+507810891+511081571+512755152+511325168+508950425+509177671+512883764
3588+517002135+517561755+514587498+511483005+510773841+512210435+513582607
3578+513171547+511283709+509218956+508026772+508753158+512451539+518867069
3568+525265204+527818601+525644314+521513186+518177446+516434804+515426260
3558+513875318+511802448+510774885+511888035+514008105+515200580+515495785
3548+516463971+518511617+520113180+519791708+517634527+514846346+512803918
3538+511943063+511478772+510681122+509818470+509327505+508954774+508416029
3528+508094673+508498833+509399524+509787389+508864954+507053483+505467170
3518+504551403+503912286+503038848+501663255+500017623+498916708+498948194
3508+499704152+500374988+500642708+500592840+500402647+500200799+499885879
3498+499364415+499050654+499623030+501148053+502823605+503834237+504235555
3488+504500028+504547866+504043275+503214139+502423794+501433748+499999299
3478+498599294+497806515+497390932+496565100+495140045+493958066+493692956
3468+493744679+493168534+492087392+491252573+491080646+491727069+493133163
3458+494647632+495193740+493987523+491299425+488588655+487268380+487243041
3448+487379249+487306071+487537724+488062667+488216155+487680542+486527498
3438+484756820+482759331+481620029+481856552+482208032+481070557+478989395
3428+477918371+478512115+479915802+481468687+483111448+484406760+484423866
3418+483021629+481353933+480604817+480732327+480836875+480536365+480207586
3408+480052533+479971469+480130987+480630823+480888279+480417639+479867500
3398+480150325+481001380+481357992+480623981+478828456+476414398+474541752
3388+474422940+475711033+476605258+476135719+475313686+475500081+476642862
3378+477688053+478147879+478383155+478711731+479330467+480712496+482973356
3368+485236651+486745060+487996622+489644515+491017557+490917938+489628511
3358+489087737+490629575+493262529+494960464+495096730+494532530+493933423
3348+493338606+492853034+492705345+493001535+493741954+494714431+495490569
3338+495738689+495490395+495039035+494461266+493337852+491641888+490643376
3328+491427168+492810183+492547740+490341909+487732149+485850719+484968061
3318+485059273+485516605+485455778+485151586+485746200+487275107+488486484
3308+488654005+488269270+487906744+487557555+487185519+487009358+487056037
3298+487062415+487014055+487364926+488389416+489615407+490274239+490054416
3288+489216350+488490195+488863855+490640419+492700300+493695102+493964967
3278+494947649+496746885+497789409+497097698+495571806+494556768+494308358
3268+494392031+494592371+494702254+494191864+492884868+491412787+490368408
3258+489560784+488621997+487857746+487933475+488969099+490403721+491584773
3248+492081188+491710080+490917010+490639491+490952323+490728673+489509003
3238+488411393+488249497+488162461+487056443+485237289+483827571+483477918
3228+483995497+484638152+484734321+484376405+484258462+484659549+485024916
3218+484744701+483977290+483375834+483268619+483467074+483710469+483879671
3208+483650773+482475520+480453851+478694973+478135557+478311195+478073164
3198+477219790+476299268+475461375+474692341+474367882+474656506+475131872
3188+475362191+475147992+474230920+472657915+471178673+470372730+469753879
3178+468515277+466763473+465309686+464720001+465138571+466310750+467207759
3168+466522572+464232748+461818487+460631290+460858767+461723681+462006158
3158+460989322+459343864+458412383+458592312+459128679+459222355+458567349
3148+457144034+455379937+454199698+454217499+455108361+455956923+455998528
3138+455027674+453481314+452179101+451696342+451862732+451858760+450897126
3128+448989196+447090572+446265669+446601261+447215937+447340867+447031311
3118+446688442+446311738+445694539+445133789+445170175+445590542+445456479
3108+444260787+442464856+440891358+440079385+440006236+440098288+439914880
3098+439902297+440741726+441967716+442277243+441354344+440146648+439287910
3088+438612001+438202825+438500929+439244769+439405592+438339439+436444382
3078+434737024+433987734+434029918+434046792+433716013+433581573+434101936
3068+434892947+435237614+434947512+434367742+433798990+433293820+432890617
3058+432649686+432509825+432399391+432316791+432107115+431556425+430897940
3048+430723288+431164413+431595102+431362840+430477660+429390053+428404442
3038+427542486+426788035+426257582+426145583+426489090+426906644+426842889
3028+426329745+426070463+426379497+426576010+425955709+424827686+423962366
3018+423495234+422988324+422250051+421529608+421054097+420874950+421090222
3008+421729224+422402669+422498316+421838527+420877792+420133430+419535018
2998+418569210+417166798+416025409+415786073+416303856+416942365+417185644
2988+416884843+416334241+416039442+416055910+415836115+415067689+414221505
2978+413885420+413953322+413794267+413064605+412151505+411780455+412239035
2968+413063097+413467344+412993167+411785094+410444698+409716689+410058456
2958+411216371+412328999+412655893+412109205+411053866+409958489+409278201
2948+409242598+409671054+410164251+410371578+410033812+409124742+408092453
2938+407566552+407639006+407720794+407270304+406416929+405608465+404936759
2928+404243860+403618514+403261032+403091685+402967915+402976526+403112995
2918+403080726+402769053+402475095+402376578+402260548+401920492+401440081
2908+401060043+400971296+401118463+401144064+400771738+400229863+399975538
2898+400037147+399960461+399451261+398812549+398587855+398902340+399370342
2888+399621390+399637424+399495591+399154867+398679704+398330253+398204918
2878+398035860+397555044+396899226+396457086+396392867+396476134+396366512
2868+395955104+395425115+395106861+395289487+395985141+396778152+397035492
2858+396420874+395210974+394034765+393322672+393072928+393056750+393063535
2848+392991604+392888534+392847393+392816980+392725160+392749948+393114823
2838+393675979+394085183+394186252+393884756+393012449+391770513+390832393
2828+390544813+390484537+390166457+389722925+389533370+389602170+389638208
2818+389533051+389481240+389632989+389800596+389618405+388973721+388178767
2808+387697226+387729987+388053547+388293782+388289926+388018263+387344267
2798+386282115+385374031+385265337+385894481+386538354+386688218+386495126
2788+386253905+385879666+385185375+384347309+383709090+383337576+383054722
2778+382680367+382107208+381429762+380999914+381017426+381151083+380916821
2768+380334297+379882328+379867861+380131058+380373815+380483262+380427944
2758+380142597+379721447+379466977+379516526+379576976+379206216+378297958
2748+377168166+376203198+375589594+375370959+375483365+375682545+375738559
2738+375697129+375682255+375616413+375391515+375070130+374773359+374617291
2728+374703661+374924441+374943054+374560204+373896907+373140687+372385772
2718+371764891+371455190+371417035+371345742+371081472+370862258+370914735
2708+371023777+370862809+370529188+370349955+370334646+370163705+369671784
2698+369093870+368780226+368825397+369074474+369362662+369599708+369704575
2688+369615132+369372636+369123762+368994454+368965635+368926378+368814582
2678+368592468+368181669+367581286+366940487+366410063+366047885+365901616
2668+365995060+366194038+366259329+366115931+365969459+366039506+366252893
2658+366377272+366333261+366149534+365778136+365232520+364745818+364516919
2648+364444350+364311418+364096263+363947471+363931467+363916159+363737245
2638+363429834+363195746+363128511+363071627+362841714+362519546+362371306
2628+362496207+362685414+362654740+362364493+362096831+362173517+362553613
2618+362835771+362750213+362458835+362275659+362324628+362556019+362837395
2608+362961339+362817534+362568718+362414708+362253711+361859003+361315098
2598+360974548+361020096+361299935+361545069+361607519+361562667+361622914
2588+361857089+362068940+362095294+362056067+362105268+362131332+361962971
2578+361725549+361715373+361988166+362308044+362467707+362430538+362178562
2568+361685452+361081416+360663803+360673516+361094723+361643238+361942096
2558+361792348+361300427+360743910+360369845+360263586+360304495+360283359
2548+360121406+359955944+359991489+360284838+360697319+361055873+361303849
2538+361413354+361232990+360636782+359822316+359194737+358926757+358883354
2528+358966854+359244605+359670712+359974963+359990909+359881171+359870241
2518+359932488+359920717+359850381+359843683+359905641+360005173+360284606
2508+360880032+361578295+361965175+361934935+361765530+361663272+361520715
2498+361211738+360885801+360808216+361015631+361270565+361355166+361301413
2488+361276624+361307908+361220262+360873015+360394315+360114331+360252511
2478+360697928+361111278+361230526+361066948+360815784+360631505+360526087
2468+360451518+360426874+360548006+360852923+361210550+361414833+361394770
2458+361270217+361189704+361169032+361123658+361001598+360814363+360588480
2448+360392227+360338504+360438036+360547165+360551833+360476423+360367410
2438+360248481+360205369+360335836+360618922+360946512+361232613+361418892
2428+361450233+361318113+361121861+361065441+361315591+361804381+362246898
2418+362421145+362368958+362288995+362322859+362483508+362702201+362883377
2408+362990390+363115088+363347465+363563694+363548878+363386692+363462045
2398+363953850+364599636+365135365+365732733+366832778+368781704+371861205
2388+376568363+383617154+393576157+406573027+422407829+440867265+461747223
2378+484587676+508673254+533384120+558178311+582077030+603699930+622363068
2368+638856675+654125857+666922763+673969409+673512424+667284594+657614446
2358+644788315+628236839+607668872+583108015+557076004+535348499+523109008
2348+522435563+532527672+549228809+565519872+576693123+583444041+587734688
2338+589667465+589202130+588339768+589611915+592986679+595872333+596243557
2328+594398165+591325216+586953970+580669197+572851343+564895714+557421251
2318+549636448+540979889+532139400+523899526+516017308+507725478+498824278
2308+489810586+481069514+472473985+463962883+455911955+448646240+442085108
2298+436061532+430604011+425768155+421442949+417413788+413550090+409923929
2288+406721209+404029226+401778195+399866293+398227184+396799056+395544305
2278+394483023+393629271+392888534+392085839+391179611+390400922+390007141
2268+389926483+389864439+389703731+389508784+389223030+388722788+388088455
2258+387486071+386915492+386374950+386057218+386079890+386216592+386122452
2248+385683588+385072796+384600619+384493056+384710415+385037918+385331006
2238+385542393+385619832+385556570+385432829+385297113+385139132+384997386
2228+384895853+384674551+384130906+383354972+382674568+382239879+381932729
2218+381678259+381501809+381282594+380825784+380183854+379615362+379298297
2208+379286236+379561465+379958405+380233953+380297158+380203598+380003286
2198+379801931+379830431+380228705+380873535+381580322+382317870+383063797
2188+383649771+383979738+384236904+384628713+385086191+385444716+385726236
2178+385984881+386086936+385920488+385652681+385563992+385753779+386102911
2168+386426847+386668850+386959938+387371056+387712331+387849177+388026990
2158+388482525+388966966+389090185+388901877+388740387+388753405+388889816
2148+389133414+389485039+389843506+390086436+390233285+390420202+390714537
2138+391057609+391417816+391859869+392396584+392922688+393371438+393812100
2128+394338117+394970769+395697097+396503155+397356559+398232374+399160608
2118+400180720+401239045+402184123+402880589+403311625+403574996+403771741
2108+403893395+403886379+403827784+403865533+403944915+403824624+403454965
2098+403124824+403122679+403412752+403730281+403891800+403926708+403932709
2088+403886408+403672412+403309335+403055299+403181331+403651189+404141254
2078+404410859+404532773+404698264+404952879+405248026+405599709+406029150
2068+406431774+406662151+406739561+406871972+407259403+407910291+408641316
2058+409217490+409530497+409701583+409991569+410563511+411362437+412238745
2048+413074404+413775451+414325386+414854534+415470806+416073334+416544554
2038+417012528+417683595+418555003+419497792+420474009+421493831+422494373
2028+423433276+424406536+425498348+426595117+427599805+428775869+430496854
2018+432610140+434466202+435698107+436571631+437529873+438827591+440535065
2008+442498777+444396966+446079042+447665384+449214992+450591252+451708084
1998+452676995+453762544+455283739+457310308+459391963+460921160+461802454
1988+462444906+463259865+464445034+466004238+467774365+469566759+471282728
1978+472866402+474354575+475969648+477914892+480176303+482653507+485157587
1968+487234633+488539889+489456004+490755230+492711143+495033642+497483883
1958+500068128+502716738+505218238+507513367+509784780+512214900+514786853
1948+517397945+520177545+523473158+527134892+530034638+531207919+531320585
1938+531902123+533640068+536177925+538954161+541590478+543852961+545811252
1928+547910969+550632873+554012159+557507765+560589933+563427518+566361417
1918+568870861+570088037+570273591+570617968+571865471+573848811+575884339
1908+577354101+578233859+579124518+580526437+582191784+583536529+584586416
1898+585933596+587653566+589000688+589644213+590352101+591709313+593088269
1888+593712021+593888587+594234123+594665189+594813632+594686933+594586908
1878+594782899+595317527+595964647+596708312+598251252+601217159+604528312
1868+605666106+603782559+600790211+598505113+597028277+595764422+594535185
1858+593561722+593093836+593169159+593418382+593313080+592745516+592178533
1848+592361246+593763106+595527493+595328312+592155629+588001480+585005131
1838+583488690+582760217+582445239+582930173+584577023+586476922+586669898
1828+584652578+582019451+579708549+577046429+573724896+570781082+569229966
1818+568900898+568817050+568481951+568354499+568732217+568815369+567682909
1808+565766252+564389790+564404576+565750944+567646263+569029394+569400734
1798+569225385+569362753+570555923+573012079+575390185+575341362+572878538
1788+570603298+570302004+571684092+573703441+575833775+577701783+578815513
1778+579539637+581345020+585544165+591800351+597288285+598877845+596974640
1768+594025259+591725955+591412659+593880643+597794151+600332356+600870173
1758+601052364+601367574+601536080+602867256+607091799+613347985+617968859
1748+618738503+617316463+616282753+616791751+618726963+621241916+623167213
1738+624432633+626717789+631042009+634812525+634383837+631198281+628493077
1728+627128443+626789459+627369142+628878508+631424657+635638472+642194502
1718+649949384+654983754+654864652+651791239+648577734+646524868+646509966
1708+649120189+653250274+656316264+657982133+661199698+667586235+673659882
1698+675352598+673435999+669429656+664847052+662538992+663898291+667536541
1688+671792454+677547122+685701178+691721246+690169434+684276471+679553309
1678+678404440+680978364+685315631+688687611+690982915+693579279+695286376
1668+693625320+690065814+688257474+689273150+691284788+692534262+693780663
1658+696792843+702750286+712165355+722177386+724635223+720436019+718999657
1648+722455543+725562471+722611756+715985158+710971141+709585052+712226704
1638+718920217+727543318+732069328+729290773+724575323+723216778+725857850
1628+730567616+735938187+742407702+749824760+755779768+759117769+762314691
1618+767753511+774172230+778305910+780251617+782200051+784439514+786039221
1608+786857282+787452795+788098523+788733465+789241246+789636360+790228161
1598+791391063+792899617+794083336+795009192+796630412+799341183+802467420
1588+805410017+808029633+809729888+809649636+808409845+808457277+812150556
1578+820052606+829263739+833496284+831480994+829187778+830590450+834115513
1568+835904369+836027357+837752023+842726205+850630922+860700010+869259617
1558+868559035+860943434+856025673+855649462+856939468+857652344+857656229
1548+857835694+859229263+862440101+867004208+871729341+874705627+872587238
1538+865551262+858919214+855883898+855511978+855023913+854132442+855355127
1528+859610808+864946820+869568043+873643563+876198293+874665037+870574847
1518+869061132+872084967+877286974+881709306+884906053+888514905+893963409
1508+900164102+903110178+901383482+898994126+898060209+898098190+899574968
1498+903664289+908723071+910866278+910072802+909964717+911948348+913170917
1488+910946994+907701770+907220953+909569661+912024541+912935263+914033801
1478+918570075+927607773+938416178+945780411+945758840+939671277+932509588
1468+928016861+927191204+928810627+930440197+931201374+932699955+936203273
1458+939332177+936572815+928858291+923963550+925188902+930079352+933638684
1448+931834635+924902395+916963177+911880620+910404828+911265335+913909480
1438+918774474+924580633+928001495+928406177+927883321+926793017+923996312
1428+920172913+917911300+918751164+921809442+925065219+927199206+927489598
1418+924908542+919344473+913438578+910582554+911764301+915035561+917695767
1408+919081682+920298742+921874154+923235830+923932122+924387251+925590743
1398+927986593+930266994+930614966+929518109+929365143+930984276+932167009
1388+930271575+925946600+923001568+923920061+927688605+932186840+936690758
1378+941483618+945764581+947461473+946167871+944907901+946702383+951007062
1368+955209918+958431542+962318840+967923847+972993067+973638795+969693453
1358+965579604+964744727+966268764+967292384+967019793+967187604+969486386
1348+973895440+979127831+983933912+987883545+991262252+994979710+999738475
1338+1004691491+1008216206+1010476370+1012891007+1015246732+1016721538
1330+1017989104+1019964558+1022636768+1025683101+1029620325+1035243308
1321+1041752775+1046489505+1047130826+1044248012+1041322289+1042097789
1312+1048192427+1057382569+1064761705+1067641967+1067814532+1068311817
1304+1070154600+1071938470+1072325814+1072515079+1073613327+1073741823
1295+1070574880+1064361836+1057185766+1051341278+1047892409+1045943512
1287+1044149321+1041890896+1038957983+1035359047+1032680343+1033300905
1278+1037088063+1041149028+1042449298+1039803994+1034351721+1028383376
1270+1023443348+1019471101+1016233647+1014208093+1013093493+1011948625
1261+1010568915+1008718825+1005346845+1000271015+995230672+991675805+988980981
1251+985848829+982117106+978201220+973493715+966803449+958172114+948938309
1241+940133829+931667927+922909371+913824647+905407279+898750180+893685484
1231+889078235+884492384+880160451+875387480+868941450+861378848+855195550
1221+852210276+851626593+850975008+848743084+845593188+843093196+842134055
1211+842811502+844774605+847320580+850243404+854032069+858310828+861278011
1201+861878336+861690811+863281473+867253894+871966328+875875081+878905468
1191+881192538+882327606+882881137+884886512+889533886+895487097+900379461
1181+903155117+904376874+905280522+907146152+910658283+915544500+921258230
1171+927539524+934052412+940402244+946618188+952633211+958240827+964096970
1161+970576806+976061087+978762637+979522249+980065342+979902751+977698137
1151+974489560+973450458+976485194+982039405+986863810+989515029+990660709
1141+990371012+988868489+988008678+988825463+990748035+993612525+997872497
1131+1002548690+1005253256+1004903603+1003047947+1002030299+1002368239
1123+1002620245+1002026008+1002000378+1003749109+1006659524+1009612848
1114+1012147400+1014859620+1019262236+1024367639+1026581878+1025020673
1105+1021542927+1018834766+1019204251+1022661586+1027093312+1030612228
1097+1032531668+1032363394+1030508781+1029182302+1028767473+1027019902
1088+1023625307+1020067193+1016754706+1014799083+1015395871+1016785670
1080+1016375248+1014572939+1013262811+1012629608+1012916289+1015578873
1071+1019584289+1021443656+1019049661+1011836017+1001400111+993385105+993321321
1061+1000001846+1005861062+1005327362+1000035245+994201891+990048960+987275160
1051+984424818+981527276+979616070+978330644+976905474+976945948+980234892
1041+985226991+989460870+992830995+995635064+995972888+992765703+988709492
1031+986220517+984136745+981442733+980344833+982392190+985318841+986117998
1021+984573145+982856887+982807135+985019519+988747183+992002264+993036380
1011+990644705+984541137+976906865+971427571+969259083+967426853+961978581
1001+952776957+943662428+937287372+932418551+927327934+922733849+919368189
991+916215626+912824800+909651769+905481732+898776332+891436801+887050130
981+886032888+885086853+881363537+876213254+873275586+873762723+875442161
971+875671030+873628428+869513420+863974749+858576229+854679420+851859347
961+848653554+844812180+841964505+841826732+844290715+847400020+849441520
951+850644026+852658331+856855099+863066636+869720197+875112860+878915094
941+882050783+885340772+889131698+893636196+898636239+903497986+908464919
931+914476231+921578485+928849071+935566532+941376055+945765741+948326212
921+948850170+947092568+943482383+939205131+935156226+932254103+931522267
911+932014217+931177194+928261851+924725655+921677756+919348126+918454219
901+919916385+923222899+926740018+929786873+933447448+938258631+941850725
891+941132225+936768748+933431386+935247032+941789376+948702133+952625731
881+954391335+956616592+960199466+964226974+967583994+969447594+969423704
871+967176181+963423177+961547516+965024160+972900986+979359077+979161231
861+973072623+966079846+962644314+964368806+969300078+972777940+971551602
851+968536814+969549417+976762713+987366661+995169323+995650836+990239965
841+985067531+984568970+987044493+987318301+983206308+977735248+974505100
831+973477363+972557711+971626114+973756854+980993808+989255833+992963550
821+993872417+998770347+1009801997+1020989164+1024937754+1020904737+1013629744
811+1007425050+1004026744+1003474489+1006844846+1014626633+1023449495
803+1029073753+1029636098+1025489661+1018727377+1012330170+1008690180
794+1008855324+1011540522+1013012661+1009059433+999634449+991408027+989631580
784+992356556+994782443+994887629+992815687+989103331+984613967+980312593
774+976999062+974117640+971014713+968682705+968916156+972438435+977225322
764+978987274+975658551+971130047+971632666+979051290+988407271+992431126
754+990179892+986817421+985206928+983915240+982114323+981437166+983475941
744+989037343+998577603+1010788680+1021511035+1026525169+1024760550+1019032613
734+1014493382+1013676713+1013825272+1009730327+1000741046+992784606+992518684
724+1001629618+1015088431+1023184616+1019541031+1009072422+1002136993
716+1004212762+1012467712+1016568224+1007640641+990958175+979638684+978897628
706+984094996+988723873+990249822+988552583+984707556+983302216+989004987
696+999006116+1005498072+1008144072+1014238246+1023572656+1028872543+1027236188
686+1018534169+1004852228+993163368+989299554+992930730+997668852+996550541
676+989863290+982459569+974469961+960391920+939526197+924774827+929855122
666+945747765+954509626+953829860+952475316+957205958+965329048+966733055
656+958129727+948746434+947179604+953935684+966160215+980285804+989414713
646+988882753+980717565+971248801+964908885+959610216+955468302+957033798
636+964649399+976270763+989172797+997178641+994000449+977655808+956070251
626+942053559+940854880+944293950+940945337+932051386+925706424+924131650
616+925666356+927417928+926581717+922659743+920303207+925319196+936162103
606+945354275+950034933+947820578+935904299+922523883
##END=
