##TITLE=<SNM>
##JCAMP-DX=4.24
##DATA TYPE=INFRARED SPECTRUM
##DATE=29/4/2025
##SAMPLING PROCEDURE=Instrument type and / or accessory
##ORIGIN=Admin
##XUNITS=1/CM
##YUNITS=ABSORBANCE
##RESOLUTION=4
##FIRSTX=4497.3318
##LASTX=599.83466
##DELTAX=-1.4281778
##MAXY=2.1138632
##MINY=0.38101619
##XFACTOR=1
##YFACTOR=1.9686885e-09
##NPOINTS=2730
##FIRSTY=0.39281651
##XYDATA=(X++(Y..Y))
4497+199532076+199840411+200811947+202019246+203354628+204619634+205124264
4487+204415390+203101564+202333317+202389571+202354708+201452761+200156571
4477+199507568+199822532+200562031+201008229+200753590+199948633+199259968
4467+199251279+199822169+200496983+200998344+201238253+201064739+200386671
4457+199458005+198836433+198881484+199320506+199646597+199868810+200358438
4447+201131665+201879581+202478053+202947155+203144253+202834209+201965990
4437+200913661+200367067+200597954+200949039+200561971+199446470+198287705
4427+197481083+196893692+196377435+196020190+195900144+196021083+196520430
4417+197556531+198979170+200434387+201641231+202291188+202045329+200891862
4407+199206894+197521229+196461937+196492334+197366563+198240655+198615385
4397+198840444+199464969+200414238+201101465+201160216+200714336+200016573
4387+199173605+198263680+197507136+197154477+197076092+196699863+195725374
4377+194598807+193853662+193538077+193748936+194907929+196952564+199017455
4367+200348220+200891892+200827282+200134363+198820371+197337664+196531118
4357+196976180+198333755+199548622+199752261+198860381+197447189+196329251
4347+196195217+197252527+198948743+200222876+200416478+199831101+199090375
4337+198319767+197406982+196687752+196741463+197573153+198471739+198820083
4327+198800374+199064338+199766673+200227781+199774832+198727831+198124288
4317+198580840+199856336+201287089+202230665+202347002+201871967+201389165
4307+201126110+200837228+200387549+199978486+199823320+199988204+200457957
4297+201014496+201209248+200879464+200604343+201165666+202560814+203997501
4287+204797431+204830962+204260239+203417058+202691986+202133357+201457802
4277+200692992+200330312+200657508+201449718+202380458+203264874+203858684
4267+203875396+203380348+202875369+202757125+202864879+202840097+202733767
4257+202849196+203223820+203682430+204112914+204336656+204130171+203749159
4247+203874957+204681640+205563786+206009241+206135720+206219828+206310717
4237+206367470+206265076+205742507+204759919+203859077+203798979+204660370
4227+205560107+205647802+205195338+205037462+205294856+205519855+205646394
4217+205865625+206008923+205865534+205620917+205439123+205221860+205076655
4207+205379660+206169690+206969243+207337297+207260667+206928203+206434972
4197+205887924+205547436+205586932+205854378+206114179+206387862+206833438
4187+207462232+208135305+208674132+208934206+208910197+208787003+208820655
4177+209151832+209679806+210069644+210007744+209554068+209099379+208902068
4167+208877302+208899328+209047379+209446209+210036234+210556426+210734103
4157+210560423+210333063+210319696+210518717+210829928+211252752+211789066
4147+212237867+212241970+211650295+210804284+210223886+210000735+209910239
4137+210024910+210593469+211412429+211969589+212186609+212464667+212952055
4127+213210751+212819021+212085714+211793926+212210301+212754427+212801779
4117+212424763+212164841+212413818+213125221+213900264+214320061+214276296
4107+213978044+213696611+213635952+213993046+214885713+216057543+216855808
4097+216865406+216451907+216266813+216474508+216889748+217483346+218236923
4087+218824632+218909905+218542638+218060639+217851460+218208948+219110758
4077+220098463+220539982+220123183+219156688+218364826+218262022+218686057
4067+219060606+219077515+218893132+218713654+218551948+218388789+218218303
4057+217992230+217875288+218373742+219728638+221330225+222180792+221956006
4047+221297284+221045234+221489418+222348614+223128184+223346143+222728173
4037+221467740+220163148+219415005+219451443+220020244+220604320+220863000
4027+220914410+221078719+221444185+221833024+222088238+222304895+222735591
4017+223296127+223324617+222341772+220939600+220298287+220882408+222081986
4007+223004036+223189145+222660869+221827574+221434042+222067105+223429358
3997+224481202+224556833+224019564+223667859+223929477+224673730+225418815
3987+225762617+225753474+225725423+225862484+226106011+226300643+226326741
3977+226277345+226393576+226641630+226674464+226408684+226238682+226437355
3967+226704847+226632184+226387021+226516377+227124189+227728126+227993119
3957+228055292+228075834+228113589+228454712+229412413+230658828+231290014
3947+230931360+230438235+230943350+232289829+232971424+232019688+230222092
3937+228992874+229113131+230731628+233370406+235541808+235718107+234325518
3927+233338616+233786569+234806820+235240271+235330903+236108460+237693304
3917+238865861+238299133+236043926+233443538+231848233+231834321+233500427
3907+237075591+242646601+249046818+253697549+254681499+252203442+247513383
3897+242181163+238141409+236958695+238674136+241144865+241710381+240864204
3887+241380945+243827726+245704782+245771359+245732591+245750635+243877182
3878+240939743+240415236+243591661+248458564+252797146+255418303+255058378
3868+252434466+250745350+251414033+251960157+249576926+245325192+242421799
3858+243282737+249468355+261032017+271418945+270312800+260481291+250788706
3848+245080984+243693632+245651102+249569554+254432022+259877612+264939873
3838+267131939+265241788+261550378+258471428+256049988+253580046+251517139
3828+250586309+250613845+251973191+256472949+263983716+269239988+268287495
3818+264399410+260922932+257215657+252681899+249118316+248440308+251244137
3808+256116172+260063720+262372956+265399498+269299966+270352552+267394102
3798+263522911+260138805+256410156+252714840+250734799+250907540+252170941
3788+253827858+256025374+258441394+260388403+262137224+264101491+265226408
3778+264362110+262413344+261323094+262459273+266155861+271178945+275300097
3768+277832559+279739937+281278913+282581733+285211050+290290175+296065565
3758+299826792+302165820+306350249+314948421+327565442+338770345+342524518
3748+341529941+342263203+346116410+348676212+347615360+346726235+349882239
3738+358191817+369505351+378551340+381320716+379158835+376083911+374980551
3728+376915995+381412544+386741448+391085132+393685322+394773998+395425091
3718+397278698+401739369+409884728+422214305+436226247+445548871+446708242
3708+443217806+440530086+442241062+448527758+455148008+457295144+456204894
3698+456850385+461354049+468212907+475743869+483855046+491366541+493826189
3688+489201814+482490523+478676827+478414392+480179622+482841577+486873898
3678+493394509+501086784+505609339+506611183+508550987+512057166+512165616
3668+506764441+500475747+497238875+496918734+497549117+498889661+502499568
3658+508238898+513060221+515395494+518496031+526078917+537393784+545834943
3648+545021600+537356362+529230924+524144079+522807500+524365944+527217488
3638+530623332+534899863+539272732+542039806+543990449+548064854+553988416
3628+556256537+553247918+550892723+553177435+559352351+566426292+570688713
3618+570287068+567685484+566684549+568991847+573937484+579667035+583835600
3608+584078174+580476200+576142205+573802936+574125257+576832082+581264232
3598+585666833+587771219+587026179+585602526+586330369+590355242+596725562
3588+602370884+603561228+600101916+595701071+593590812+594109385+595539578
3578+596298787+595953213+594923697+594097516+594499586+597040193+601919949
3568+607444651+610333920+609624364+608525636+610020136+613671218+616860768
3558+617364808+615121272+611598683+608708869+608464841+611832355+617355301
3548+621947371+624320974+625993862+627268434+626549856+624220154+622132723
3538+620491928+618639925+617214274+617477981+619655212+622720568+624944182
3528+624876908+622726563+620879041+622075319+625678383+627616491+625839513
3518+622925296+621792175+622098511+622407208+623140985+625252032+627486969
3508+627900483+627516519+628375639+628976685+626645711+623584291+624286762
3498+628265494+630622203+629720332+629180990+630912371+632088304+630473062
3488+628266342+628591207+631405754+634671600+637188955+638727053+639118526
3478+638155739+635856797+632833585+630250531+628945561+628501589+627833572
3468+626790129+626671749+628848858+632551350+634471292+632204080+627345760
3458+623365575+622123579+623370358+625916112+628359896+629818548+630416142
3448+630638916+630755419+630859933+630754753+629915917+628254837+626616646
3438+625635693+625350490+626020263+627505559+628562565+628329317+627648644
3428+627721732+628161586+627827275+626830578+626274947+626648073+627562599
3418+628358685+628448182+627833391+627243547+627531536+629223255+631894293
3408+634005037+634641203+634863249+635609016+635549008+633211071+629928936
3398+628278452+628960881+630698863+632086366+632724591+633177403+633795343
3388+633587224+631687566+629239483+628179449+628765598+629898296+631362035
3378+633807211+636741956+638586995+638918399+638961392+639603492+640660135
3368+642030139+643774903+645011630+644332774+641889112+639689598+638953156
3358+638855969+638594382+638777856+639974982+641749053+643703450+646108299
3348+648856722+650691831+650372294+648138568+645067883+641997259+639897656
3338+640113042+642931646+646662900+649369179+650623043+650581746+648988424
3328+646331011+644184662+642892529+641021090+638385718+636983924+637582184
3318+638371851+638233973+638778704+641564368+645429746+648039625+648499946
3308+647266186+645440100+644333864+644476647+645461112+646510429+646639709
3298+645128981+642702031+641277712+641902554+643689766+645059769+645663661
3288+646602893+648672340+651142524+652963402+654485817+656877343+660271440
3278+663515669+665402913+665346599+663602925+661853983+662249453+664600893
3268+665769680+663343699+659025388+656569494+657493709+660034074+661468142
3258+660925954+659635819+658409265+656296644+652857556+650163933+650619531
3248+653887738+657217044+658322614+657567583+657170721+658168083+659219520
3238+659118215+658952785+660150759+662052233+662916319+661941421+659812693
3228+657922906+656891271+656180504+655866962+657469245+661558971+665569372
3218+665729231+661235862+655123981+651553495+652665907+656868139+660067862
3208+659558251+656493379+653601869+651700819+649913911+648060395+646845406
3198+646269247+645570046+644491604+643251122+641858351+640731466+640721536
3188+642028564+643748078+644388906+643119117+640796500+639265487+639205903
3178+639273601+637715763+634148365+629644944+625912600+624454190+625579440
3168+627984954+629852518+630374845+629950674+629234942+628491840+627783980
3158+627275761+627148722+627719673+628874835+629262554+627512098+624137560
3148+621125309+619787519+619513639+618830545+617528361+616791314+617045817
3138+616964010+615277619+612484205+610052350+608974755+609342431+610402163
3128+611014592+610639771+609806991+609283513+609212727+609532445+610703836
3118+612978617+615013186+614986542+613314442+611798749+610605317+608607927
3108+605758381+602915192+600409948+598503690+597848874+598343286+598988777
3098+599331687+599726853+600038154+599566086+598246644+596578479+594869139
3088+593309242+592201189+592010327+593221017+595632465+597820717+598078853
3078+596255007+593896361+592336101+591306524+589861011+588166022+587260821
3068+587185433+586871588+586041654+585563106+585865869+586493497+586941587
3058+586896596+586170994+585086254+584384328+584402373+584656815+584211450
3048+582449308+579739335+577298821+576223043+576571221+577313354+577536733
3038+577700104+578723685+580001225+579796254+577614179+574643225+572043760
3028+570334299+569942765+570855415+572016148+572202166+571209527+569507755
3018+567459926+565480944+564224356+564093804+564870755+565836994+566058374
3008+564913929+562697097+560434729+559118557+559077200+559641792+559623142
2998+558634741+557565019+557246512+557384511+557376276+557357323+557773986
2988+558429044+558408577+557012718+554644322+552498942+551340207+550929902
2978+550679154+550389470+550156706+549914919+549514848+548874261+547837964
2968+546442467+545293299+545011851+545302988+545221968+544519194+543879092
2958+543496158+542552021+540724058+539059102+538560088+538809141+538681496
2948+537859797+537032829+536862979+537098650+536761008+535303506+533164363
2938+530976233+529213546+528721132+530067762+532207813+533316774+533019824
2928+532320926+531721939+530939841+530007451+529294747+528764790+528109489
2918+527235896+526110586+524572549+522729387+521096706+520038367+519573686
2908+519810447+520811685+521932454+522099277+521011146+519422668+518093598
2898+517080553+516184979+515552567+515528770+516044618+516344293+515531434
2888+513452238+510978118+509280706+508790654+508998531+509191694+509123693
2878+508967225+508855869+508589922+507867135+506756539+505573674+504369978
2868+503170067+502514827+502902091+503832180+504228497+503762242+502955832
2858+502182665+501411285+500786866+500715354+501264264+501828009+501542866
2848+500142223+498350470+497136874+496570011+495921977+494965003+494400743
2838+494673744+495104909+494731935+493476255+492000315+490843881+490023090
2828+489270814+488471035+487834415+487598501+487706346+487957185+488223859
2818+488292919+487817853+486770444+485658062+484876842+484060713+482579293
2808+480608910+479121616+478747461+479156858+479635436+479737104+479294433
2798+478425170+477654940+477449334+477497473+476913927+475300623+473306020
2788+471916942+471319378+470813582+469930058+468992552+468306521+467696362
2778+467223719+467333470+467917834+468205428+467772598+466869122+465833915
2768+464809606+463797438+462685177+461489565+460552210+460168246+460190620
2758+460216749+459980533+459447609+458660183+457596394+456281917+454956753
2748+453875858+453010712+452177266+451285053+450320025+449366533+448717621
2738+448684892+449219814+449843264+449986380+449455182+448573415+447805304
2728+447334871+447100865+447015365+446926292+446532912+445594073+444295007
2718+443296676+443124283+443421475+443202123+442028250+440477042+439288364
2708+438598881+438186003+437958083+437906613+437848301+437497731+436784239
2698+435925724+435138419+434468646+433950194+433606921+433232010+432586276
2688+431829822+431238677+430602451+429536724+428258852+427406664+427220374
2678+427395280+427549841+427473181+427119584+426584389+425934417+425100274
2668+424133249+423372980+423067098+422992346+422750075+422318577+421977090
2658+421761251+421424426+420930014+420492521+420120698+419659226+419235751
2648+419123123+419227213+419121307+418516235+417511696+416533014+416020467
2638+415979866+415956099+415601563+415066036+414727970+414725336+414793791
2628+414492330+413668057+412697398+412110159+412047002+412219668+412280645
2618+412101318+411775515+411484287+411367208+411435118+411500424+411236808
2608+410501790+409600524+409027091+408913857+408910527+408704890+408509305
2598+408785334+409513752+410025422+409696440+408603071+407355535+406509524
2588+406252569+406401922+406539104+406343337+405925918+405704567+405915230
2578+406385754+406768386+406811076+406437436+405820586+405367259+405319755
2568+405390239+405119932+404526425+403998497+403682806+403432723+403229478
2558+403215309+403399359+403645021+403876695+404116514+404368958+404550252
2548+404547134+404371925+404191872+404132500+404137435+404088296+403947421
2538+403714081+403405172+403166443+403201200+403476109+403722013+403827193
2528+403911331+403905427+403505840+402724136+402035410+401831772+402078796
2518+402507358+402851811+402961018+402884843+402829316+402957839+403249037
2508+403518254+403578776+403402659+403085000+402689742+402233902+401781907
2498+401469031+401453227+401833982+402585834+403572630+404517463+405002127
2488+404806602+404222481+403699579+403329541+402961987+402553650+402199811
2478+402084882+402411382+403117032+403797977+404133983+404164714+404014907
2468+403658675+403109766+402615384+402462579+402653441+402950694+403224029
2458+403521675+403827405+404040914+404180579+404336199+404482736+404528302
2448+404447313+404260205+404032164+403952780+404206556+404663062+404874118
2438+404545045+403897404+403397754+403242406+403273984+403289577+403255364
2428+403254396+403330753+403434903+403517648+403596246+403655587+403577202
2418+403323910+403145310+403418584+404225599+405191354+405833847+406028252
2408+406038212+406123380+406220991+406090984+405751042+405597208+405959645
2398+406674772+407259862+407425140+407338883+407457112+408030122+408706616
2388+408841406+408274876+407474884+406815436+406082416+404799396+402759741
2378+400147228+397318451+394542506+391896446+389405008+387222902+385479864
2368+383990421+382496799+381215596+380711072+381190588+382275661+383507786
2358+384905190+387019658+390505461+395544803+401369422+406290656+408599135
2348+407551362+403822349+399429164+396500021+395494635+395342921+395040127
2338+394430574+393886509+393666793+393773608+394267566+395291118+396743685
2328+398202913+399186651+399476395+399363525+399551208+400566494+402206835
2318+403669575+404352336+404506382+404856467+405588155+406172760+406327442
2308+406552425+407396378+408704648+409960389+411022119+412096867+413142521
2298+413771723+413817047+413658217+413835152+414484821+415271097+415826516
2288+416131217+416368463+416570739+416620876+416440853+415971449+415200039
2278+414394780+414012480+414162530+414405013+414257476+413749531+413338620
2268+413384429+413858677+414501443+415036819+415248935+415130706+414978658
2258+415083869+415370646+415601624+415839808+416377818+417231822+418014132
2248+418397370+418466006+418444782+418293764+417821575+417067755+416332737
2238+415862152+415631416+415421631+415039907+414467534+413849685+413402443
2228+413291420+413494937+413810961+414081450+414328323+414579072+414699874
2218+414550763+414220237+413989682+414087535+414516097+415111450+415725878
2208+416289472+416770078+417230308+417865384+418780759+419768887+420487253
2198+420833584+421064259+421574779+422532176+423661574+424494869+424858094
2188+424992400+425256591+425834172+426607127+427257735+427630769+427913368
2178+428334845+428917150+429582623+430190693+430506263+430463846+430337472
2168+430414102+430719741+431197168+431844809+432576497+433177754+433530837
2158+433828483+434443365+435491562+436641002+437503332+438052726+438498061
2148+438981725+439608505+440525030+441724427+442946894+443983161+444932717
2138+446007527+447267869+448701786+450370133+452307938+454435243+456694038
2128+459147571+461819698+464471238+466688494+468325111+469727964+471310598
2118+473027841+474509291+475569205+476325689+476941782+477500198+478073813
2108+478732444+479497981+480465279+481937950+484143549+486723940+488846491
2098+490016429+490495158+490792895+491071226+491110070+490565914+489196425
2088+486986496+484093079+480674973+476838994+472730648+468643133+465028262
2078+462280141+460420872+459111724+458021625+457044366+456178039+455436875
2068+454895898+454607788+454459707+454230727+453802044+453308722+453067450
2058+453231729+453552719+453689204+453652055+453682937+453874708+454209897
2048+454795108+455777271+457117544+458632934+460237912+462000478+463953301
2038+466096683+468680646+472114646+476380126+480894113+485195742+489386651
2028+493615799+497540034+500630550+502749832+504208151+505431617+506637675
2018+507664012+508143831+507975979+507408600+506557866+505288410+503712498
2008+502293870+501256694+500277467+498903649+497110443+495378850+494187598
1998+493499629+493042547+492968310+493610531+494616583+495086290+494731179
1988+494232316+494409644+495500863+497127701+498721840+500045732+501311797
1978+502781470+504442732+506169482+507984274+510029319+512388873+514972049
1968+517459552+519427452+520704568+521536137+522335856+523446452+525103899
1958+527349009+529929157+532459712+534681267+536554948+538284573+540263676
1948+542850848+546194323+550140054+553984723+556619065+557706046+558375697
1938+559925784+562406263+564956255+566993307+568602009+570107105+571806031
1928+574026254+577067026+580770607+584234097+586622656+588335630+590273314
1918+592040725+592330893+591187054+590208463+590652677+592453754+594494378
1908+595538366+595476179+595452866+596355161+597806305+599001069+599796913
1898+600574772+601557662+602580820+603463799+604403636+605517139+606140468
1888+605597795+604498462+603955486+604067872+604162092+603906318+603440668
1878+602856395+602145023+601529021+601587091+602917251+605465730+607968915
1868+608457333+606215674+602574341+599124415+596274021+593642887+591088898
1858+588926260+587368120+586158763+584861543+583495657+582646285+582823765
1848+584138363+586461828+588782993+588709785+585129610+580300537+576811857
1838+574986134+573540501+571673420+570395336+571401902+574471497+576632500
1828+575538314+572263264+568681333+565252176+562182702+560156611+559331218
1818+558986613+558529319+558334703+559209931+561113767+562748385+562852475
1808+561710452+560710849+560969288+562804881+565681313+568252681+569272750
1798+569050159+569460403+572272952+577274540+581253635+580661552+576674463
1788+573506531+573384093+575660812+578733556+581882838+584994335+587643998
1778+589792224+592636502+597608782+604297064+609339403+609601414+606581049
1768+603512725+601755548+601952950+604706400+608803088+611329163+611568588
1758+611548606+612346992+613940314+617364990+623747056+631559316+636933847
1748+638151197+637223591+636609224+637428017+639786482+642849658+645090711
1738+646513275+649645178+656040627+662049084+662161348+657953848+653834089
1728+651395028+650979032+652612439+655591448+659600941+665897810+675752025
1718+687212884+694155123+693074622+687631363+682563228+680288266+681764963
1708+686937854+694054787+700113442+704481407+710061212+718725507+727254650
1698+731245250+730539691+726066910+720161998+717009870+718188829+721863164
1688+726641070+734593751+747227333+757740421+757514802+751268797+747002440
1678+747549775+752697295+760006967+766146339+770654180+774665672+776579317
1668+774460035+771419445+771749033+775441775+778552061+778108089+776139402
1658+776773025+782917967+795775230+811449887+817304237+812002672+808418440
1648+810832008+814121833+811639295+805045052+799715088+797751850+799637157
1638+805627145+813453150+816301062+810961288+803653432+799727077+799445205
1628+800701248+801853807+802621675+802318670+799976675+797325681+797506975
1618+800367300+800826168+794796034+785964613+779487236+776534144+775522794
1608+774357156+772338694+770223772+768666298+767548072+766743812+766505113
1598+766916084+767638538+768113573+767676201+765943306+763489531+761675374
1588+761422446+762392378+763436063+763569158+762827085+762670920+765129721
1578+770854065+777054352+778615096+775604298+773317830+774342744+776192506
1568+774895832+770767535+767000010+765927562+769628782+780593230+796871051
1558+804644073+797300188+786573772+779152986+775179642+773337086+772136569
1548+771442394+773142107+778917496+788493533+800553257+811724372+813837477
1538+805723726+797818882+795753552+797486993+798732621+798958240+800923416
1528+805584637+811403685+817486137+825179532+834701071+842307028+844856476
1518+844126392+842268637+839829395+838446979+840528536+847009606+857462022
1508+870328004+879332243+877475154+870675940+867971235+871706667+879582507
1498+886736135+888728983+885907048+883120295+884631991+891487580+900775204
1488+907095083+908221726+906754172+905722113+906074529+907720350+911270672
1478+917723343+927033796+938273335+949864079+957899596+958458618+953857041
1468+949669463+948355955+948358498+947066184+945554548+947813403+955715765
1458+965355988+967260368+959542389+951420464+948233094+949972771+955282572
1448+962016994+967230697+969299418+969176920+968638183+968812090+970431631
1438+973306428+975151346+974071450+972614312+974321957+978817264+982574858
1428+983807770+985204719+989617190+995624799+999798935+1001662140+1002419108
1418+1001488778+999251539+998389996+999965697+1002500067+1004091875+1004090543
1408+1003559557+1004085033+1005003980+1003544358+999535955+996604359+997235379
1398+1000096491+1002871194+1004985995+1006240162+1006206918+1005714504
1390+1006089809+1007081419+1006692550+1003957751+1000931693+1000261618
1381+1001993908+1004043675+1005198232+1006467234+1009265614+1012860200
1372+1016392781+1021126181+1026664083+1029429159+1028343208+1027126584
1364+1028384868+1030673758+1032316551+1033659608+1034984379+1036156920
1355+1037316140+1038729681+1040813418+1042962068+1043026738+1040171560
1347+1037136783+1037176263+1040720652+1047263849+1056987997+1067771575
1338+1073741823+1071284597+1063533011+1055694714+1051260565+1052067853
1330+1057750355+1065046585+1070032247+1070923945+1069142971+1067778841
1321+1067442047+1065884755+1061127618+1054213354+1049167745+1049619589
1312+1056056940+1064640035+1069269284+1067474140+1062546124+1058590947
1304+1056590045+1056268511+1057600427+1059808297+1062006237+1063301942
1295+1061254415+1054151227+1044696296+1037266729+1032920866+1029173021
1287+1023731761+1017427141+1012412353+1009292862+1006800637+1003176440
1278+997661124+991125375+984984429+979503204+974025249+968346743+963024953
1268+958474604+954305858+949852090+944717529+938989491+933357672+928609678
1258+924686170+920341821+914404998+907328635+900374406+893860577+887300849
1248+880440840+873289937+865915836+858585879+851332944+843537639+834944553
1238+826757291+820606596+816919122+814825515+813078026+810877301+808290916
1228+805967996+804381698+803502111+803089263+802912025+802712867+802356757
1218+802028320+801961167+802099711+802602480+804415668+808397307+813862546
1208+818860016+822183206+824562622+827620893+832195887+837772483+842989214
1198+846638358+848615099+850286776+853374900+857897335+861892416+863624706
1188+863617258+864138313+866892793+871295575+875206125+877992273+881871336
1178+889042161+898977820+909398990+918638172+926177037+932138807+936898608
1168+940625199+943411771+945825218+948536039+951403146+953862007+955947379
1158+957945192+959608694+960509718+960629673+960373838+960329755+960862134
1148+961910845+963676621+966816094+971077607+974053103+972754733+967515840
1138+962372196+960904703+963195893+966294614+967434760+967094575+968064265
1128+971823555+977609057+984444299+991460715+996308015+997307194+997359148
1118+1000607494+1005675690+1006718951+1001841921+995765948+993190159+993837104
1108+994071200+992056735+990061344+990726515+992883824+992699501+988842480
1098+984387683+982009054+981925249+984294734+989084933+994098570+995868887
1088+993598405+990248573+988314097+986998712+984185740+979378587+973702079
1078+968468272+965162098+964548518+965682911+966902987+967629134+967876370
1068+966078684+960117760+950987391+943550013+941463793+944094502+948398039
1058+950630373+948697048+944385942+941337843+940833016+940682119+939112292
1048+937706078+938734504+941415835+942488283+940433611+937307218+935778384
1038+935871393+935453277+933703669+932864168+935292328+939790360+942953630
1028+943644717+943429756+944013059+946328653+949883153+952102952+950611117
1018+946877683+945350546+948462588+953861462+955832390+950603911+940598980
1008+930545607+922193642+915324126+910070519+905568309+899055206+889302538
998+878819967+870804130+866017807+863117699+860421714+857262622+854028081
988+851182652+848891946+847168739+845646082+843656988+841083501+838328901
978+835327973+831801145+828383614+826125485+824702861+822395745+818166143
968+812764363+807654750+803783075+801506235+800833677+801260088+802004644
958+803066979+805091738+807803165+810160539+811999463+814283387+817787326
948+822482638+828197718+834917426+842220861+848982351+853935254+856696939
938+858521269+861737220+867605558+875124016+882718286+890061080+897173049
928+903005237+906474176+907660039+906824473+903982314+899977120+896263911
918+893585668+891871362+891001342+890686589+890061868+888506815+886655237
908+885920128+886778037+888495613+890734365+893800145+897237840+899658250
898+900627335+901478099+903195978+904467280+903554752+901711893+902345092
888+906633975+911679947+914020004+914079709+914853814+917201379+919364804
878+920377123+921471007+923575029+925375804+925428848+924306445+923746454
868+925194267+929269036+934790468+938784278+939182533+936963218+935037220
858+935148274+936406739+937473980+938401101+939884035+942179101+945369559
848+949199393+952262327+952916962+951349375+948589688+945337588+943341046
838+944382309+947672437+950621653+951720139+951797525+952655193+955849587
828+961863614+968622924+973027281+974494411+975018191+976512146+979250760
818+981623515+980857161+976244624+971736177+972775563+980006639+986888991
808+986798889+982070515+978933101+977744876+975283533+971934548+970397782
798+971049329+973700565+979012485+984735194+986615293+983376030+976314381
788+966384353+955412881+947077931+943200261+941678513+939732472+937206821
778+934811117+931639188+926777779+921049500+916262450+913672614+913310025
768+914334151+915831255+917567299+919895487+923528101+929484361+937699356
758+945637384+949287981+946849950+941475782+938439128+940235422+944529573
748+947422476+949052916+952235865+956774528+959305871+958584991+957682031
738+959580659+962946053+963944445+962232743+962367412+967302452+973279361
728+972924523+963975024+951739334+941879063+935926436+933253884+934375138
718+940750120+951464485+962225537+968751235+969135199+963335467+954218298
708+947056253+944977239+946318904+948496679+951677207+955328531+955320962
698+949707611+943581622+942366148+944067738+941843034+934471780+929445487
688+932548507+940638400+945545949+943963406+939839347+936859491+934722044
678+931473273+926525759+920714583+915565792+911794574+907253004+899709114
668+892624637+892267376+895721784+896644909+895873589+897582566+901077120
658+900872633+894396589+885259680+880585743+885758815+899214884+912944287
648+920829633+925318945+929797176+930113988+923065721+913914764+907400026
638+903932843+903866114+908270107+915323945+917865460+908687557+891842418
628+878127306+874530297+881745023+894143479+900623823+893116082+877704830
618+867565714+868335459+874580314+878589988+879265271+879199390+879199511
608+879229545+880579506+882735664+882207100+876884402+869311507+862466758
##END=
