##TITLE=<SNM>
##JCAMP-DX=4.24
##DATA TYPE=INFRARED SPECTRUM
##DATE=29/4/2025
##SAMPLING PROCEDURE=Instrument type and / or accessory
##ORIGIN=Admin
##XUNITS=1/CM
##YUNITS=ABSORBANCE
##RESOLUTION=4
##FIRSTX=4497.3318
##LASTX=599.83466
##DELTAX=-1.4281778
##MAXY=2.1016834
##MINY=0.46981442
##XFACTOR=1
##YFACTOR=1.9573452e-09
##NPOINTS=2730
##FIRSTY=0.48740017
##XYDATA=(X++(Y..Y))
4497+249010844+249569619+249240740+248540516+247972271+247108354+245544746
4487+244161169+244245034+245780595+247549844+248591812+248762540+248312615
4477+247846413+248181931+249466189+250731948+250881177+249785613+248022075
4467+246239975+244993401+244595534+244920987+245499769+245933585+246241270
4457+246769182+247716841+248724963+249047447+248340722+247164217+246470328
4447+246673167+247359627+247789316+247471400+246435263+245170235+244137843
4437+243317929+242484692+241744349+241468045+241909702+243039965+244460571
4427+245596240+246235895+246534490+246452559+245799795+244807128+243902710
4417+243111755+242333575+241883118+242271286+243554311+245036323+245707206
4407+245169063+244063435+243308763+243115318+243130666+243352233+244234315
4397+245762964+247080216+247473836+247212346+246906565+246595774+245953028
4387+244982698+244062293+243464768+243137137+242883093+242610702+242358363
4377+242215590+242286101+242531954+242798209+243201375+243916413+244389801
4367+243814461+242569607+241897734+242168481+242697246+242971418+242884007
4357+242247838+241160801+240334279+240302822+240842869+241524365+242202983
4347+242692922+242562619+241711095+240860136+240952024+242034204+243166706
4337+243530041+243170786+242555843+242019435+241810094+242035772+242372234
4327+242432635+242384582+242533187+242652664+242426484+242139948+242304037
4317+242965115+243766880+244257656+244035251+243044731+241715785+240589343
4307+240026351+240281613+241377831+242802259+243733109+243756785+243129539
4297+242374487+241947142+242044679+242462386+242799929+242869953+242743852
4287+242455489+241947234+241334209+240996453+241244376+241940900+242699910
4277+243488886+244536549+245535002+245694812+244904482+244060176+243840832
4267+243844441+243376823+242443080+241537581+241111804+241526725+242908353
4257+244782036+246305645+246952364+246680643+245794831+244922677+244583246
4247+244582089+244283433+243571258+243068438+243374341+244398693+245369466
4237+245565484+245112331+244695218+244520440+244137524+243269968+242258695
4227+241693860+242030169+243462727+245696914+247767619+248507857+247634043
4217+246155761+245300142+245281521+245392929+245048869+244369901+243799570
4207+243504842+243230213+242628988+241767507+241272940+241798279+243266968
4197+244875842+245965255+246525461+246727783+246558075+246139256+245808763
4187+245728736+245830155+246041856+246281405+246410216+246373963+246186122
4177+245844270+245527830+245599300+246099136+246652902+247058367+247389347
4167+247537785+247393367+247258313+247359855+247409811+247148048+246676091
4157+246062289+245426167+245334187+246190567+247481708+248435412+248987305
4147+249359532+249275774+248410929+247230267+246612066+246757290+247023774
4137+246838444+246309208+245899129+245915009+246333843+246930546+247540297
4127+248111207+248544368+248748639+248808065+248821814+248770777+248716436
4117+248695165+248365982+247394631+246261825+245992083+246937778+248343417
4107+249276794+249649007+249966923+250335816+250326437+249775671+249045681
4097+248428088+247853950+247244169+246719576+246422519+246377572+246471729
4087+246448433+246145666+245855948+246108561+246946061+247829056+248436356
4077+249059551+249894311+250472240+250218364+249155612+247762473+246511605
4067+245697264+245418310+245623631+246211792+247012278+247736437+248203080
4057+248562624+248966628+249116709+248599364+247623019+246892801+246771892
4047+247074156+247561263+248083009+248331526+247996069+247211783+246547066
4037+246441871+246761371+246995697+246840880+246449864+246154771+246126695
4027+246329062+246708217+247315258+248073294+248550687+248367276+247783165
4017+247474399+247765168+248372925+248762570+248591980+247965739+247277970
4007+246760838+246364630+246123574+246346237+247236556+248449054+249287331
3997+249413112+249126043+248841821+248626999+248459697+248558909+249099535
3987+249824470+250213735+250007028+249442985+249001784+249048543+249607470
3977+250295452+250630604+250564281+250453132+250385483+249955808+248922701
3967+247791235+247465644+248351441+249884627+251046195+251342354+251039328
3957+250608222+250380717+250538731+251043713+251674050+252205692+252448454
3947+252353749+252257674+252640194+253506440+254226777+254140233+253302322
3937+252519300+252563851+253403072+254348934+254771910+254412563+253401534
3927+252374015+252125574+252692251+253135735+252824990+252438603+252980979
3917+254188042+254673992+253855326+252667372+252066512+251970178+252031158
3907+252640940+254396911+256875168+258842140+259914012+260612272+260699516
3897+259461682+257462614+256280841+256753483+258032123+258534120+258093909
3887+257940767+258665428+259477334+259840959+260378463+261007109+260498077
3878+258874449+257789209+258116748+259201441+260487907+262007999+263063366
3868+262843321+262022159+261659417+261594372+261032476+259966511+258928836
3858+258337828+258980209+262099780+266760730+268341329+265548018+261623271
3848+258978290+258145068+258710893+259979362+261412362+263061721+265156195
3838+267052701+267716367+267333101+266841731+266447594+265638886+264403275
3828+263428574+263035015+263151493+264354125+267179411+270013589+270660780
3818+269675087+268525471+267140159+265157017+263336701+262720113+263924268
3808+266573512+268965469+270070046+271073463+272972680+274412227+274129695
3798+273137941+272544375+272277679+272063268+271993289+272185075+272731623
3788+273853924+275610991+277627843+279633915+282164336+285925771+290371182
3778+293927585+296203703+298584393+302597115+308725262+316216765+323572697
3768+329782881+334727093+338413433+341117125+343793562+347318478+351626704
3758+355915502+359746610+363756318+369307190+377210828+386059537+393422046
3748+399630342+407082045+416323155+423953245+427307264+428202212+429364434
3738+432454651+437988561+445352289+452978359+458711881+461111481+460899445
3728+460107425+459664565+458649881+456342215+453536997+450979230+448423321
3718+445792074+444077638+444849012+448900134+454512976+457628437+456509486
3708+453565560+451382350+450937419+452169346+454019962+454946122+454872825
3698+455488682+458163383+462453765+466863183+470635214+473850100+475883122
3688+475603635+473359826+470531770+468295969+467742417+469434653+472786176
3678+476667133+479451888+478955493+475720448+473297157+473277881+473567355
3668+472141268+470010009+468675673+468426821+468978577+469806743+470443124
3658+471014674+471829107+472658187+473377032+474564651+476614482+478475878
3648+478340702+476043207+473055248+470936535+470149874+469965092+469793588
3638+470371015+472956279+477323430+481317364+483169106+483597776+484590626
3628+486352901+487362986+487536622+488481906+491422909+495600223+498643330
3618+499459347+499253919+498941331+498467410+498252725+499408736+502191328
3608+505261507+507167454+508081799+509252974+511071920+512524835+512808950
3598+512589576+512874848+513690956+514602621+515764235+517746767+520358860
3588+522247601+522732820+523072479+524124223+524903301+524539707+523869098
3578+523895956+524037801+523250683+522031211+521968298+523703623+526191777
3568+527719969+527681600+527117511+527075366+527573435+528413721+529870900
3558+531985106+533750274+533852775+532117876+529819376+528560377+528883227
3548+530090031+531452383+533267613+535900170+538154454+538393561+536865247
3538+535103064+533673475+532083587+530161288+528189048+526561583+526049811
3528+527293035+529786975+532389749+534357665+535195211+534772540+533804783
3518+532788302+531119301+528618296+526489595+525544311+524979918+523896200
3508+522890438+523089410+524674791+527017568+529349200+530965032+531269002
3498+530278649+528920804+528102382+527799204+527679103+527950732+528847416
3488+529987835+530975508+531863969+532470751+531908307+529322646+525189487
3478+521460301+519835029+520258735+521484602+522778741+524195723+525306848
3468+524977603+522854140+520271585+519076231+519863288+521543252+522423917
3458+521737108+519853543+517396511+515179012+514523751+516111933+518487659
3448+519083905+517170072+514560963+513207564+513364573+513944314+513715743
3438+512342794+510699221+509938231+510360323+511355182+512013245+511825175
3428+511160413+510981356+511670419+512256494+511443249+509313847+507083742
3418+505417390+504105162+503102841+502764522+503029300+503263657+502983958
3408+502176620+501045702+499881774+499249991+499998800+502457507+505408376
3398+506611434+505142045+502532084+500961046+501302349+503320876+506326710
3388+508802714+509000620+507289535+506347174+507780752+510069691+510791489
3378+509585782+507730446+506327076+506183861+507840468+510482800+512101007
3368+511742590+510521504+509873947+510144541+511083492+512388655+513579685
3358+514427280+515532801+517575141+520152275+522236334+523349895+523338323
3348+521886443+519614253+518620977+520353379+523482786+525257455+524533677
3338+522165442+519514919+517826064+517825820+519049677+520340102+521228624
3328+521969881+522614484+522994949+522929173+521930964+519775160+517411432
3318+516228381+516641429+517995680+519316800+519817367+519300843+518284180
3308+517487379+517349432+517892936+518738277+519423016+519843860+520127487
3298+520386510+520743588+521298785+522074026+522895250+523532849+524085001
3288+524750189+525188634+524857197+523888587+522871497+522220560+522324401
3278+523479619+525213361+526515601+527094185+527521180+528023634+528146781
3268+527633547+526856296+526341478+526301951+526518403+526441238+525712039
3258+524778327+524553958+525239611+525979162+525948711+525278771+524582278
3248+524115026+523730664+523158901+522282804+521416633+520975935+520947067
3238+520987933+520835370+520486697+520157817+519991185+519763101+519324352
3228+519139510+519681247+520771664+522088765+523490521+524320576+523499535
3218+520874409+517540426+514741177+513239599+513308542+514430690+515437548
3208+515616117+515136197+514202119+512787025+511468341+511265837+512061664
3198+512214653+510574033+508093705+506639572+506928377+507985693+508208265
3188+506956301+505158824+504185128+504318933+504599242+503918309+502060325
3178+499770564+497962124+496975974+496622824+496656808+496912664+497145651
3168+497035994+496303811+494896574+493231379+491918481+491185050+490847218
3158+490685549+490487917+489917860+488797722+487455834+486505342+486255942
3148+486470384+486751697+486922379+486893663+486468404+485491998+483964293
3138+481982278+479938568+478588762+478377488+478783045+478801011+478100590
3128+477256619+476827980+476691708+476363620+475596784+474561789+473692543
3118+473314240+473226478+472907313+472302876+471900760+471821281+471498553
3108+470519406+469190430+468167646+467949611+468545552+469230169+468993467
3098+467748751+466604982+466450561+466918118+467295842+467679443+468389365
3088+469021970+468953332+468209060+467198244+466131000+465105567+464290830
3078+463847117+463982109+464828425+465842774+465880595+464565809+463024919
3068+462552703+463147061+463874919+464043378+463506453+462327695+460806811
3058+459674127+459623455+460497908+461215900+460716004+458962225+456853865
3048+455303078+454625495+454577047+454707837+454776354+454876692+455083582
3038+455141592+454740177+453974893+453246334+452717509+452159784+451460185
3028+450999632+451118059+451347909+450770026+449224111+447594788+446719604
3018+446541492+446500260+446330552+446214988+446195834+445814608+444759941
3008+443659018+443461416+444000321+444082967+443243960+442381901+442297275
2998+442613212+442517929+441836722+441039860+440583449+440357009+439777208
2988+438647964+437621648+437223308+436901372+435894880+434603450+434137203
2978+434843166+435964097+436476844+435971679+434978433+434441721+434638013
2968+434884946+434493184+433567998+432635504+431996565+431739582+431821497
2958+431871316+431435856+430591489+429824256+429307764+428803543+428142496
2948+427391738+426750636+426501419+426764979+427265637+427582031+427449383
2938+426764462+425761654+425085959+425093116+425298391+425085838+424536396
2928+424055349+423748517+423474238+423000530+422028083+420532596+419062293
2918+418308307+418424419+418999136+419553389+419781503+419472905+418648484
2908+417745436+417287898+417367377+417632308+417690958+417434097+417115419
2898+417140268+417600942+418016487+417716720+416587446+415283745+414530459
2888+414387244+414408347+414269030+413963964+413663923+413565990+413617941
2878+413417751+412718639+411869643+411419079+411501908+411802741+411881215
2868+411496487+410812479+410224273+409931905+409828643+409719839+409405455
2858+408709906+407761241+407070839+406998333+407287503+407433702+407348955
2848+407314605+407426363+407462723+407213749+406641255+405816225+404917441
2838+404153558+403556764+403024650+402607156+402499478+402661604+402703932
2828+402298557+401562660+400892568+400457504+400029656+399394737+398703116
2818+398220181+397983053+397942065+398106748+398293600+398131231+397568330
2808+397016970+396855302+397065054+397316372+397185825+396416370+395170648
2798+393958454+393218963+392994503+392993377+392904792+392642237+392386929
2788+392415889+392750250+393006532+392793522+392141671+391309728+390422850
2778+389591273+389039274+388821422+388710364+388513493+388224293+387852994
2768+387372526+386831337+386336891+385893940+385376595+384796671+384485515
2758+384685674+385052831+384989035+384379238+383564074+382795471+382180254
2748+381907680+382064994+382343810+382236681+381508518+380361156+379218331
2738+378449271+378159888+378105075+377942006+377715384+377837191+378397260
2728+378860675+378691272+377909361+376867210+375902224+375298639+375181278
2718+375405646+375756390+376087218+376162556+375735713+374923047+374143968
2708+373653786+373399727+373256147+373180961+373169938+373129315+372831436
2698+372164450+371428553+371090294+371195170+371315607+371105246+370607664
2688+370016443+369451410+369019878+368844415+368932938+369122196+369168056
2678+368886773+368314036+367718490+367336656+367162776+367103212+367171485
2668+367331814+367345578+367042339+366602798+366336741+366281380+366195445
2658+365873021+365324189+364693928+364118633+363647027+363278712+363113176
2648+363325243+363843349+364256397+364256093+363933608+363457251+362820504
2638+362114541+361657886+361636965+361866633+362035488+362034209+361970017
2628+361954943+361944254+361774364+361340122+360722499+360117543+359633908
2618+359238705+358934431+358829951+358949870+359149299+359303050+359391177
2608+359378205+359231793+359063699+359017290+359027187+358920119+358719715
2598+358572390+358402804+357984457+357372255+356909814+356788859+356936581
2588+357275327+357727261+358039940+357980438+357659202+357383613+357272738
2578+357213479+357099894+356950406+356834994+356783500+356746866+356618634
2568+356328368+355926282+355564759+355388108+355414814+355497095+355418895
2558+355102836+354728127+354597519+354856968+355344014+355731482+355834227
2548+355750241+355678374+355658550+355605838+355551482+355616953+355693661
2538+355457081+354886841+354465023+354616399+355211701+355805115+356128391
2528+356207109+356191791+356197882+356230008+356225288+356176474+356151169
2518+356156528+356083292+355912609+355896622+356265759+356764468+356842455
2508+356387901+355904631+355863856+356190451+356455565+356394204+356166730
2498+356110272+356270601+356332204+356049673+355545148+355126710+354966412
2488+354978105+354961874+354861262+354840402+355076799+355516249+355866170
2478+355863338+355566068+355282349+355186517+355194617+355231373+355342613
2468+355529008+355745886+356023911+356349075+356544606+356466071+356183143
2458+355894734+355789341+355942574+356246178+356539063+356802106+357037194
2448+357048156+356611051+355845950+355210330+355084047+355452422+356014958
2438+356506876+356800218+356810541+356578712+356383790+356467745+356696316
2428+356755332+356598962+356465096+356541165+356811089+357172521+357567633
2418+357974774+358329659+358548546+358629822+358625498+358546475+358453445
2408+358551165+358955199+359463957+359828861+360096501+360406500+360680262
2398+360812027+360924485+361190055+361661296+362466137+363974444+366684196
2388+371070714+377545067+386483334+398319149+413597234+432852046+456343433
2378+483774213+514220634+546527902+579824122+613314380+645414759+673412552
2368+694322632+706516925+711387018+713092439+714961874+715630839+709999269
2358+695061209+672382307+643860317+610168285+575639743+548405071+534193774
2348+534428374+547740309+569632885+592520991+610531636+622591332+629508150
2338+632438098+633030142+632657716+631918347+630554168+627910771+624071898
2328+619651822+614411071+607451438+598631446+588727248+578375104+567496937
2318+555776838+543444598+531285446+519883812+509168288+498728687+488338661
2308+478049614+468021873+458463668+449655552+441863063+435073534+428886798
2298+422935485+417389242+412715472+408972461+405716404+402575486+399523395
2288+396645915+394049901+391963436+390584519+389818230+389329266+388795995
2278+388046150+387083051+386078082+385285300+384901334+384935957+385159078
2268+385244282+385038336+384645965+384245341+383901937+383568246+383168719
2258+382645039+381993828+381335430+380893057+380804138+380981824+381240482
2248+381493505+381754203+382025072+382254739+382364487+382300417+382070963
2238+381729141+381351265+381031369+380831819+380749660+380737966+380657848
2228+380263101+379444466+378439161+377583406+376945380+376396395+375904142
2218+375534853+375273699+375069672+375004231+375195956+375563783+375894398
2208+376132652+376407936+376789649+377205468+377598418+378010735+378505455
2198+379120459+379927340+380992086+382143255+382961251+383249995+383327768
2188+383583442+384019541+384491849+385059409+385796098+386525023+386996964
2178+387175655+387218471+387302304+387539676+387932382+388304016+388411724
2168+388279076+388279959+388700102+389341020+389748770+389740365+389534724
2158+389415749+389419342+389381521+389202008+388968047+388853000+388977396
2148+389337884+389830837+390387465+391074427+392019255+393299813+394930475
2138+396859260+399004710+401376143+404047890+406985269+410122716+413642455
2128+417892457+422942002+428435259+433957659+439374939+444741944+450059160
2118+455250762+460255207+465002823+469383768+473315763+476836932+480221587
2108+483980524+488480901+493532974+498643117+503677192+508954090+514714440
2098+520819108+526991867+533145075+539298588+545184247+550194905+553905028
2088+556344703+557498521+556833393+553574565+547344619+538486378+527825271
2078+516133493+503890263+491550197+479773276+469232301+460334017+453159364
2068+447497739+442928510+439074350+435834524+433267805+431327021+429857053
2058+428725313+427818641+427042913+426401385+425945948+425673648+425601356
2048+425844391+426475474+427430625+428667271+430304664+432560897+435656594
2038+439812471+445269247+452245354+460834674+470922618+482157163+493986035
2028+505820815+517226468+527935750+537851702+547187975+556271558+564924492
2018+572411976+578245928+582535244+585321216+586239703+585163537+582613444
2008+579141758+574703350+569038345+562316358+555009575+547501567+540083696
1998+532932765+525989029+519265763+513182715+508123457+503832435+499763804
1988+495910222+492869125+491137971+490585180+490605157+490599889+490277130
1978+489717700+489321005+489538918+490521962+492069156+493865111+495618190
1968+497094827+498279340+499450759+500902852+502650115+504555970+506636283
1958+509008172+511540512+513827258+515649127+517301197+519312902+521878830
1948+524663950+527233898+529560962+531867684+534127632+536174053+538169254
1938+540419214+542855722+545168778+547376532+549860362+552757666+555632131
1928+558028138+560185586+562742622+565811309+568850823+571422232+573457020
1918+574832588+575471710+575835852+576644895+578166022+580112196+582089430
1908+583868423+585284735+586305174+587258619+588574928+590229678+591791184
1898+592997196+593942724+594766993+595506240+596226059+597028464+597904562
1888+598693202+599201807+599343652+599200041+598998999+598970008+599195900
1878+599627219+600144960+600571894+600812585+601080804+601766091+602838054
1868+603485277+602889213+601250542+599435494+598048050+597142475+596422047
1858+595549055+594432267+593222113+592015553+590807774+589693665+588780417
1848+588089709+587731475+587688233+587328537+586007782+584091269+582362156
1838+581065336+579911153+578595880+577271044+576480212+576441416+576531797
1828+575998952+574815169+573153477+570969536+568577122+566690695+565640352
1818+565069443+564449444+563695885+563170896+563141114+563374557+563387530
1808+563038492+562658514+562709064+563431685+564618817+565678356+566143355
1798+566166072+566346651+567219034+568894856+570737371+571617854+571289828
1788+570781039+571103036+572278962+573642532+574938377+576507557+578391548
1778+580215244+582090648+584761452+588511345+592237790+594438114+595089234
1768+594970289+594508092+594366735+595449174+597613686+599493596+600427492
1758+601143657+602161964+603448247+605308546+608080937+611184339+613497883
1748+614703408+615256108+615568908+616112412+617591576+620309885+623470232
1738+626075138+628563901+632056233+635855092+637515872+636782654+635462874
1728+634878687+635634804+637667217+640152630+642426769+645036670+649041018
1718+654203264+658264070+659407474+658392089+656839840+655921658+656364123
1708+658353537+661325022+664271476+666920050+670139168+674427205+678435877
1698+680674753+681508279+681339028+680381563+679823748+680656908+682622936
1688+685198913+689044790+694823198+700040319+701201750+699670452+698485208
1678+698935650+701219412+704869241+708730709+712098737+715208472+717861736
1668+719098748+719233832+720144584+723023191+726820284+729385420+730444716
1658+731498226+733849347+738199201+743849224+746988072+746211978+745252747
1648+745753313+745820794+743265646+739307585+736367039+735235756+735583819
1638+737022057+739215438+740900639+740641068+739362520+738975965+740034591
1628+741683555+743193841+744761803+746040534+745726211+744034006+743316988
1618+745362556+749216594+751822840+752240760+752229250+753002299+754191989
1608+754857238+754714663+754249116+754030960+754257643+754811195+755566156
1598+756649265+758349570+760648923+762930797+764396624+764792071+764787259
1588+765687475+768272100+771796954+774796394+776840683+778648909+780815066
1578+783266861+785307130+786044490+785898747+786035537+786028472+784036926
1568+779974293+776364661+774854374+775296047+777620248+782562390+789261477
1558+792076256+788213144+782495700+778544460+777245631+778353101+781027620
1548+784342966+787939017+791980151+796513081+801382747+805952036+807823298
1538+805645996+802369750+801073052+802414636+804832446+806678981+808497805
1528+811597370+815867989+820016861+823629477+827344655+830987602+833525880
1518+835023498+836549498+839141371+843618208+850089212+857551847+864805704
1508+871521175+877172050+880104496+880494340+880384957+881239860+883533549
1498+886714481+889590408+891504851+892764397+894072058+896314039+899957290
1488+903766077+906080473+907545691+910075199+914100863+918286521+921787623
1478+925234643+929051530+932784614+936477623+940603291+944303487+946296129
1468+946916737+947629857+949776159+953135782+955244629+953935933+950112225
1458+947536430+949272852+952851850+953899391+952081176+949300685+947142019
1448+946769716+948499498+950558465+950702198+949298979+948627274+949759532
1438+952055231+954584617+956294545+955957931+953449070+950496770+949415001
1428+950801409+953209841+955179218+956341928+957507988+960027751+963263130
1418+963456195+959107681+953893422+950891364+949636324+948482872+947259076
1408+946932206+947960319+949859597+951677142+952569013+952337214+951710030
1398+951971001+953451932+954472737+953272145+950768278+949105550+948664973
1388+948740128+949832495+953185784+958180546+962723708+966271096+970144685
1378+974268160+976087045+974632424+972823954+973313923+976308308+981561361
1368+988171042+993030598+993261910+990156925+987335506+986065728+985584955
1358+986819714+991969902+1000271422+1006824097+1007742827+1004838580+1002992715
1348+1004973725+1009469809+1013136325+1015026589+1017725652+1022924014
1340+1028234074+1030173974+1029007305+1028189371+1030484339+1036091242
1331+1042564194+1046306231+1045767478+1042970665+1040848541+1040254366
1322+1040904816+1043211356+1047465104+1052417903+1055990141+1057936497
1314+1060190415+1063468854+1065949212+1066438390+1066436441+1067419181
1305+1068294487+1067787282+1067330262+1069003161+1072091337+1073741823
1297+1072269906+1068021152+1062590016+1058090339+1055808892+1055205946
1288+1054735893+1053271893+1050423190+1046031799+1040658644+1035751035
1280+1032091949+1028681228+1024457444+1020474595+1018881419+1020090354
1271+1021616902+1020325138+1015477519+1008775630+1002197802+997115400+994394290
1261+993094303+990596161+986269998+982484538+980178607+977055412+971881715
1251+966722879+962996616+958926066+952419861+943866443+934751068+925542876
1241+916126881+906994270+898958350+892092022+885548848+878656636+871843233
1231+866313677+862830480+860798616+858843063+856126886+852771648+849263238
1221+845981084+843441284+842353059+842825427+843889229+844327430+844143197
1211+844627624+846795425+850472965+854634688+858367650+861653214+865063935
1201+868577584+871364957+873051681+874385713+876382314+879377551+883121232
1191+887297328+891643041+895825897+899487237+902497212+904946266+906871732
1181+908628983+911444859+916699496+924179063+931427256+935858477+937936080
1171+940974803+947375097+956472262+966344181+976083208+984966967+990936003
1161+992118628+989307624+985455901+983045155+982941862+985274834+989924577
1151+995508338+998652910+996792428+992179105+989953994+992547998+997916891
1141+1002196218+1002952884+1000695798+998525926+999909655+1005340791+1011317745
1131+1013811502+1012923772+1012629303+1015802622+1021573539+1026606365
1123+1027809211+1024403605+1018490113+1013954077+1013135411+1015769064
1114+1021368964+1029503304+1038209712+1044035990+1044245376+1039770792
1105+1035132620+1033877154+1034843085+1033637072+1027862440+1020406566
1097+1016104155+1016697782+1021975015+1032615111+1047704089+1060071654
1088+1060016231+1046918677+1030861941+1021998524+1022299753+1025609496
1080+1024975490+1020643420+1017518641+1017882539+1020313749+1021659291
1071+1018386821+1009316819+997584053+988442489+984624201+985715593+989957648
1061+993745423+993832454+992133245+992671572+994681206+994158654+991702291
1051+992625650+998840493+1005509494+1006230592+999757396+990149372+982737531
1041+981083817+985075253+991199715+995407420+996421769+995477825+993458019
1031+990351572+986880374+984185635+982106083+979630719+977225454+977009734
1021+980175440+984905880+987575101+987405241+987561580+990593420+994797532
1011+996539009+995045410+992080198+987866159+981091673+971811859+961238513
1001+950503165+941301307+935298774+931776721+928490426+924392712+919754723
991+914405807+907762386+900267899+893505350+889177787+887419440+886781719
981+886237850+885690936+884766481+883114167+881137847+878766262+875056261
971+870215707+865808908+862534367+859987989+858028052+856524891+854601435
961+851408687+847415119+844186195+842793452+843315518+845764267+850191530
951+855516693+859987441+863253334+866037418+868896414+872416944+876801087
941+881235353+885133607+889525607+895741241+903560467+911777941+919294536
931+924839501+927751239+929412384+932138549+936396438+939807160+939786148
921+936626289+933133165+932584180+936655705+942882485+945332757+941013537
911+933490791+928036450+927053589+930011127+934117793+935658835+933702796
901+931262390+930973220+932920611+936740422+942091104+946896821+948760714
891+948608516+949545943+952172470+954045620+953624289+952017410+951543763
881+953935385+958482871+961677628+960700004+957266810+956055986+960028725
871+968061052+975591046+977773525+974106157+969050674+967221436+969149277
861+971990611+973783002+975358760+977650805+979411344+979335397+978398457
851+978065314+978544138+979262800+980045655+982011865+986622935+993277623
841+998373058+998020061+992261325+986042219+985628258+992722548+1001360439
831+1003464413+999565976+997161869+999698198+1003968512+1006299109+1006886036
821+1007727967+1009891992+1012563953+1014132037+1014520967+1016204646
813+1021816422+1029711351+1034285086+1032699888+1028092412+1024955148
804+1025403155+1028814972+1031523841+1029603673+1024526631+1021965270
795+1024511405+1028858214+1029862757+1025222149+1016723910+1008720391
787+1003882273+1000575209+996445095+991686700+986592361+980975043+975964324
777+972788325+971557891+971687554+971656676+969379980+965394390+963370016
767+965688006+971332365+977846488+983289013+987053035+990648355+995906464
757+1001092890+1003311606+1003210689+1002202309+998596392+991820992+986226087
747+985327272+986663496+985105096+980072026+976284372+977841433+984919340
737+993698162+999001035+998979780+995534648+990908901+985626248+981117131
727+980458520+986011767+996290948+1006699367+1014497337+1019379488+1021596317
717+1020552125+1015166241+1007682533+1002655736+1000895867+1001123280
708+1004366090+1011450575+1019124180+1023231212+1022749708+1017621750
700+1007848617+996890909+989519142+987345068+988280486+989863065+990037980
690+985795194+976843772+968487316+966533895+969418836+969629989+963360515
680+954703440+950068009+951718982+957399153+963678919+965851349+960626676
670+952594471+952257187+961293631+968225309+966919719+961019078+955403770
660+952065950+952212423+955250780+956310380+951100507+943371297+942112908
650+951406791+964437168+971831652+975003327+979095803+979618599+969171689
640+954935908+951408740+960495551+970591778+971245456+966690844+969063768
630+978827096+984956491+979900217+966864175+952916225+942732479+934823909
620+923323794+906969483+893990629+894506178+910984793+934290698+944388874
610+932294766+914159940+908194375+919876348+938440362+942484663+925493300
600+909220905
##END=
