##TITLE=<SNM>
##JCAMP-DX=4.24
##DATA TYPE=INFRARED SPECTRUM
##DATE=29/4/2025
##SAMPLING PROCEDURE=Instrument type and / or accessory
##ORIGIN=Admin
##XUNITS=1/CM
##YUNITS=ABSORBANCE
##RESOLUTION=4
##FIRSTX=4497.3318
##LASTX=599.83466
##DELTAX=-1.4281778
##MAXY=2.2615917
##MINY=0.68820536
##XFACTOR=1
##YFACTOR=2.1062714e-09
##NPOINTS=2730
##FIRSTY=0.70641375
##XYDATA=(X++(Y..Y))
4497+335385911+335446527+334515869+333183483+332965753+334133497+334794582
4487+333198878+330126861+327833793+327598999+329170564+331448832+333194774
4477+333983967+334657277+336166756+338059624+338681572+336966843+333566704
4467+330255620+328542561+328653435+329828027+331352589+332859973+334055336
4457+334918474+335941329+337455759+338904226+339234415+338047060+336152465
4447+334863716+334749870+335122507+334937887+334258719+334325277+335739927
4437+337112214+336567210+334122489+331338864+329536013+329398991+331212114
4427+334236420+336583934+336940016+335898484+334811448+334282914+334292196
4417+334726835+335338709+335767801+335787101+335423548+335079719+335265925
4407+335852612+336096603+335767264+335424850+335102981+334048064+332237686
4397+330741592+330302652+330448560+330425242+330481245+331565904+333879489
4387+336158323+336747557+335447036+333795611+333236855+333653920+334032018
4377+333933681+333651090+333288924+332619916+331798236+331535822+332433880
4367+334212337+335601999+335531960+334518416+333995541+334215903+334055365
4357+333098276+332332826+332578062+333738476+335415115+337105762+338178054
4347+338250584+337399473+335931113+334270604+333145054+333049914+333434323
4337+333326024+332608738+331979149+331855343+331849173+331561603+331249836
4327+331379331+332030030+332844777+333292603+333248825+333159939+333178163
4317+332625717+331121587+329537202+329034872+329684949+330457898+330386388
4307+329624248+329193260+329759601+331236819+333423343+335780507+336526120
4297+334006465+329553728+326741068+327518319+330619625+333647496+335439452
4287+336153484+336174792+335617337+334665767+334009861+334322136+335154739
4277+335367149+334765406+334006153+333219423+332219405+331365832+331123539
4267+331653658+333017597+334709573+335393297+334114198+331364785+328623183
4257+327489992+328822151+331828940+334495777+335529130+335449781+335436735
4247+335606386+334969723+333206773+331627680+331519466+332451397+333174994
4237+333373735+333551847+333989316+334534970+334760596+334227109+332960858
4227+331626350+331004034+331191117+331617719+331839722+331871473+331781596
4217+331614408+331736234+332271644+332427541+331514825+330284965+330050879
4207+330817093+331274796+330532805+329063794+327993114+328164406+329786541
4197+332276172+334475515+335620535+336006444+336244775+336274092+335643174
4187+334321259+332737779+331452540+330907451+331022740+331238007+331327799
4177+331669477+332451765+333346342+334033745+334324287+333987193+333217413
4167+332786680+332943341+332800829+331702869+330602505+331023928+333073911
4157+335296346+336331171+336121365+335493219+334996380+334342341+333037094
4147+331406413+330524315+330988668+332257580+333493354+334458960+335253671
4137+335860762+336287421+336657652+336909143+336749736+336087350+335226193
4127+334474043+333758399+332863199+331936729+331445974+331657139+332359285
4117+333088541+333638129+334203508+334860688+335247021+335027112+334458536
4107+334225723+334672191+335286356+335212044+334440113+333884299+333970639
4097+333998683+333368160+332499675+331908742+331425769+330919846+330845137
4087+331554896+332781529+333926295+334423587+334005842+333011880+332288170
4077+332403148+333042839+333444114+333335560+333176012+333457641+334067250
4067+334548893+334747805+334739938+334420134+333705735+333004353+332928145
4057+333514068+334315401+335021028+335518179+335812428+336080049+336304400
4047+335968778+334746107+333289462+332745788+333460584+334532254+334797893
4037+334065807+333132829+332730054+332925032+333405996+333727978+333443208
4027+332614482+331974480+332138612+332988873+333976072+334576767+334452933
4017+333664957+332777567+332475083+332987091+333755824+333878555+333286745
4007+333063554+334062666+335646711+336446346+336128241+335672152+335838208
3997+336108970+335585105+334401967+333431804+332979450+332763220+332760843
3987+333111152+333543301+333703924+333717705+333892817+334280339+334828144
3977+335457450+335836058+335647787+335129553+334865102+335067127+335393099
3967+335410304+335032036+334620857+334633874+335086455+335637571+336100537
3957+336437291+336444507+335928622+335166540+334734108+334789941+334856500
3947+334564033+334386968+334957271+335830879+335843557+334764189+333607793
3937+333349851+334249409+336059447+338128220+339388869+338970728+337196883
3927+335508303+335065995+335702516+336518508+337194450+338008658+338909914
3917+339300492+338557341+336728314+334906984+334388610+335218100+336409049
3907+337767724+340138019+343383195+345639985+345765178+344673812+343175851
3897+341103626+338808775+337375278+337337924+338020827+338456004+338799096
3887+339743819+340977697+341422155+341151082+341239289+341514239+340699068
3878+338967587+337908368+338128984+338919903+339980395+341830844+344185094
3868+345683225+345492181+343719072+341170127+339189844+338515176+338652085
3858+339086526+340527437+344153881+348660583+350108710+347997885+344769094
3848+341895988+339881095+338853798+338662046+339301964+341166703+344106849
3838+346521516+346813304+345556617+344382308+343765057+343065769+342083099
3828+341304971+340769249+340178797+340113626+341519984+343837615+345753745
3818+347376928+348780060+348544842+346103686+343093502+341363747+341620472
3808+343253333+344870799+345849961+346681998+347348573+347051380+346113223
3798+345730088+346122873+346517894+346447402+346275827+346449751+347036354
3788+348072197+349665780+351490420+352973779+354408747+356824688+360275454
3778+363392891+365271157+366485311+368155526+371104047+375393359+380099227
3768+384237028+387561045+389972486+391581180+393198759+395483366+397790866
3758+398878016+398700527+398626922+400491549+405291849+411366410+415587833
3748+418002756+421160942+425868706+429914083+431664666+432440700+434006635
3738+437198242+442151044+448050606+453222043+456595752+458680684+460670023
3728+463182151+466037004+468870888+471555100+473591641+473950213+472398654
3718+470009484+467906866+466496772+466088677+467297850+469887828+471916049
3708+471676048+469638687+467810735+467900414+469976884+472501944+473868883
3698+473817917+473374250+473712080+475243292+477548217+479812788+481384496
3688+482304881+483090282+483756659+483916772+483337612+482262433+481742078
3678+483157237+486256901+488007343+486824289+484940222+484135125+483847045
3668+483433884+483438186+484255451+485557359+486735375+487270050+487123293
3658+486766730+486191984+484697702+482739662+482365723+485022910+488815892
3648+489333022+485815556+481719495+479895873+480488108+481431811+480821126
3638+479201538+478506183+479291697+480421832+481049666+481526612+482225815
3628+482966787+484133653+486294991+489040357+491296495+492616062+493195278
3618+492812398+491194507+488979685+487617614+488608350+492294249+496870028
3608+499459582+499205799+497767945+496433550+495454869+495563253+497466168
3598+500051816+501223324+500591075+499856782+500790750+503951823+508226052
3588+510781930+509597348+506300838+503851080+503214304+503467860+503582299
3578+503412621+503062453+502587149+502629597+504177250+507365660+511158811
3568+514326166+516196707+516528537+515575043+514331090+513714746+513598042
3558+513303283+512675279+511954343+511074594+510058277+509787968+511261309
3548+514173750+516968355+518235852+517407097+514446153+510179225+506461687
3538+504780974+504829421+505271786+505730054+506665777+507741070+507931067
3528+507011474+505613407+504278333+503592996+504226603+505654780+506248259
3518+505709283+505559923+506250749+506027869+503862513+501469635+501229436
3508+503506063+506700811+509097990+510084255+510089914+509747557+509014566
3498+507329890+504743620+502379097+501386324+501762979+502590601+503343459
3488+504303802+505369359+505540283+504408563+503094940+502898944+503836025
3478+504950313+505368454+504834119+503670987+502296748+500849498+499473788
3468+498551817+498286489+498514350+498996389+499348708+498963846+497519369
3458+495402913+493291041+491564710+490412955+490050336+490511434+491431933
3448+492214957+492320454+491465891+489970364+488771859+488533415+488902090
3438+489226562+489586012+490249106+490701431+490156173+488691491+487380415
3428+487217131+488003890+488365774+487088429+484549191+482476031+482158068
3418+483212928+484249225+484504536+484445901+484703362+484931166+484262978
3408+482773903+481724589+482041024+483153671+483780486+483565813+483312143
3398+483555512+483803578+483620599+483519346+484031212+484786447+485223378
3388+485454578+485884604+486472311+486713925+486121068+484799011+483789938
3378+484090073+485264751+486002157+485839553+485537493+486004987+487440804
3368+489203414+490399258+490862564+491147135+491455760+491284610+490421444
3358+489775160+490526093+492560540+494453889+495235555+495374275+495726706
3348+496562252+497935926+499941847+502053040+502998045+501889927+499220458
3338+496439266+494585308+493631078+493326924+493803303+494690636+494811584
3328+493791927+493030128+493912027+495890838+497313129+497412287+496610926
3318+495474678+494206842+493043541+492411915+492351979+492251122+491570426
3308+490630968+490165964+490125667+489746691+489017831+488929370+489794007
3298+490686999+491139494+491803155+492665980+492452665+490896466+489789818
3288+490615403+492633211+494152622+494804283+495638641+497416645+499541818
3278+500595659+499846538+498082852+496656543+496134150+496306659+496926739
3268+497729685+497981034+496975752+495214614+494173450+494621191+495866445
3258+496820393+497193086+497387101+497712140+497997503+497740495+496526709
3248+494521806+492641474+492049749+493245933+495559008+497572797+498100397
3238+496778454+494102250+491340132+489928312+490260765+491199261+491227616
3228+490135345+489213149+489682793+491245841+492446326+492241048+490789723
3218+488885733+487229469+486103240+485163328+483820670+482195931+481219232
3208+481475674+482364139+482714646+482150767+481521744+481830935+482936054
3198+483618788+482933621+481281828+480101208+480523424+482205100+483378758
3188+482432508+479589908+476574687+474659943+473609242+472581633+471693141
3178+472065070+474032279+476054840+476349316+475103213+473798645+472857093
3168+471536140+469751542+468377472+467806151+467478962+466810095+465806596
3158+464957495+464851007+465506149+466121419+465963031+465170895+464161284
3148+462902136+461374461+460094683+459572374+459581628+459495685+459152819
3138+458911856+458930448+458802538+458006101+456461418+454543251+452765331
3128+451548517+451109011+451393045+452156203+453214063+454504284+455817539
3118+456697288+456793616+456205287+455366657+454607828+453735466+452115877
3108+449595910+447220040+446252651+446544834+446715617+445985200+444896636
3098+444126488+443596822+443105756+442991372+443516482+444137468+444080305
3088+443374451+442794131+443008635+443996201+444959997+444911323+443730307
3078+442330712+441552329+441457699+441680947+441799122+441515654+440977046
3068+440687805+440827091+440919939+440515495+439869408+439544030+439587752
3058+439479623+438792560+437626712+436404663+435483004+434993946+434911003
3048+435139713+435504341+435681604+435398193+434825598+434497022+434612113
3038+434675247+434054516+432817186+431812810+431739573+432166713+431939758
3028+430754072+429663103+429605317+430136171+430223190+429720096+429153982
3018+428489473+427267141+425815391+425148873+425604708+426465751+426952884
3008+426948979+426749134+426555203+426255633+425629696+424789452+424154317
2998+423848805+423536812+423025568+422544689+422266231+422117351+422179750
2988+422583883+422923297+422603749+421870078+421552539+421794266+421983612
2978+421836261+421591223+421298049+420755932+419992462+419265781+418771149
2968+418583161+418649804+418717749+418480522+417924198+417391618+417170464
2958+417138656+416969515+416552846+416018397+415504777+415111341+414968008
2948+415222696+415858029+416431246+416274217+415326750+414395668+414112398
2938+414158610+413931145+413424543+413044831+412943749+412825687+412286993
2928+411295437+410253962+409562314+409334029+409472551+409726560+409821219
2918+409743822+409672905+409660369+409610988+409420113+409028149+408550015
2908+408257152+408163483+407958771+407534263+407121980+406885827+406796828
2898+406783952+406725317+406519501+406218036+405811214+405080430+403976556
2888+402890397+402338205+402561765+403376200+404195050+404378057+403827224
2878+403118541+402857854+403077423+403415960+403632388+403626219+403224067
2868+402445259+401768667+401683403+402125767+402644821+402936269+403010355
2858+403013666+402979142+402730736+402134087+401388842+400808550+400387749
2848+399923198+399461393+399255039+399299949+399261293+398971486+398759671
2838+399017274+399547760+399716363+399276093+398675482+398448188+398600123
2828+398641269+398032990+396749674+395539086+395312131+396135763+397116793
2818+397329598+396620689+395551934+394816819+394712511+395002826+395203153
2808+394945239+394116626+392955645+392075925+391991199+392504112+392910084
2798+392831867+392487218+392189884+391999009+391839886+391648247+391393248
2788+391174981+391157294+391274196+391317861+391347093+391532110+391593433
2778+390985408+389731976+388579994+388154920+388306148+388478798+388461762
2768+388397440+388231383+387739552+387073770+386641961+386469650+386276569
2758+386026409+385809245+385454012+384841997+384297050+384167583+384279731
2748+384188581+383826217+383575349+383701844+383987632+384033787+383711041
2738+383169886+382622590+382237219+382047080+381930065+381810277+381729682
2728+381591642+381134222+380352755+379650467+379400958+379610651+380042121
2718+380410880+380499766+380268736+379798243+379114151+378275492+377568648
2708+377290841+377400724+377621935+377751599+377710962+377525719+377353635
2698+377302245+377262825+377126878+376982498+376895423+376755656+376545511
2688+376465482+376550293+376455068+375938816+375313104+375060482+375211003
2678+375390331+375285739+374856958+374324321+374078349+374327887+374772289
2668+374889134+374549720+374092781+373845649+373848309+373991274+374155067
2658+374197713+373971946+373429800+372686140+371987871+371623469+371687339
2648+371860470+371679302+371144656+370766841+370891807+371318155+371649419
2638+371696338+371491824+371188038+370943594+370752238+370488325+370192717
2628+370074882+370177917+370320995+370434445+370678917+371100680+371391901
2618+371224656+370719327+370307242+370211479+370368679+370703395+371053647
2608+371008002+370325891+369400695+368862058+368861945+369064195+369154779
2598+369121529+369133386+369297065+369531689+369652468+369566383+369368321
2588+369255947+369352983+369606030+369883328+370139686+370371254+370455074
2578+370229279+369734421+369207387+368849211+368703671+368697445+368695973
2568+368609210+368519192+368619029+368958019+369323270+369443907+369248505
2558+368876887+368539538+368426457+368626840+369037227+369419740+369577618
2548+369446567+369115388+368797735+368629953+368513164+368305056+368049264
2538+367879048+367878680+368089505+368400111+368496213+368236545+367948295
2528+368041397+368471678+368812026+368743883+368338873+367927325+367790784
2518+367965302+368272937+368510419+368610398+368636065+368677183+368792472
2508+368977715+369122406+369119123+369047782+369041557+369017191+368857247
2498+368758711+369008136+369491562+369781227+369662344+369315318+369041415
2488+368994383+369116803+369202548+369059045+368731998+368522163+368631707
2478+368877311+368936908+368778068+368632047+368632641+368683069+368662921
2468+368613398+368646224+368764824+368901988+369045858+369164995+369124981
2458+368883141+368646621+368659044+368940898+369334080+369676720+369853926
2448+369792858+369545301+369325562+369305357+369378056+369316167+369152968
2438+369155515+369411392+369710254+369849823+369817279+369662486+369428201
2428+369246665+369300121+369591654+369885479+369974224+369925578+369991967
2418+370328975+370823268+371155013+371042781+370521576+369988118+369871245
2408+370239127+370793328+371227882+371499747+371779338+372257217+372973173
2398+373764036+374431318+374973322+375623003+376770598+378908476+382490690
2388+387762220+394840138+403961558+415459952+429395822+445249350+462082069
2378+479166277+496485903+514387178+532618190+550039237+565554201+578936238
2368+590251907+598860301+603744762+604772400+602877012+599050921+593351742
2358+584644642+572173029+557053851+540804707+524513965+510449704+501653859
2348+500026517+505556753+515981581+527308344+536250888+541545000+543245013
2338+542773898+542537887+543903523+546376995+549177204+552278736+555204477
2328+556403944+555070455+552194633+549005431+545686621+541915373+537518498
2318+532457793+526966100+521705154+517165993+512844392+507596067+501005707
2308+493825490+486874548+480208517+473575992+467010506+460703924+454773545
2298+449342128+444511180+440151489+435911530+431496289+426941961+422644923
2288+419032402+416163598+413761919+411606665+409726135+408253586+407228383
2278+406463329+405581712+404347466+402930751+401703353+400873835+400404304
2268+400109092+399784309+399399730+399106895+398916106+398561580+397866169
2258+397047291+396504240+396418212+396615963+396771096+396728450+396572525
2248+396391357+396182145+395991553+395858436+395635896+395180570+394662111
2238+394393613+394421431+394515750+394520136+394518863+394643943+394851202
2228+394948352+394768570+394302378+393761308+393474586+393580593+393869579
2218+394033032+393946183+393621145+393084829+392448675+391972295+391902426
2208+392191780+392416216+392133626+391410397+390804976+390725768+391010368
2198+391246435+391300400+391345310+391526167+391839801+392262809+392781127
2188+393317274+393789918+394238961+394757279+395272428+395518003+395359220
2178+395104051+395253383+395872246+396470763+396654194+396613359+396739402
2168+397044829+397302290+397529472+397929445+398471789+398916049+399178604
2158+399348736+399428849+399327908+399046166+398754973+398766123+399328842
2148+400299372+401180055+401630881+401743311+401761337+401792636+401832735
2138+401856336+401857694+401898501+402087677+402455022+402868352+403134926
2128+403192514+403143076+403105665+403140133+403302284+403634369+404091647
2118+404595731+405139036+405736308+406305281+406705565+406938095+407240296
2108+407860829+408720740+409434461+409752255+409853903+410088980+410555257
2098+411086593+411569226+412059585+412571395+412959992+413127209+413209728
2088+413428222+413800292+414129462+414292208+414403789+414622085+414936115
2078+415300715+415825825+416594614+417378119+417791025+417741361+417541431
2068+417571626+417976211+418623826+419208476+419477115+419488548+419544693
2058+419819331+420247886+420761252+421365202+422026569+422707039+423416175
2048+424104568+424689756+425248569+425946046+426753661+427451082+427932781
2038+428378259+429068916+430061576+431095665+431884179+432453548+433054187
2028+433751098+434326834+434711356+435313184+436661445+438761856+441016240
2018+442793593+443942660+444746964+445582397+446718616+448247140+450008363
2008+451705151+453233702+454786931+456534429+458356579+459991251+461315713
1998+462431614+463603687+465116335+467021089+468989063+470557940+471590360
1988+472361442+473214335+474301145+475591988+476967868+478375500+479946132
1978+481786280+483658462+485159763+486260524+487371246+488835418+490614102
1968+492484360+494329092+496175693+498085173+500115148+502326575+504711812
1958+507134403+509410351+511447118+513310188+515195841+517302562+519668782
1948+522157423+524628631+527126666+529841186+532806998+535709422+538176045
1938+540150499+541836024+543476327+545229372+547103875+549078668+551299829
1928+553939811+556877947+559746921+562241956+564357224+566488962+569115303
1918+572115866+574672027+576184024+576912375+577606824+578972856+581248295
1908+583922178+586118210+587410383+588100474+588797979+589882044+591247624
1898+592469050+593227398+593613278+594062887+594949993+596190380+597366019
1888+598337569+599509925+601193922+602943175+603935948+604030579+603929666
1878+604154866+604448493+604461567+604549463+605438323+607240948+608981598
1868+609442753+608727646+607998389+607750040+607513634+606914721+606163958
1858+605587854+605236780+604899347+604404630+603984169+604010487+604424043
1848+605006826+605921608+607068496+607290018+605673485+603087101+600939686
1838+599649551+598633063+597243203+595633236+594432128+593780750+593183422
1828+592266262+591097132+589871404+588863236+588261550+587774190+586845429
1818+585329470+583675017+582431348+581784497+581538186+581336926+580935142
1808+580330626+579653213+579080674+578866170+579184134+579854246+580446763
1798+580809213+581281970+582305702+583832811+584952645+584654490+583340131
1788+582338302+582354545+583231691+584532693+585917233+587206293+588453585
1778+589767831+591038497+592278034+593946297+596168307+597994023+598689434
1768+598748069+598934727+599666247+601179263+603402122+605745703+607692085
1758+609204308+610223003+610760225+611438487+613001139+615380037+617609461
1748+618921953+619532411+620122325+621219804+623036860+625360632+627520216
1738+629161877+630939089+633422749+635511812+635670681+634840512+634705018
1728+635500832+636605951+637558880+638369241+639499206+641617700+645042686
1718+649157650+652231563+652902467+651751561+650287332+649515911+649655253
1708+650649045+652534302+655100989+657826886+660454133+662845199+664531969
1698+665470409+666208890+666736717+666766600+666681365+667052190+668063641
1688+669911656+673214448+678090533+682250888+682967296+681454281+680186784
1678+680164711+681390609+683340895+685244093+686881906+688631215+690441197
1668+691673604+692374561+693324774+694851033+696518050+697907571+699237042
1658+700849895+703008403+706077053+709459477+710314833+708118800+706072978
1648+705991760+707642591+709564805+710823133+711925026+713875879+717352085
1638+722251997+727225882+729662283+728713485+727186547+727934933+731785927
1628+737499708+742817534+746963004+751259928+756584433+761642195+765232276
1618+768338732+772486522+776961049+780043508+781877600+783460231+785128040
1608+786737385+788344805+790223043+792577208+795039361+796678532+797255485
1598+797669268+798581673+799595444+800139288+800341340+800799552+801914632
1588+803587705+805613096+807977675+810491614+812547681+813804481+814722546
1578+815923598+817626950+819621326+821601213+823604984+825740118+827684971
1568+829052136+830096130+831269335+832860399+835507228+840461304+847858459
1558+853273350+853260898+851086373+849230491+847521026+845942357+845719137
1548+847913075+852295122+857680695+862820693+866714361+867547417+863562344
1538+857264309+852466781+849887472+848700174+848205457+848265110+849099581
1528+850770164+852851360+854732485+856136041+857215748+858651735+861372707
1518+864806070+866535797+865638843+864870761+867391888+873132949+879615831
1508+884965861+888501438+889471799+888826137+889113425+891635627+895575989
1498+899108906+901355536+902096395+900874232+898164749+895889481+896344750
1488+900017915+904749507+908278632+910681584+913573819+917253493+920048608
1478+921281127+922645066+925949500+931158433+935803657+936708252+934303036
1468+932101967+932476641+935014407+937009746+936501219+934801941+934558346
1458+936226269+936730891+934255268+931197315+929246010+928550995+929174754
1448+930599025+931194712+929730822+926827041+924111219+922599731+922503856
1438+924296179+928187187+931718067+931615796+928456704+925384998+923772428
1428+921830178+918209648+914976697+915245817+919502897+925381319+929902708
1418+931332130+930161981+928149211+926489608+925434917+924765767+924292274
1408+924057112+924366869+925138743+925370566+924613690+923789011+923499629
1398+922894603+921170593+919034327+918025141+919010330+921543343+924299462
1388+925721696+925305705+924979648+927450460+933105154+939660198+944722487
1378+948127325+950871332+952768021+952776624+951131113+949702597+950187070
1368+952586909+955319314+957176272+958971086+961771747+964500303+965991416
1358+967971756+972061477+976407697+978830968+980919069+985474813+991238003
1348+994210833+994238226+995068283+998459027+1001804381+1002224673+1001133250
1338+1001880561+1004686316+1007717781+1011064606+1015857606+1020918537
1330+1022506657+1019300986+1015603937+1015765012+1018436858+1019539600
1321+1018961176+1020239030+1024676372+1030429262+1035586861+1039127476
1312+1041553689+1044693821+1048512894+1050768410+1051144782+1052378037
1304+1055413351+1057298154+1056508848+1056610837+1061681616+1069808650
1295+1073741823+1069630595+1061463603+1054827682+1051007477+1048350346
1287+1045360424+1040980698+1034570600+1027579927+1023262684+1023062783
1278+1024805300+1025863444+1026514652+1027652824+1027378214+1023913327
1270+1019854960+1018852056+1020385277+1020937327+1018797723+1015942502
1261+1014861606+1014684117+1011626957+1004580253+997680814+994792993+995605165
1251+997324025+997121746+993085000+985727010+978091920+972567570+968690994
1241+964322927+957864948+949430704+940882473+934471130+930696033+927348698
1231+921405132+912722369+904141651+897557856+892511867+888706094+886869285
1221+886460256+884938864+880369367+873574295+867215021+863550289+863052798
1211+864447073+865733530+865632277+864895777+865292863+866975501+868547208
1201+869539812+870600729+871518228+871876488+873148513+877249214+883570398
1191+889584541+894273232+898887950+903741622+906758428+907037283+907145044
1181+909061825+911260914+912525297+915191597+921053040+927316494+930348242
1171+931414932+934479676+940440731+946898937+952172730+957235473+963376733
1161+969749817+974655671+978568130+983589783+989654863+993124505+990691613
1151+983718372+977118899+975254358+979739015+989110510+999335606+1006362275
1141+1009089586+1009102038+1008143732+1006901421+1005490224+1003916479
1133+1002194110+1000729145+1000344623+1001819775+1004716765+1007304394
1124+1008345785+1009603830+1014084752+1021461305+1027996257+1030011008
1115+1027021538+1023120738+1022864579+1025896610+1027726967+1025334938
1107+1021562388+1021410141+1024880462+1027054138+1024459038+1019276423
1098+1015976913+1016540962+1020191828+1024547330+1026314864+1022047087
1090+1013109920+1007414306+1011112261+1021400406+1028851216+1028026253
1081+1022552048+1018912842+1021742481+1031125861+1040551351+1042061367
1073+1036363603+1031355194+1029873703+1027066929+1020670867+1015998193
1064+1017774217+1023980225+1028285695+1026934604+1021031505+1013318424
1055+1007010541+1004809585+1005655488+1005589269+1003247726+999699414+994913885
1045+990407381+990011992+994065831+998179210+998402317+995983801+995947126
1035+1001246445+1009197008+1014149952+1013017553+1006589683+997312253+988586419
1025+984465117+986198126+990221289+991760057+989685199+987009166+986305321
1015+987279022+989025614+990813297+990811825+988553480+987766551+991805561
1005+996808876+994737981+984575481+973006539+964742992+959558566+955306523
995+949892312+942731564+935725213+931372993+929933214+929102875+926450499
985+922282051+919096019+917832993+916679823+913240235+907354341+901359215
975+897118322+894168866+891328700+888878150+887396942+885769260+882502463
965+877812527+872714129+867976708+865200440+865985162+869147310+871228393
955+870587938+869148159+869344551+870946765+871813100+871583880+872940744
945+877923628+884723228+889678889+891380713+891353943+892098141+895386840
935+901026253+907129933+912758252+919002010+926424464+933032766+936721778
925+938828330+941560961+944226016+945128460+945020246+945722448+947306720
915+948698618+948772194+946035601+940898433+936864743+937243662+941723905
905+946344057+946988870+943039566+937795826+935349690+937223514+941590335
895+945565391+947803192+947793400+944717507+939177536+934223290+933054103
885+936271547+941725320+946788006+950782814+954963430+960198908+964933046
875+966458683+965335000+965300589+967146114+966997942+962688397+957515063
865+955470429+957225738+961224790+965636664+969313451+972019029+973953978
855+975047664+975539042+976287938+977799652+979650270+980689737+979852436
845+977712379+978412940+985783381+996095524+999459328+991103754+978632311
835+972024010+973303675+978444295+984018677+989553101+994700061+998485175
825+1000969344+1001904898+999189812+992648182+986716444+985342941+988794131
815+996148046+1005582025+1012276354+1012897114+1010273263+1008857085+1010660275
805+1015129425+1018494021+1017540583+1014728829+1013719246+1014814291
797+1016327363+1016507343+1013470218+1006978960+1000967420+999905089+1004855202
787+1013156782+1019614648+1019646229+1012266959+1001767027+993939166+990299167
777+987807074+982934952+975704306+970061215+969721518+974362950+979389583
767+979448331+974330689+970475394+973816786+981849755+986589214+985289060
757+981749465+978122709+973798222+971080532+974055513+981898768+987584760
747+986317320+982813607+983962532+988786661+990110924+986548690+984947892
737+989267851+994316557+990960790+980226884+974955411+983465608+998707376
727+1004488791+996141481+984492283+981212583+989793074+1002261234+1006471621
717+1002242784+998080505+996248223+995357155+999207810+1009059137+1016434559
707+1012869834+1001076766+991827408+991739342+995945201+993308899+982180962
697+973330502+976623786+994549285+1022851675+1047270583+1048195609+1028025121
687+1003074425+979614161+958022062+941637028+936269566+941993648+952079798
677+959540341+964524866+970780793+974494708+966369712+946789987+930054389
667+930364882+941838628+948304078+945294346+940435977+943765144+958043003
657+977051548+994356741+1008673596+1014538549+1003012960+985554049+979007438
647+979536963+976465766+969325563+962249541+956380287+949561896+941112145
637+934073704+929741916+928147909+935262360+955387797+977784257+985491905
627+979403733+972843765+968710690+957259696+933341674+909772574+896240441
617+889065091+886628067+892987794+906685700+916975883+914856144+905835043
607+900636410+899728476+905744657+915400384+916551970+917763661
##END=
