##TITLE=<SNM>
##JCAMP-DX=4.24
##DATA TYPE=INFRARED SPECTRUM
##DATE=29/4/2025
##SAMPLING PROCEDURE=Instrument type and / or accessory
##ORIGIN=Admin
##XUNITS=1/CM
##YUNITS=ABSORBANCE
##RESOLUTION=4
##FIRSTX=4497.3318
##LASTX=599.83466
##DELTAX=-1.4281778
##MAXY=2.2568331
##MINY=0.68823338
##XFACTOR=1
##YFACTOR=2.1018396e-09
##NPOINTS=2730
##FIRSTY=0.7015115
##XYDATA=(X++(Y..Y))
4497+333760723+334238164+334395127+333327493+331180144+328828417+327581643
4487+328482899+330994822+333135791+333527447+332741326+332307075+333009766
4477+334234988+334692663+333986143+333194889+333454425+334442145+334827194
4467+333997203+332693514+331932887+331881162+332035318+332134940+332434376
4457+333245594+334517181+335706643+336111458+335739850+335465058+335997996
4447+337183119+338098270+337658716+335804167+334129126+334324118+336026893
4437+337169592+336389568+334308634+332537402+331933341+331843190+331394675
4427+331117217+331975567+333448044+334135733+333808961+333560967+334378254
4417+336148324+337497357+336916607+334752442+333187516+333653812+335293349
4407+336299133+335941450+335007724+334671989+335062171+335170018+334390505
4397+333419119+332975878+332461118+331037161+329461148+329295336+330553992
4387+331450767+330829749+329669014+329591908+331149262+333555040+335252116
4377+335141405+333692408+332297547+331597579+331245141+331037048+331344509
4367+332441579+333944939+335100597+335609374+335932630+336541909+337229201
4357+337473224+336978911+335732732+334205211+333327379+333480401+333883288
4347+333852547+334068439+335407916+337103177+337445915+336247663+335101221
4337+335037131+335533090+335853624+335855864+335419997+334354830+332993347
4327+332061067+332027406+332713649+333371477+333415120+333200845+333748983
4317+335412028+337032196+336851440+334467894+331527987+330234621+331468605
4307+334285919+336856686+337939832+337743054+337383300+337456777+337293064
4297+335952708+333604072+331424167+330478531+330992355+332601435+334709394
4287+336457514+337028764+336418578+335464831+334894744+334880707+335479748
4277+336610933+337477450+337148919+335796652+334402188+333558018+333222624
4267+333140470+333029532+332835192+332943011+333738859+334958579+335710358
4257+335277865+333950780+332896134+332962493+333744786+334191429+333791520
4247+332764495+331579146+330652282+330136898+329867012+329768297+330080408
4237+330720739+330988272+330475440+329762767+329768438+330870528+332902600
4227+335351965+337380379+338221005+337797729+336626814+335194520+333846138
4217+332978289+332856348+333322729+333820020+333664985+332662632+331634331
4207+331761178+333138655+334482215+334582576+333639888+332682341+332164461
4197+331739257+331123796+330510944+330214004+330488655+331541117+333066852
4187+333993091+333522258+332269245+331523904+331742149+332455248+333188339
4177+333650920+333407577+332404231+331604413+332196648+334205892+336335687
4167+337216440+336645729+335489390+334489674+333602654+332543442+331349925
4157+330180598+329117473+328332174+328010761+328232892+329207879+331012943
4147+332889073+333619810+332867209+331519451+330727800+331081315+332407776
4137+333866046+334340452+333157598+330700605+328320009+327443340+328479099
4127+330448187+331724198+331342694+329862616+328840951+329211878+330396944
4117+331300695+331637138+331734748+331748672+331814321+332287707+333115685
4107+333647517+333593069+333464974+333746317+334285437+334668785+334724934
4097+334602313+334542874+334551041+334379672+334005455+333825323+334076890
4087+334458593+334651118+334773966+334906796+334644680+333790131+333112055
4077+333476771+334465881+334867889+334326585+333456070+332619868+331856178
4067+331658577+332506973+333846422+334608523+334574692+334381033+334422067
4057+334488398+334372894+334228805+334263034+334448044+334529007+334306677
4047+334127736+334777851+336426008+338019434+338269328+336927015+334713449
4037+332626248+331570071+331924323+333191260+334424847+335026128+335078619
4027+335199199+335880082+336670485+336574492+335543497+334713024+334961755
4017+335959032+336591196+335980754+334323494+332915078+332978742+334285210
4007+335315837+335045582+333977239+333111119+332711437+332504903+332400318
3997+332422806+332303729+331674628+330596586+329609688+329364332+330224128
3987+331964932+333847953+335258950+336149401+336597321+336357410+335377488
3977+334396573+334308521+335141660+336221346+337034748+337431765+337285833
3967+336591961+335879657+335828895+336254979+336125779+334961670+333513041
3957+332721958+332781595+333455502+334597520+336033104+337352673+338075498
3947+338143615+338219190+338925171+339756211+339590485+338285237+336737439
3937+335845400+336114776+337413502+338647259+338528267+337221289+336341160
3927+337015691+338669634+339762251+339674879+339424390+340160544+341685570
3917+342645073+341964048+340015661+338159382+337332113+337405136+338037952
3907+339646635+342766078+346701193+349692684+350737064+350010042+347766133
3897+344647398+342335826+342448097+344865729+347100052+346614728+344541848
3887+343862581+345166610+346652473+347493070+348414376+348632621+346530249
3878+343385623+342246611+344259031+348212209+352515301+355768086+356350367
3868+354244903+351501519+349609424+348333016+346964386+345689056+345333045
3858+346757654+350922159+357948472+363518755+361307402+353436351+346023372
3848+342224718+342426799+345275308+348478210+350299835+350928142+351726429
3838+353251001+354711284+355478377+355473783+354368120+352179170+350100760
3828+349212180+349158470+349541789+351313447+354654256+356760627+355920086
3818+354215269+352948219+351052721+348195676+346016368+346017388+348317929
3808+351331143+353013642+353863796+355801237+358048832+357831834+355596489
3798+353832148+352483681+350317730+348122994+347500075+348240709+349063441
3788+349903953+351719113+354324647+356443524+358029038+360325949+363438133
3778+365840763+366972714+368374636+371953910+378248125+385726498+391610339
3768+394328967+394400033+393202064+392700547+394920862+400019745+405200045
3758+407221993+406620655+407041662+411510650+420228594+429317351+434252437
3748+436006995+438022080+440937968+442162821+440895657+439924215+441766712
3738+447435115+456072918+464522876+469529282+470577661+469391234+468316028
3728+469459521+473251766+477291834+478712303+477477298+475354762+473503985
3718+472343222+472454245+474608059+478630064+482264012+482365705+478520317
3708+473639481+471078016+472261068+475750900+478513511+479066895+478429684
3698+477811926+477864843+479323708+482677080+487636440+492807183+495689466
3688+494974439+492597388+490704867+489447629+488299174+487723273+489578985
3678+495400098+503157120+507106300+505993689+504882270+505900504+505395953
3668+500407951+493328636+487532762+483875276+481505371+480292315+481415929
3658+484881713+488169463+489776075+492327701+498651947+506883630+510238193
3648+504934449+495868974+488831573+485708755+485450127+485765868+485167224
3638+483956891+483301870+484072309+486587636+490808375+496101286+500344995
3628+500746946+497397885+492931109+489728717+489439179+492162769+495390513
3618+496273080+495513418+495937715+498412319+501100631+502272454+502404490
3608+502581730+502398648+500877678+498477600+497006880+497834036+500705827
3598+504438462+507903736+509938105+509682767+508063223+507775556+510674514
3588+515096144+517025531+515422265+512617059+510374370+509145036+509146738
3578+510073601+510599365+509725078+508404884+508841773+512343231+518173816
3568+523938722+527090183+526528915+523045776+518889353+516167918+515006191
3558+514234108+513924264+515410411+518734403+521991356+523653041+524037750
3548+523927436+523211729+521405133+518669406+515971906+514457628+514433183
3538+514829746+514365350+513328002+513034891+513790073+514804110+515495939
3528+515741636+515513805+514994848+514281466+512809556+510300354+507893527
3518+507012831+507701031+509106639+510862813+512852206+514283621+514368696
3508+513561221+513220808+514053749+514911531+513845145+510855270+508131113
3498+507215479+507623556+508068781+507813273+507165739+507291139+508800256
3488+510504818+510591141+509025705+507276393+505845432+503977583+501760586
3478+500482817+500700779+501667287+502674802+503754063+504793112+505112143
3468+504388268+503234992+502440392+502090734+501558618+500033904+497313717
3458+494368365+492709290+492778655+493299370+492826070+491548754+490656545
3448+490471705+490461609+490592171+491138579+491693041+491800860+491804149
3438+491907544+491606719+490898498+490533753+490436768+489573824+487907148
3428+486964404+487858769+489790481+490986976+490683598+489562367+488479590
3418+487803470+487743861+488169293+488335416+487637858+486367235+485240332
3408+484696306+484891298+485726223+486828001+487895351+488942568+490061814
3398+491145215+491826439+491556751+490126528+488232021+486920562+486279097
3388+485323138+483548928+481899835+481640470+483007795+485388362+487970444
3378+490052229+491476837+492764759+494228219+495243390+495065980+494160159
3368+494146376+496111608+498961676+500086991+498304954+495312981+493650957
3358+494341312+496654273+499101426+500463590+500476748+499803465+499261651
3348+499129671+499226373+499252633+498764756+497477232+496069184+495759908
3338+496672252+497710394+498297411+498842855+499459989+499736085+499631160
3328+499376445+498790902+497742325+496952829+497356142+498635953+499177086
3318+497850881+495418758+493457610+492616161+492592170+493006145+493806474
3308+494861120+495493453+495029511+493842659+493046697+493123662+493670297
3298+494279604+494836788+495121222+494836448+494073496+493389379+493221782
3288+493427209+493844927+494934965+497190415+500138660+502515201+503433160
3278+503083672+502424681+502306654+502751142+503260458+503757522+504467331
3268+504897130+504071789+502005318+499920471+498768953+498369271+498121306
3258+497731152+497054296+495971858+494595232+493343155+492701974+492752281
3248+492935022+492664484+492007592+491341795+490871047+490829474+491434243
3238+492384644+493172608+493807551+494456673+494960260+495271748+495431519
3228+494898099+493162967+491174368+490694091+491933974+492957596+491990180
3218+489565033+487484836+486588884+486494961+486743833+487212823+487728604
3208+487981504+487676822+486541695+484533699+482274505+480903040+481101265
3198+482252045+482914439+482429455+481701894+482014176+483385868+484506589
3188+484280970+483031956+481751407+480529334+478565634+475763406+473421491
3178+472865781+473905369+475095794+475430252+475271389+475198622+474775033
3168+473425205+471621361+470178943+469206933+468419451+467814908+467561725
3158+467656641+467804331+467326862+465629134+463208326+461602366+461784908
3148+463038346+463773252+463148376+461531867+459748610+458498859+458217460
3138+458747363+459203734+458769738+457599078+456477591+455800026+455349356
3128+454908611+454597605+454515082+454396714+453883656+452946073+451898715
3118+451199626+451117273+451307302+450951263+449695245+448311018+447921092
3108+448657529+449501898+449398702+448338583+447305404+447232608+448113191
3098+449065577+449151446+448143676+446607733+445354295+444915535+445294856
3088+445862079+445757040+444813275+443774339+443336827+443466935+443711866
3078+443591371+442821811+441724713+441085346+441200368+441526800+441466425
3068+440981725+440398820+440124510+440371426+440844839+441038810+440825017
3058+440351234+439702197+439056025+438685552+438552211+438395276+438231648
3048+438157406+437855050+436981018+435838149+435133502+435176039+435561400
3038+435696046+435464642+435079649+434502756+433546712+432404807+431488124
3028+430898300+430592342+430685981+431122444+431527883+431755997+432010371
3018+432235593+432050328+431427664+430780783+430241663+429477746+428400839
3008+427525729+427347667+427690718+427919173+427683487+427225415+426923427
2998+426746981+426326484+425504065+424609530+424145219+424334681+424974530
2988+425546035+425499045+424683431+423531970+422584377+421857666+420968633
2978+419853272+419001133+418844651+419238719+419720385+420053283+420359496
2968+420774577+421183788+421376993+421274704+420824970+419871024+418460424
2958+417153134+416584124+416731389+416952981+416724470+416133284+415701216
2948+415846042+416453478+416978163+417044607+416754047+416326574+415886368
2938+415641068+415667640+415543516+414851232+413897684+413252504+412859230
2928+412249498+411396423+410773901+410629813+410647451+410394438+409904350
2918+409615889+409724416+409873439+409650855+409135130+408720106+408601087
2908+408680802+408842132+409032587+409160029+409147636+408987809+408602845
2898+407915921+407117152+406541535+406295895+406233450+406216350+406246211
2888+406448633+406932965+407503449+407698838+407331116+406679725+406021075
2878+405389223+404825062+404395604+403997680+403509945+403071923+402916292
2868+402938582+402732247+402173446+401699947+401771665+402282540+402765398
2858+402971222+403026209+403151609+403340107+403319718+402901971+402227100
2848+401527897+400974683+400817861+401151270+401485870+401164655+400251659
2838+399500220+399419456+399730178+399763868+399196588+398328114+397661779
2828+397366342+397252228+397129947+397068806+397261699+397616320+397727286
2818+397442909+397077569+396820671+396472402+395987985+395679106+395688096
2808+395748755+395557733+395077201+394503682+394117499+394091891+394341359
2798+394533941+394294086+393565164+392774959+392379984+392284332+392031943
2788+391504535+391024230+390825466+390796796+390672501+390258016+389599394
2778+389007074+388743285+388781200+389050717+389595225+390182555+390245227
2768+389530483+388397880+387398335+386832756+386591058+386306312+385845291
2758+385541658+385691929+386064132+386211766+386006622+385584026+385017710
2748+384319074+383631499+383212079+383175043+383343463+383465886+383498186
2738+383513358+383409680+382944575+382135654+381443285+381367484+381867441
2728+382319643+382152102+381459790+380861373+380749442+380866732+380729308
2718+380265139+379775391+379411553+379051913+378671628+378456388+378454687
2708+378479557+378514778+378801226+379245572+379230088+378456190+377564633
2698+377403132+377973673+378516309+378451652+377906606+377378829+377180065
2688+377263042+377423692+377566334+377765750+378071112+378289585+378050978
2678+377173203+375980452+375121705+374927025+375091673+375205957+375307452
2668+375541238+375684362+375499069+375139315+374819859+374534971+374311791
2658+374243930+374186391+373863219+373263327+372613355+372084075+371742612
2648+371628725+371704130+371820201+371828708+371715984+371608279+371588400
2638+371531343+371247221+370754835+370245293+369844193+369615114+369706882
2628+370235311+371033087+371700840+371938426+371742244+371301272+370846858
2618+370606436+370695566+370949742+371053562+370919682+370723528+370562481
2608+370369871+370141104+369987005+370015364+370292765+370767455+371194077
2598+371332920+371194106+370917555+370540843+370068507+369667662+369616419
2588+370012358+370582530+370867871+370645429+370146748+369838805+369961880
2578+370263329+370269653+369839428+369283974+368963553+369008785+369362413
2568+369833700+370196828+370403617+370582105+370771992+370820343+370567443
2558+370026281+369409091+369026140+369042872+369285704+369393267+369178850
2548+368765867+368423271+368363718+368619482+369018966+369310120+369341258
2538+369137929+368879499+368805002+369014939+369335983+369488182+369383171
2528+369110846+368683657+368072507+367527289+367486595+367989303+368523319
2518+368670357+368547735+368431892+368384108+368417797+368614037+368937776
2508+369225329+369391140+369464418+369455911+369302691+368939619+368419754
2498+367976145+367892630+368248016+368812347+369257828+369470629+369565998
2488+369648775+369752652+369926630+370086515+369926489+369345483+368775084
2478+368706060+369092754+369514867+369691653+369585168+369222011+368686776
2468+368229158+368182707+368671888+369400101+369833899+369701409+369243081
2458+368881938+368770972+368799954+368880634+369006743+369129478+369161494
2448+369090287+369018994+369082914+369307313+369591775+369878279+370198587
2438+370482482+370533782+370291687+369897365+369480270+369113257+368915543
2428+368962362+369167024+369404497+369646167+369893168+370113909+370299344
2418+370465807+370605018+370734843+370954960+371330566+371740429+371938285
2408+371785235+371431011+371255360+371538999+372171333+372776273+373161663
2398+373500828+374007421+374668142+375469094+376710990+378906435+382494727
2388+387843815+395385910+405456007+418008960+432730729+449408826+467921763
2378+487809879+508091581+527714350+546249633+564008068+581181074+597174147
2368+611428174+623747483+632663510+635739650+633026780+627290231+620199743
2358+610829076+597530157+579955881+559663289+539780475+523984096+515023376
2348+514267003+521738400+534845333+547716779+555442890+558286776+558956770
2338+559170648+560011132+562635979+567113191+571610367+573912892+573547637
2328+571767812+569816646+567658578+564213212+558848441+552396299+546274418
2318+541060060+536315939+531415791+526177045+520677799+514725784+507959205
2308+500389631+492416519+484469326+476956639+470259935+464401049+458902058
2298+453242417+447401198+441807604+436823062+432453810+428522411+424862259
2288+421327593+417906842+414863994+412503333+410830221+409633244+408733605
2278+407991042+407250209+406398609+405388854+404249729+403133914+402226306
2268+401583820+401135872+400785221+400444297+400045522+399570946+399016030
2258+398378762+397746003+397262323+396930531+396585013+396117923+395582631
2248+395075188+394681291+394498890+394533430+394617626+394560456+394340537
2238+394159129+394336000+394988383+395759956+396125949+396005341+395770080
2228+395656363+395495430+395076520+394518173+394121611+393954835+393787408
2218+393450880+393022556+392617429+392258866+391966463+391767076+391647546
2208+391644228+391865820+392276959+392600924+392567206+392196931+391785055
2198+391635351+391830173+392197073+392440728+392366344+392084264+391981833
2188+392391384+393263601+394213917+394879260+395179631+395267003+395331547
2178+395477847+395713760+396012515+396342720+396604439+396647969+396506290
2168+396490665+396864825+397558810+398346689+399068153+399534392+399557561
2158+399281606+399180112+399527983+400084260+400401334+400304150+400040361
2148+400036107+400462276+401021191+401265299+401110774+400871912+400827758
2138+400958802+401101019+401185896+401296465+401568024+402026436+402486153
2128+402686646+402601146+402512243+402705675+403193551+403795599+404357973
2118+404834194+405296434+405906422+406734258+407606418+408258433+408613196
2108+408815078+409028532+409276780+409485072+409661688+409965519+410539038
2098+411327172+412082354+412545417+412714064+412898025+413316452+413743471
2088+413867425+413849616+414097638+414629158+415084480+415257494+415254147
2078+415227235+415276636+415541474+416112526+416865978+417577205+418173211
2068+418727957+419259193+419682782+419963557+420204887+420563875+421084023
2058+421608992+421946797+422115812+422289762+422551453+422876042+423284912
2048+423866683+424692166+425750101+426888149+427867079+428599404+429221472
2038+429839145+430399136+430869601+431326113+431847708+432507946+433416235
2028+434621010+436002769+437285671+438193251+438792803+439639611+441219538
2018+443259777+444967657+445970720+446638700+447499205+448744646+450287282
2008+451964705+453621653+455170471+456675221+458292978+460040531+461704059
1998+463134764+464582258+466466300+468748861+470780735+471964412+472431076
1988+472857444+473789355+475266767+476912684+478306155+479324786+480136685
1978+480972858+482011680+483327109+484848023+486538803+488546232+490882277
1968+493196940+495257626+497300673+499510126+501646472+503569110+505614085
1958+508054035+510626192+512986398+515233512+517582658+519896187+521969010
1948+523998785+526419735+529412332+532617163+535210475+536645349+537476418
1938+538828940+541093352+543689897+546010232+548056511+550091164+552181797
1928+554396071+557161745+560872602+565011215+568366685+570561903+572392773
1918+574304294+575763443+576526225+577310730+578844461+581062026+583321957
1908+585103597+586409328+587534586+588615038+589580525+590442108+591408162
1898+592694780+594251595+595784929+597260640+599114877+601413319+603181687
1888+603516032+602947788+602570338+602654563+602924817+603320133+603921783
1878+604730108+605796381+607120998+608473407+609723328+611113737+612694486
1868+613599457+612796350+610655977+608619395+607515690+606965822+606395649
1858+605988651+606205081+606936329+607653227+608021886+607937605+607354671
1848+606696191+606907517+608102423+608549464+606752964+603752881+601215605
1838+599387230+597760710+596430421+596228056+597683235+599915546+600925556
1828+599944868+598190793+596392364+593965686+590908149+588334347+586876900
1818+586031878+585132693+584279164+584021500+584356922+584423564+583457566
1808+581774500+580374053+580085422+581218110+583299157+585157478+585934666
1798+585872505+585824295+586665800+588833681+591136830+591055612+588355616
1788+585730146+585194911+586394978+587885322+588975983+589803649+590592917
1778+591763662+594034143+597880836+602890390+607322343+609182138+608404439
1768+606353622+604362131+603726961+605200800+607854061+609677785+610267014
1758+610952832+612155111+613277307+614770145+618031636+622987707+626941254
1748+627690084+626625966+626481679+628230480+630923329+633056442+633744983
1738+633860401+635806746+640972952+646810683+648756234+646950716+644003889
1728+640899050+638408565+637614759+638602536+640890259+645022634+651966679
1718+660373561+665600623+665011791+661360374+657993844+656331025+656750501
1708+659184326+662836935+666275495+669104351+672600195+677315730+681141608
1698+682174815+681079503+678408206+674852356+672300390+671861347+673202582
1688+676135116+681585756+689321509+694457996+692704487+687886408+684992044
1678+685637253+689118747+693043823+695077285+695697821+696829772+698461453
1668+698848715+698107825+698378590+700544315+702826423+703047278+702077707
1658+702813605+707313163+715776478+724598185+726148080+721709663+719613416
1648+721859168+724755233+723852191+720286359+718013099+718754896+722533302
1638+728896059+735912985+738994911+736307506+732604363+732171048+735533551
1628+740907056+746440956+751886321+757351537+761822680+764981797+768716872
1618+774732296+781349143+784589422+784512344+784526750+786077837+788117878
1608+789565230+790879638+792749983+794577563+795415665+795568516+796017258
1598+796839820+797317374+797186642+796989325+797359798+798371850+799689264
1588+801214772+803351685+806317115+809491999+812150648+814757686+818781732
1578+824783147+830225789+830707711+827021526+824827045+827572755+834004139
1568+839540024+841966702+843144934+845456817+850983684+861769942+875315068
1558+879265779+870373347+860179267+854202014+852460869+853710791+856007985
1548+858053074+860681663+865097451+870497103+875671532+880535098+882350881
1538+878375612+872352304+868068382+865101762+861553285+858444362+858485198
1528+861523735+864430577+865870045+868915502+875838846+882742170+883885520
1518+880279363+876598055+875369062+876780796+880492674+886697475+895897142
1508+906556978+911613437+905981304+897433425+893177068+893445791+895989590
1498+898457217+899403875+899359296+900582277+904831998+911684333+918183777
1488+921243470+921139508+920295905+920640402+922688893+925355710+927599137
1478+930347852+935334493+942078386+947023850+947130364+944374446+943091288
1468+944757624+947901541+949749199+948908034+947591244+948630520+951765646
1458+952495702+945994500+936280413+930709875+930232264+932105274+933626642
1448+933552740+932093421+929946072+927733045+926231018+926112197+927339148
1438+928912865+928909915+926683503+924473086+924393739+926574608+929895991
1428+933169279+935702471+936531441+934925169+932209576+930916153+931838593
1418+933229512+932784116+929693910+925577189+923414980+924880198+928613401
1408+931628344+931992352+929712342+926675847+926025080+929376637+934678679
1398+938128469+938268842+936014696+932218367+928395779+927256512+930206912
1388+935121749+937931719+937972838+938539267+941016877+943113068+942975757
1378+942104532+943264331+947052776+950986472+952478914+952651673+954645150
1368+959524142+965899660+972207799+976973585+978740309+978298259+977958413
1358+978152724+977709654+976765435+977112428+979991251+984618535+988654038
1348+990394558+990730775+992012230+995551463+1000974254+1006533847+1009715537
1338+1009654623+1008646428+1009163684+1011002551+1012966875+1015749054
1330+1020919003+1027375626+1031042470+1029826012+1026539849+1025030052
1321+1025719386+1026002175+1024783675+1025132596+1030964995+1041956114
1312+1053310219+1061211868+1066430253+1070523153+1072171679+1070699769
1304+1068713325+1068970819+1071585683+1073741823+1072966506+1070445338
1295+1068937583+1069188951+1068864759+1065229335+1058687978+1051845228
1287+1046313880+1042969073+1042586916+1043448782+1041226057+1033945001
1278+1024456760+1016142894+1010735529+1009371721+1012255308+1017979039
1270+1024055660+1028049873+1029416404+1029669474+1029636124+1027881765
1261+1022781351+1015935992+1010729971+1008205853+1006382640+1002976012
1253+997897944+992840067+989064099+985929030+981798016+976273021+970601584
1243+965618005+960595860+954554290+947465333+939876929+932392998+925558586
1233+919565791+914031948+908015447+900935168+893875420+888516491+885192612
1223+882937558+880757597+878138763+874914252+871470417+868571119+866349755
1213+864282546+862161627+860501928+860466537+862865311+866710926+869730407
1203+870958890+871640737+873101644+875065515+876294565+876477419+877389536
1193+881066193+886938067+892287808+895339390+896449845+897106397+898987972
1183+902897223+907936781+911934113+913532445+913721935+914565709+917057384
1173+921006508+926516586+934005112+942733520+951037404+958523888+966347382
1163+974260374+979549882+980851075+980459617+980559211+980394053+979245994
1153+978565735+979507458+980367509+978897300+976984588+978725789+985181845
1143+994279195+1003622014+1011710829+1017433878+1018429142+1013608794
1134+1006610528+1003172365+1005441484+1011435866+1018595776+1024934428
1125+1028175103+1026945373+1022990181+1020001895+1020470714+1024243506
1117+1029424458+1033264515+1031888002+1025395874+1018894672+1016259163
1108+1017928221+1020505652+1021003964+1021206329+1023020354+1023967522
1100+1022022709+1020137561+1022107670+1027838547+1034177199+1038943439
1091+1043671112+1049695213+1053888048+1052440866+1046218710+1039617460
1083+1035983284+1034832049+1034907142+1035996215+1036806810+1037292304
1074+1037812055+1035635044+1029053191+1022386036+1020642566+1022158942
1065+1021399166+1017129537+1013858007+1014533503+1015884607+1013753535
1057+1006938463+997517148+990374707+989886944+995690759+1002369711+1005354027
1047+1003544653+997471207+990141602+986165085+986831165+989414495+992515874
1037+998424501+1006515017+1009709525+1004092309+996488308+995286596+1001806061
1027+1011581288+1017488440+1013642257+1002040641+991638241+988268478+991152860
1017+995620997+997855406+999041805+1000816242+1001757398+1001778496+1003428270
1007+1006591244+1006506282+999282964+987296128+975608189+965881057+956511241
997+946619347+937910960+933600892+935188958+939388769+940762503+937952363
987+933341981+927648991+920086904+912558393+908723724+909559557+912372419
977+913017798+909067087+901790795+894084875+888040128+884360352+882073594
967+879748438+877562465+876860086+877159834+875997199+872840237+869957444
957+868824756+868756412+869040392+869674825+870611840+872120560+874688916
947+878004061+881420388+884825088+887654001+888460058+886859231+885105269
937+886518477+892297676+900814021+909640152+917722671+925373292+932252965
927+936593433+936874293+934247802+932197042+933105472+936016795+939029866
917+942141625+945888497+949382129+951780165+953973965+955837674+953999601
907+946557356+937380546+931609231+930259034+931614619+935193609+941541336
897+949167456+954273202+954429513+951802852+950859540+953429258+957138073
887+958621327+957985193+957638654+957816404+957425740+957397949+959898472
877+965181968+971284452+976205869+978013088+975737956+971224446+966558367
867+962898442+960887157+959944639+959187019+959393807+962147514+966695055
857+969486421+968359915+965718394+965928246+971471844+981187632+991413303
847+999671700+1005295382+1005430368+999302928+992807057+991235439+994974200
837+1001315689+1006311404+1007303605+1006137171+1007225790+1010500949
828+1010700478+1006605650+1004174888+1007968438+1016345146+1025569881
820+1032827003+1034149068+1027147398+1016802395+1010486770+1010304823
811+1013699541+1017296170+1019352829+1019375743+1016841870+1013265999
803+1013450442+1020537186+1030841013+1036655149+1034193420+1026430273
794+1019729541+1018759006+1023566082+1028821106+1028907769+1024934995
785+1021177177+1018154293+1013025180+1004381223+995458334+990521150+989471438
776+989027007+988285380+990390702+995974569+999708906+998809380+996619891
766+995521970+994796224+994447076+995790353+997960218+997757513+993647712
756+988168543+986382990+990533287+998300405+1006018633+1010904999+1009704421
746+1001026661+990464547+984938984+986548716+993283818+1001690018+1008487168
736+1010385814+1006841251+1001694669+998898992+998361999+997967251+999349209
726+1005963164+1015071063+1020817140+1023123125+1024476951+1025893279
717+1028974808+1032155591+1028838234+1017892376+1006856338+1000204836+997442055
707+998532716+1002818112+1006512521+1005849050+1000917765+995467182+995379384
697+1002375042+1008732978+1006923150+998893321+989410865+980532101+976346980
687+983606937+1001585773+1015718313+1011481467+996888728+987022187+985651005
677+988885782+994352473+1002721127+1012260299+1014578989+1002277943+982055056
667+974270924+984173877+997127618+1001497182+995277408+984330642+975727861
657+971297724+971323813+975627699+978901724+976832701+971021854+961123211
647+949611037+944496443+944749229+944722346+945897968+950383631+955415248
637+959364995+966316868+976043886+976113307+957263871+928167778+903476073
627+893160620+901714398+925151133+949087826+957948440+947127018+926926591
617+910983259+906857406+911893050+914576939+908036715+898318942+893936107
607+897021662+906646420+921204732+937159919+948529451+945677908
##END=
