##TITLE=<SNM>
##JCAMP-DX=4.24
##DATA TYPE=INFRARED SPECTRUM
##DATE=29/4/2025
##SAMPLING PROCEDURE=Instrument type and / or accessory
##ORIGIN=Admin
##XUNITS=1/CM
##YUNITS=ABSORBANCE
##RESOLUTION=4
##FIRSTX=4497.3318
##LASTX=599.83466
##DELTAX=-1.4281778
##MAXY=2.1763844
##MINY=0.44020998
##XFACTOR=1
##YFACTOR=2.026916e-09
##NPOINTS=2730
##FIRSTY=0.44753593
##XYDATA=(X++(Y..Y))
4497+220796490+221420571+222648869+222988868+222276479+221505468+221336659
4487+221551666+221709388+221746072+221976017+222620330+223229119+222924114
4477+221634754+220451051+220281787+221009320+222214593+223677481+224913498
4467+225239543+224541593+223319662+222242499+222072206+223163675+224571470
4457+224684230+223316457+222110817+222379608+223609067+224438626+224330248
4447+223772259+223393384+223477061+223933612+224330263+224334703+224176364
4437+224124784+223895590+223291888+222911131+223422688+224468327+224947419
4427+224240999+222679113+221024744+219930834+219738942+220309826+221008864
4417+221326573+221452095+221824911+222478943+223167101+223590864+223294887
4407+222019671+220307180+219124344+218911117+219488765+220578411+221801901
4397+222432804+221850745+220342982+219044197+218933658+220099305+221863743
4387+223288770+223688435+223003600+221719562+220364537+219231737+218493882
4377+218234884+218364038+218728106+219190318+219570868+219781096+220017819
4367+220568369+221328720+221784227+221585439+220918101+220234560+219796343
4357+219582278+219567722+219891297+220614699+221444155+221962064+222065251
4347+221874564+221435480+220859611+220411411+220205859+220241000+220586762
4337+220974723+220738206+219715578+218569178+217841527+217424924+217182158
4327+217385534+218212770+219141062+219275244+218430246+217486266+217279288
4317+217709977+218373903+219230796+220145370+220695479+220843585+220969077
4307+221134930+221041344+220676938+220500645+220931672+221857538+222606156
4297+222502600+221693508+221134695+221421850+222010335+222044593+221476694
4287+220804753+220320942+220115566+220224929+220351966+219977385+219140430
4277+218670101+219283478+220682510+221811517+221949772+221315663+220679334
4267+220742647+221718783+223000939+223522097+222958005+222116625+221753806
4257+221710564+221604465+221584116+221950419+222661631+223597848+224817045
4247+226213474+227228368+227207710+226026213+224278610+222920115+222662999
4237+223420056+224275052+224260040+223262599+222029096+221358950+221430790
4227+221802180+222010526+222134621+222534668+223200301+223835909+224437803
4217+225170967+225802003+225885914+225455211+225014936+224863536+224788167
4207+224489985+224085850+224005335+224438200+225027904+225232353+224961710
4197+224604053+224370565+224048548+223636062+223668056+224432612+225337747
4187+225519141+224784315+223761437+223314928+223744352+224460813+224711784
4177+224506967+224328881+224278522+224190199+224209270+224583556+225109699
4167+225325763+225194316+225167409+225483324+225821823+225859801+225682833
4157+225401441+224966268+224608346+224831924+225747968+226832718+227375945
4147+226986764+225927201+225017156+224836997+225140826+225442537+225813986
4137+226539049+227370005+227714136+227334938+226541269+225859537+225628930
4127+225810222+226170511+226512804+226624622+226352112+225917468+225758658
4117+225928260+226124931+226295107+226650985+227134429+227317118+226817074
4107+225710519+224679275+224656382+226017494+228085599+229584188+229673833
4097+228568720+227149088+226073499+225464901+225316133+225651647+226192772
4087+226408690+226166159+225963827+226277904+226937332+227380856+227408013
4077+227396309+227730574+228251614+228403676+227890737+227097656+226676951
4067+226739131+226748159+226303605+225655926+225265186+225202535+225199889
4057+225171203+225482074+226470223+227756805+228481412+228327498+227807854
4047+227495145+227568529+228047547+228811133+229439595+229591804+229398338
4037+229074498+228535461+227829997+227431744+227628680+228094304+228386105
4027+228406366+228239160+227987999+227794460+227717194+227685861+227684626
4017+227801914+228070705+228332791+228267082+227717591+227051017+226905955
4007+227517288+228530594+229379606+229684670+229528536+229368740+229414644
3997+229324086+228826174+228212636+227869520+227775551+227727648+227757437
3987+228072308+228583335+228794915+228462871+228071073+228211562+228814353
3977+229433979+229890780+230208371+230326836+230226515+230062118+229958019
3967+229893206+229914423+230240219+230987322+231874401+232378767+232212973
3957+231574939+230963414+230785196+231114844+231841700+232834157+233742703
3947+234049428+233736042+233437845+233581334+233841612+233745511+233360844
3937+233160070+233659644+235094258+236970353+238109181+237773608+236627281
3927+235982836+236441799+237421244+237882486+237698916+237779078+238563101
3917+239035532+237943740+235707650+233920510+233384869+233585701+233981955
3907+235176552+238187815+242676610+246625750+248422050+248051792+245835934
3897+242243407+238849374+237548295+238749642+240623855+240894777+240058293
3887+240533562+242892219+244922448+245084846+244617120+244473351+243900761
3878+242918170+242847359+244143483+246142130+248538883+250835859+251160684
3868+249054204+247042177+247030385+247935489+247666831+246069143+244477777
3858+244273504+246864473+253055673+259465070+259283543+253062789+246413626
3848+242679786+242584788+245057557+248270489+251193620+254123720+257192207
3838+258882908+257682326+254675034+252007299+250422491+249507065+249056144
3828+249050822+249074082+249300337+251088285+254596695+256734376+255524531
3818+253698118+253494654+253145569+250526179+246976747+245237731+246758374
3808+250568495+253832918+255533882+257631835+260664446+261925429+260462953
3798+258826095+258294806+257859060+257014474+256500535+256723113+257566111
3788+259363588+262597281+266713848+270493710+273715376+277061902+280468006
3778+283201612+285548962+288682731+293316677+299433420+306314616+312543604
3768+317127088+320133263+321825023+322913566+325048983+329157875+333851222
3758+337184162+339860454+344658136+353680807+366374005+378257259+384725851
3748+387629926+391747934+398362648+403693147+404729729+404309450+406835239
3738+414459657+425437805+434734104+438789064+438711254+437748130+437945184
3728+439139326+439817912+439031051+437468650+436046107+434524288+432473503
3718+430463947+429620331+430844556+434424188+439079248+441670908+440312501
3708+436508702+433209167+432833528+435844055+439713136+441057810+439873461
3698+438836644+439803973+443208077+449038665+456777239+464273708+467869367
3688+466062686+461593594+457418684+454618944+453742951+455239716+459038104
3678+464876984+471645200+476085945+476282351+474301319+471881688+468259622
3668+463296793+458973057+456721425+456129588+456070305+456313350+457682314
3658+460364193+462555835+462606091+462291911+465116677+471854781+477236742
3648+475159109+468282441+462149466+458272298+455661524+453488820+451772829
3638+450923744+451597771+454435300+459449943+466193310+473875688+479804994
3628+480123114+475491168+470663903+469143701+472022457+477966113+483134847
3618+484527248+483821549+484075622+485354366+486059065+486393800+487915973
3608+490185689+490778702+489198834+487948526+488989518+491384860+493159311
3598+494159575+495626610+497943024+500318017+502419998+504788991+507262496
3588+508278669+506922673+504586380+502943141+502308665+502355715+502840336
3578+503507041+504064531+504317663+504142106+503837454+504435760+506689009
3568+509444816+510150750+507999542+504877564+502809635+502216916+502135813
3558+501600378+500977371+501248146+502264732+502955609+503229326+504283022
3548+506690655+509280433+510276551+509193801+507152750+505608200+505178923
3538+505443052+505734060+505878270+506028949+506264848+506277434+505356127
3528+503332249+501269202+500204801+499842630+499508571+499300491+499296374
3518+498962433+498312665+498377536+499577971+500608671+499796168+497130639
3508+494159046+492297169+492089559+493439820+495654782+497662368+498659310
3498+498411295+497268614+496321076+496848394+498874036+500823574+501237384
3488+500449346+499798991+499681953+499222916+497549623+494932733+492660899
3478+491885330+492476637+492957758+491979137+489875038+488110732+487151372
3468+485884155+483700688+481922531+482134729+484095795+486108939+486985872
3458+486910503+486458583+485726212+484821490+484280144+484477962+485078886
3448+485295436+484625554+483356866+482348985+482284026+483020514+483573887
3438+482895595+480867071+478514016+476978199+476469436+476396037+476058567
3428+475089415+473675900+472430620+471863720+471968467+472182693+471708218
3418+470264621+468663668+468046718+468499462+469112030+469348253+469492963
3408+469786352+470046600+470208336+470489493+471045600+471825874+472502990
3398+472385834+471160756+469766532+469372249+469799879+470263474+470967261
3388+472380688+473856221+474584416+474818610+474775706+473787616+471798055
3378+470233597+470412447+472200220+474664902+477056009+478991902+480367836
3368+481012545+480533777+479242770+478652021+479948410+482483138+484470258
3358+484747679+483577151+482350868+482568476+484491548+486863041+488171516
3348+487866422+486210068+483835958+481815109+481177604+481919091+482961642
3338+483282409+482788849+482001429+481392213+481251474+481726507+482692719
3328+483658313+483939646+483190043+481788290+480525190+479928560+479963936
3318+480213510+480203423+479780851+479413563+479820932+480961289+481741857
3308+481172723+479631142+478541776+478877981+480287997+481693454+482375687
3298+482278027+481685985+481254973+481993313+484185161+486488783+487268205
3288+486699393+486198394+486238328+486222536+485962876+485919561+486233799
3278+486599293+487051184+487925441+488900240+488880390+487353219+485430559
3268+484847662+486054537+487667369+487866481+486202922+483870158+482418238
3258+482544157+483988196+485949938+487327253+487213861+485730594+484128553
3248+483709657+484605998+485639404+485426030+483581180+480898359+478764031
3238+478363719+479787379+481719656+482547597+481936823+480870247+480256061
3228+479950821+479196954+477770412+476195955+474962996+474205365+473976053
3218+474031014+473689839+472804495+472150846+472132202+472144053+471824404
3208+471749740+472238331+472500284+471666314+470029133+468635203+468061157
3198+468131997+468559686+469239213+469865985+469937149+469351664+468363192
3188+466925622+464813319+462365399+460477173+459700105+459770004+460015667
3178+459748302+458410803+456081126+453773681+452599565+452669876+453139764
3168+453115592+452293884+450983351+449731366+448867519+448376841+448077276
3158+447673435+446883163+445906924+445507465+446186728+447440947+448176082
3148+447809029+446623327+445118504+443620710+442623504+442678200+443474119
3138+443741777+442623828+440623534+438920188+438274890+438586482+439006496
3128+438719488+437821735+436950977+436280625+435602156+435011349+434714813
3118+434455183+433740191+432534992+431457859+431215108+431763217+432170821
3108+431688083+430732605+430237986+430300799+430097541+429063870+427625301
3098+426579456+426124478+425817738+425335647+424852320+424711786+425113274
3088+425965183+426763894+426927954+426407340+425615715+424845322+424089043
3078+423190585+422015469+420780187+419989650+419673676+419195290+418248164
3068+417427073+417388757+418030232+418718198+418922280+418607277+418287127
3058+418556550+419302036+419592808+418688880+416963891+415471007+414789863
3048+414645271+414505237+414197673+413950099+414019087+414354969+414643506
3038+414671178+414553640+414476183+414254340+413381612+411720082+409952306
3028+408956864+408922576+409422370+410038879+410446483+410223434+409203791
3018+407893023+407090194+407110631+407512884+407502533+406580431+404937692
3008+403323389+402432781+402291306+402323301+402053113+401482773+400768193
2998+399971716+399299806+399104781+399322331+399301335+398591431+397652597
2988+397346062+397878174+398654831+399065964+398986184+398547527+397919726
2978+397400965+397324772+397694971+398035235+397732377+396599224+395077140
2968+393853915+393307570+393283810+393305894+393040206+392609546+392357650
2958+392341947+392221674+391645129+390645776+389690003+389292427+389440400
2948+389583875+389390439+389149334+389174124+389251316+388956662+388212588
2938+387391351+386960250+386943430+386843036+386322863+385646835+385197209
2928+385061880+385249464+385627015+385582170+384531797+382775372+381190387
2918+380278431+379993481+380118694+380350359+380349330+380084200+379864239
2908+379803250+379642455+379323570+379223147+379490776+379649071+379233027
2898+378439873+377796281+377502157+377382501+377275432+377168451+377006391
2888+376732969+376539709+376637956+376751907+376394823+375685919+375255789
2878+375350743+375627958+375746026+375674509+375515566+375343479+375166128
2868+374919260+374572527+374246732+374138339+374285872+374426288+374203298
2858+373611344+373087966+373005686+373179009+373094259+372566088+371872857
2848+371275139+370786284+370449256+370410998+370565118+370443404+369711592
2838+368646545+367912175+367868476+368217003+368378827+368100612+367546563
2828+366982927+366600289+366428966+366228384+365730501+365142693+365023214
2818+365497631+366011157+366042946+365686185+365275464+364850568+364327014
2808+363823956+363448316+363053386+362529802+362038977+361703272+361348864
2798+360770613+360045270+359429409+359079676+358937819+358801402+358474224
2788+357924174+357366773+357130403+357338690+357746500+357961991+357826398
2778+357531979+357369478+357402620+357411412+357124992+356470549+355631874
2768+354892387+354364539+353883477+353279083+352677543+352301491+352075943
2758+351743825+351296992+350982136+350918883+350955729+350872479+350547213
2748+349985195+349346661+348881037+348686659+348590971+348361276+347946702
2738+347452907+347001251+346656459+346379949+346070092+345719801+345435822
2728+345243180+345022425+344715361+344431588+344287437+344264353+344260118
2718+344225359+344202599+344190307+344039186+343646521+343212656+343049597
2708+343132700+343108204+342758501+342209186+341674428+341203570+340692954
2698+340067006+339460378+339153256+339226801+339415209+339411533+339149315
2688+338747857+338425914+338425561+338755914+339067682+338999783+338540070
2678+337933059+337429384+337131554+336878893+336392126+335691779+335127232
2668+334877982+334759797+334622938+334617322+334933736+335458791+335791997
2658+335627849+335088121+334535454+334109911+333713775+333360808+333203072
2648+333269854+333424003+333516046+333456615+333240888+332964878+332728714
2638+332523368+332276735+331970289+331663961+331466761+331481846+331668637
2628+331772001+331551158+331051716+330479023+329931061+329500932+329433032
2618+329809054+330252211+330333226+330149640+330112206+330251240+330132291
2608+329525486+328842283+328703631+329262062+330120998+330782940+331027632
2598+330937237+330707189+330477818+330294291+330109353+329807848+329359398
2588+328932238+328695162+328574566+328385393+328118382+327952970+328042101
2578+328362721+328760562+329115588+329397920+329537954+329412535+329056010
2568+328704425+328519399+328397568+328134202+327721128+327393363+327333814
2558+327454352+327594768+327780294+328082065+328394392+328569508+328607031
2548+328567302+328481053+328419946+328468437+328587475+328653199+328644906
2538+328689898+328888304+329160756+329350370+329420152+329403802+329239242
2528+328893774+328572125+328498667+328557275+328423887+328004461+327546189
2518+327377718+327627321+328129880+328607883+328964056+329298291+329648935
2508+329897009+329942912+329804113+329510077+329048541+328476465+327972260
2498+327695015+327654464+327758563+327908713+328028897+328091298+328149935
2488+328312700+328643612+329056804+329340813+329369161+329203072+328904684
2478+328475848+328104178+328114588+328490698+328784882+328675901+328338637
2468+328133085+328152434+328216658+328201044+328195368+328283705+328343518
2458+328240595+328093592+328145612+328447588+328820346+329089534+329206484
2448+329135555+328835020+328453381+328300114+328448882+328602678+328518370
2438+328318905+328242183+328347694+328585917+328906448+329193780+329300702
2428+329239360+329198309+329326698+329627733+330039807+330451999+330683487
2418+330631320+330411065+330250240+330304407+330598061+331040954+331518046
2408+331994726+332429355+332638995+332494344+332225568+332264943+332756151
2398+333403066+333842576+334067978+334408535+335132378+336241447+337718744
2388+339765324+342627406+346409415+351273173+357589734+365625314+375277814
2378+386392939+399116250+413551523+429197141+445114976+460529135+474827697
2368+487285466+497293257+504489691+508481692+508943963+505973370+499960315
2358+491226005+480007046+466571891+451449121+436325029+424186203+417616628
2348+417699408+424131301+434930922+446467648+455655790+461758123+465418065
2338+467394539+468216424+468310466+468117970+467759857+466859340+465128352
2328+462816378+460170522+456876545+452458855+447067513+441462327+436168321
2318+431070398+425925101+420828649+416000178+411400609+406770133+401959189
2308+397108516+392479922+388182652+384192122+380568615+377438756+374807280
2298+372597523+370759319+369158631+367575734+365964607+364481663+363230766
2288+362207918+361398678+360758938+360244059+359887269+359676365+359478194
2278+359238413+359034772+358840189+358507072+358017746+357500720+357042419
2268+356655516+356330809+356008925+355609995+355167338+354847453+354769673
2258+354866626+354992163+355089911+355161898+355163721+355055270+354909384
2248+354880418+355051182+355333573+355571737+355738002+355894239+355967638
2238+355793610+355413736+355094557+354988046+354938114+354673984+354125699
2228+353506279+353068973+352836838+352656840+352475814+352405208+352501662
2218+352659193+352801433+353054211+353597645+354412295+355286582+356029274
2208+356603937+357124875+357786875+358732385+359902737+361048270+361974871
2198+362770465+363698331+364907911+366360802+367953344+369549062+370973928
2188+372141457+373107257+373911703+374502098+374893765+375263817+375772933
2178+376398822+377057235+377731675+378314513+378538003+378306603+377888882
2168+377567733+377311043+376947431+376491012+376141897+376006539+375954724
2158+375846449+375756406+375784872+375822512+375733998+375599934+375598111
2148+375804310+376256171+377162158+378930551+381871120+385902231+390707147
2138+396062789+401785866+407567992+413187411+418733607+424401929+430191965
2128+435922041+441443301+446699225+451587097+455957678+459779826+463074538
2118+465736950+467672667+468957469+469733361+470269326+471078065+472519634
2108+474403360+476343047+478331401+480661342+483357660+485912179+487725242
2098+488701069+489101087+488965875+488108644+486519396+484359542+481640699
2088+478157697+473753945+468564215+462884954+456841169+450386250+443590892
2078+436756629+430306974+424587691+419693673+415579841+412293304+409833591
2068+407916812+406195470+404546202+402962100+401441721+400124689+399294042
2058+399090725+399258283+399306334+399068640+398932223+399330212+400273428
2048+401525001+402923371+404506297+406578078+409538761+413529321+418466037
2038+424313121+430999734+438276184+445875224+453506023+460643144+466758828
2028+471789557+476041982+479702865+482668988+484839428+486396947+487583708
2018+488279202+488158018+487232240+485863982+484319431+482628524+480755061
2008+478652050+476243505+473519957+470598238+467644966+464800733+462136821
1998+459633911+457320702+455432300+454193813+453473205+452944034+452505435
1988+452209987+452024755+451996495+452301588+452904394+453556337+454232218
1978+455171875+456490319+458067893+459762358+461548837+463544867+465894775
1968+468447824+470694868+472356486+473847105+475775912+478207305+480697601
1958+482867012+484691248+486383743+488202951+490307344+492701627+495301021
1948+498043713+501048358+504570677+508401647+511464341+512868917+513291372
1938+514293018+516600140+519669480+522592258+525034650+527319305+529835449
1928+532614487+535532030+538535794+541466747+544125100+546646361+549181619
1918+551239726+552231727+552637655+553587017+555473213+557660238+559333002
1908+560313064+561011529+561821033+562776452+563791508+564966242+566401047
1898+567866906+568962183+569593365+570215314+571519437+573659353+575737633
1888+576545961+575975944+574981002+574334116+574097746+574055577+574171204
1878+574514202+574957124+575287830+575696111+576709167+578358229+579658058
1868+579359581+577438391+575125035+573454095+572508909+571803504+570952890
1858+569872199+568578898+567104276+565619303+564489091+564004706+564138976
1848+564860555+566305946+567830853+567560078+564746339+561204377+558676765
1838+557137919+555754634+554296597+553487505+554115041+555722757+556534320
1828+555599014+553799626+551769750+549055465+545729640+542847091+541038175
1818+539936605+539007710+538338476+538393525+539203441+540074640+540256019
1808+539724054+539082462+539051173+540118632+542093930+543885202+544399640
1798+543886319+543766105+545241550+548184501+550669768+550504562+548244314
1788+546434516+546559141+548323476+550740637+553161033+555220905+556649770
1778+557704466+559273483+562304830+566965771+571638416+573763099+572983708
1768+571083573+569662941+569797329+571964300+575086336+577079925+577640885
1758+578204785+579204314+580292122+582206608+586015935+591026579+594909304
1748+596437505+596489613+596304940+596624002+597816556+599592183+601039751
1738+602268416+605167080+610938531+616801260+618018751+615031455+611250476
1728+608622352+608032515+609449559+611793910+614405448+618227714+624352985
1718+631380037+635029099+633250001+628949114+625394742+623943116+624874834
1708+627861012+631558182+634198657+636107967+639827368+646487309+653075440
1698+656282344+656741674+655196712+651938817+648948051+647849128+648488191
1688+650668100+655711033+664067027+670649041+669621340+664393675+660818248
1678+661114137+664884706+669898350+673559762+675780487+677981157+679589285
1668+678709734+676379499+675772488+678184533+681655155+683166123+682731259
1658+683164065+687199175+696101602+706770894+709512527+703679381+699396609
1648+700403137+703401548+703277982+700195585+697624333+697131950+698966685
1638+703167825+708418779+711096718+709579339+707258102+707203935+709402841
1628+711996324+713832646+715927217+719502762+723997203+728539460+733922744
1618+740859989+747032663+748899627+747569921+746609385+747230099+748609914
1608+749755123+750248859+750084888+749773002+750175990+751677842+754045071
1598+757163344+761002607+765005429+768411945+771004134+773081943+775031893
1588+777002015+778802873+780423587+782508278+785534684+789032301+792619962
1578+796702123+800568322+801469280+799504451+798888972+802460105+808757346
1568+813514152+815248023+816180622+818659479+824305834+834381642+847068695
1558+853700170+850680998+844868201+840468861+838483564+838691822+839640419
1548+840424868+842244547+846387933+851828324+856056754+856493265+851392107
1538+843946246+839493562+839154387+840293892+839583547+837311183+836651241
1528+839205143+843831208+848613481+853126918+857196670+859192023+858977002
1518+859350525+861711755+864474031+866266950+867948417+870854669+875455032
1508+881496436+886606297+886802851+883014756+879531077+878961001+882162200
1498+887839962+892109090+892637526+892577595+895913477+902480669+908164841
1488+909431206+907296642+904699630+903450086+904043158+905961819+908501841
1478+911513426+914759147+917402268+918860070+919331280+919262822+919142490
1468+919971520+922375272+924796138+924324281+921253470+919174837+920407796
1458+923793610+925717035+924936937+923105025+920260940+915499487+909797729
1448+905754091+904639523+905181957+905481374+905028690+904602412+905361278
1438+907900712+910947468+911605587+909294995+906602412+905746386+906753620
1428+908327166+909768676+911452319+914021042+917804080+922291404+925331750
1418+924474607+920710860+916885595+913733034+910888301+908715862+907348927
1408+906159784+905222126+905400859+906657461+908010222+909291113+911094089
1398+913352043+915516660+917327517+918017160+916643167+913949408+911897417
1388+911722507+913367863+916224300+919350983+921565592+922837837+924790610
1378+928668160+933651574+937787314+939865946+940240351+940275815+940905116
1368+942240645+944257112+947111255+950764433+954269461+956149011+956258639
1358+956218763+957427079+959661861+961949339+964141363+966594459+969179532
1348+971763723+974417254+976624276+977736491+978570050+981305860+987305918
1338+995249338+1001782537+1004579454+1004748954+1005786770+1010371960
1330+1017967795+1024868458+1027698781+1026903628+1025650555+1027055836
1321+1032442179+1039991080+1045439647+1046960672+1047382127+1049271911
1312+1052323254+1055920736+1059616201+1061997310+1062277496+1063421411
1304+1068625903+1073741823+1071818869+1064675307+1061043008+1064394651
1295+1068521216+1065992722+1058163517+1051088766+1046236447+1040973024
1287+1034297968+1028774474+1026888807+1027635851+1027426124+1023509286
1278+1016501818+1009678553+1005953682+1005363433+1005413895+1004120947
1270+1001596922+998532875+995220872+991512704+986978329+981820416+977192352
1260+974136656+972366146+970228641+966482303+961727907+957031914+952269226
1250+946611637+939629812+931944758+924783376+918289817+911128200+902127144
1240+891514666+880548309+870800796+863504850+858439862+853853672+848381580
1230+842681646+838237725+835149389+832279072+828998534+825657772+822708352
1220+820354297+818799454+818143511+818243082+819100930+820940899+823420108
1210+825435928+826373939+826884790+828070875+830606368+834885612+841148976
1200+848548316+854627594+857167557+856859494+856663411+858637709+862651412
1190+867171025+870272771+871093921+870964884+871975588+874608652+877657937
1180+880134029+882582185+886323994+891689517+897600708+903219009+909189484
1170+916637403+925582941+934379857+940611874+943578643+945287400+947259405
1160+948507420+948945284+951204120+956466072+962131895+965528942+967280985
1150+969694559+973751960+978007502+979805302+978392787+976400786+977029145
1140+980401197+983383376+983133479+980139243+977401315+977034203+977769073
1130+976273867+972530999+971551995+976414372+984584281+992736605+1000245161
1120+1006283388+1008648500+1007303914+1004810002+1002596981+1000492059
1111+998567810+997608921+998787889+1002323853+1007150177+1012770595+1018520991
1101+1021421420+1019736541+1016762831+1014969030+1011541165+1006034609
1093+1003679731+1006567926+1011104184+1013724191+1014107183+1013426362
1084+1011230985+1005517759+996777774+988865172+983978212+980612983+977975802
1074+977960040+980801538+983290745+982970154+980575813+977756252+974946866
1064+971901581+968705204+965300041+961525708+957323921+953964162+954429315
1054+959119133+964598342+966864118+964900876+961674564+960765254+962646804
1044+964869352+965824713+966454131+967294277+966677386+962773429+955958691
1034+949079142+945745378+947630222+952929227+957996567+960466483+960636924
1024+959747904+958547117+958729967+962680857+969495888+973972156+972465481
1014+967514179+963657743+962374087+962552997+962314451+959660096+953460251
1004+944238821+933585291+922998338+913686042+906908652+903011870+900202013
994+895834961+889288177+882308704+877165730+875118445+875236894+874696284
984+871732749+867478089+863798504+861096334+858761452+856316178+853875433
974+851750397+849334412+845179675+839358057+834230669+831647478+830958541
964+830572844+829929252+828860912+827022530+824898376+823658713+823773105
954+824830271+826626365+829198617+831849854+833782336+835214318+836558846
944+838207437+841653181+848589661+858397458+868495380+877149439+883901011
934+888618413+892028928+895669108+900484904+906785791+914672809+922325222
924+925695627+923191775+918625523+916380272+916666339+916933645+915845837
914+914283172+913352043+913256295+913528364+913178015+911373980+908558948
904+906057331+904882363+905311287+906926178+909414268+913375980+919539126
894+927197832+934284050+938748144+939732205+937870828+934559061+931012981
884+927387798+924000455+923307813+928172248+937684567+945741085+946581466
874+941968987+938572352+940064382+944859594+949512419+952269990+952888234
864+951543824+949072496+946830245+945863710+946606403+949276519+954134543
854+960911522+967823830+971725553+970191765+964054379+956837889+952269285
844+953046912+959221703+966696912+970005621+968351149+965886114+966239287
834+970101899+975530528+978784776+977871879+975535762+975654212+977978919
824+979211583+977811713+975307685+973805891+974379731+977370261+981975977
814+986039436+988336677+989831707+991384727+991776540+990088367+987980740
804+988889403+994620273+1003172291+1010420775+1012377488+1006835526+994789537
794+981395080+972865587+971974097+977424958+985493473+990746016+987070312
784+974716142+961792543+953687328+949013095+945814072+945368857+948778372
774+952865473+952701561+946844184+937787137+930563414+928852304+932265525
764+937617461+942022389+946091788+951483482+956567172+958353386+957331390
754+956960573+959266989+962789014+964910345+965828065+967569228+969997564
744+970410432+967385026+963216527+961594049+964232994+968894230+971418960
734+971109426+970638980+970859824+972059200+976696792+984377024+988923279
724+986329737+980799479+979105602+983298273+990560049+996412309+997663147
714+993628095+984963214+972775191+961580345+958128249+963532118+972234287
704+979286099+983903401+986673441+985151063+977021852+966372793+959257932
694+957699619+960608752+964540234+963439076+953750258+940973280+933879122
684+933328572+932375093+927344923+923422499+925654575+932447728+937947991
674+937882003+933305870+927484075+923913765+928781375+942337686+948855711
664+939469664+923832132+915560123+919604585+931003806+942917995+950785723
654+950399144+940787431+927162956+916470021+911267235+910125907+909737681
644+907889831+907786261+913164194+922882359+931520539+936378916+938062265
634+932389150+922701391+916696746+915519248+916792905+914308697+903702689
624+892190076+888698634+892344343+896594180+898876600+899165902+896425916
614+887968821+878623355+877642234+887354871+905823726+928326221+946806838
604+954387263+949352976+938165247+930179423
##END=
