##TITLE=<SNM>
##JCAMP-DX=4.24
##DATA TYPE=INFRARED SPECTRUM
##DATE=29/4/2025
##SAMPLING PROCEDURE=Instrument type and / or accessory
##ORIGIN=Admin
##XUNITS=1/CM
##YUNITS=ABSORBANCE
##RESOLUTION=4
##FIRSTX=4497.3318
##LASTX=599.83466
##DELTAX=-1.4281778
##MAXY=2.1762834
##MINY=0.58781248
##XFACTOR=1
##YFACTOR=2.0268218e-09
##NPOINTS=2730
##FIRSTY=0.59807688
##XYDATA=(X++(Y..Y))
4497+295081133+294021889+294388606+295676320+296351850+295509989+293571918
4487+291528537+290375805+290952347+293345624+296467217+298732981+299124548
4477+297627625+295330306+294089703+295191236+297925233+300056779+300133152
4467+298877256+297880268+297759902+298170319+298776064+299451770+299828456
4457+299425214+298369822+297362012+296797351+296529268+296447073+296639254
4447+296968299+297122955+297070756+296867106+296325000+295554277+295243818
4437+295692406+296341351+296780382+297150216+297339662+297054700+296613257
4427+296357731+295915818+295290223+295366390+296211015+296313149+294801522
4417+293002404+292497322+293084217+293649525+293913344+294416425+295440469
4407+296541972+296992355+296602905+296153758+296743358+298440460+299818134
4397+299390748+297572514+296454101+297282817+298876550+299220829+298163879
4387+297361483+297777047+298625760+298847642+298457164+298061068+297797309
4377+297324106+296665397+296491243+297064022+297369747+296346821+294724297
4367+294388694+295966194+298136823+299181864+298407376+296350762+294222157
4357+293003609+292936442+293942752+295991132+298367881+299456034+298304096
4347+295955637+294412279+294419190+294859221+294569582+294088174+294542262
4337+295545190+295718932+294867749+294137991+294247242+294759381+294938328
4327+294506796+293727427+293157060+293243843+294084880+295331689+296207133
4317+295956990+294587903+292908298+291650580+291070244+291448253+292999639
4307+295003320+296018305+295384976+293910727+292978436+293362063+294643543
4297+295508577+295041844+293715752+292529701+291691016+291011486+290910794
4287+291895254+293467137+294521794+294598813+293981776+292957586+291757595
4277+290768136+290204680+290016851+290347102+291472573+293203319+294968618
4267+296361790+297177213+297331222+296963270+296301886+295573422+295135126
4257+295290370+296026422+297128484+298178671+298530184+298012428+297466911
4247+297667914+298150527+298007458+297209385+296267126+295289488+294217951
4237+293375385+293101303+293296895+293776126+294547438+295236230+294886511
4227+293277250+291873639+292248561+293963249+295203941+295224408+294793200
4217+294583521+294563965+294675039+295029081+295516782+295770455+295466906
4207+294633309+293791301+293507456+293719457+293937253+294104231+294626251
4197+295462172+295949755+295876912+295914789+296490596+297024968+296797351
4187+295918465+295028640+294663217+295088309+296085914+296877281+296902808
4177+296627402+296982032+298061157+298840496+298234605+296275536+294191866
4167+293287984+293731338+294518853+294657482+294187014+293817445+293885436
4157+294100467+294106613+293842941+293378178+292886125+292791078+293379031
4147+294234537+294599019+294429806+294505355+295274696+296257068+296872106
4137+297150658+297215267+296744358+295468994+293863380+292876302+293007815
4127+293870261+294716151+295177003+295244112+294929506+294448480+294316203
4117+294765115+295398445+295823360+296275301+297022968+297636771+297537960
4107+296801497+295942197+295288312+294929447+294885541+294921036+294596873
4097+293941164+293637909+294038857+294495386+294318468+293871996+294033122
4087+294987175+296041390+296416224+296009836+295512577+295618739+296135672
4077+296436780+296511917+296694393+296790146+296391609+295655382+295020700
4067+294603283+294344905+294270739+294357286+294452156+294401192+294151783
4057+293819827+293623676+293618794+293596356+293422702+293260576+293253430
4047+293321833+293396176+293481577+293416438+293037987+292558403+292221976
4037+291833644+291362970+291643228+293424378+295869560+297037819+296115763
4027+294316115+293381207+293915961+295261227+296473569+297171302+297574749
4017+297893708+297833686+296950037+295457025+294318203+294332995+295303457
4007+296341204+296899543+297089048+297050024+296665133+296002484+295462407
3997+295377359+295803010+296503212+296895132+296427193+295246553+294092556
3987+293567477+293836413+294721297+295649824+295878823+295325013+294892128
3977+295419883+296526386+297118074+296836610+296163286+295449938+294801522
3967+294534087+294939975+295854003+296905837+297856301+298484013+298604409
3957+298346414+298040101+297808307+297715643+298256249+299879979+301844223
3947+302505813+301380195+299712559+298647257+298213725+298108798+298288539
3937+298669724+299094493+299684298+300711517+301947062+302469818+301632545
3927+300037635+298990212+299051322+299593898+299992376+300544598+301712122
3917+303022011+303395962+302459113+300765275+299010562+297809689+297857213
3907+299515379+302282783+305003870+306779786+307633263+307949134+307562449
3897+306039618+303765179+302080075+302078251+303244188+303875958+303693247
3887+304077050+305294597+305774064+305260043+305692633+307346624+307703342
3878+305805266+303894515+303742270+305073185+307288573+310019129+311880563
3868+311789340+310770502+310056536+309315868+307779479+306031619+305494659
3858+307105185+311168362+317062065+321343448+319907988+314570654+309201118
3848+305549387+304191329+305109356+307480048+310105118+312385438+314155061
3838+314779509+313870392+312299655+311097959+310420488+309941610+309541338
3828+309224909+309032610+309649089+312197286+316214763+318683354+318133690
3818+316955814+316552984+315277562+311962876+308150078+306072937+306784021
3808+309323131+311426916+312635347+314579447+317374700+318734965+317931834
3798+316575599+315171605+313249561+311508611+311214150+312323446+313775316
3788+315217334+317212604+319747274+321984453+323766045+325867595+328522808
3778+330983987+332799721+334630689+337940522+343923890+351863121+358947404
3768+363286810+365754518+367797605+370009611+372761929+376008977+378754678
3758+380349088+382019312+385801231+392587759+401090122+407824481+410581651
3748+411678802+414610744+420407842+426144154+428678265+429363294+431378825
3738+436452723+443815176+450677636+454727932+456158716+456901031+458595046
3728+461408238+464140206+465339903+464487455+461896263+458305701+455066564
3718+453344759+453294707+454883353+458133871+461538457+462272155+459865263
3708+456698587+454958902+455579292+458162043+460844547+461991309+462169051
3698+462752210+464021251+465923709+468947551+473056927+476746182+478231371
3688+477458589+475842800+474602461+474315499+474925684+475883500+477220532
3678+480136505+484744994+487864587+487460228+485845409+484870360+483334765
3668+479970380+475895234+472698680+470695735+469203370+467840901+467477948
3658+469245306+472177571+473707784+473793155+475112013+478973686+482905115
3648+483473953+480647233+476270950+471854172+468958932+468871414+471173673
3638+473965691+475966107+477500937+479520086+482704759+487277281+491776607
3628+493178454+491415390+489576159+489950757+493123108+498364573+503282580
3618+504901898+502871163+499436198+496859416+496146450+496897352+497806234
3608+497700953+496723375+496331367+497805234+500897008+503939318+505562106
3598+506027869+506204728+506243606+506333947+507621250+511202489+516268830
3588+519571047+518727157+515860118+514127755+514159575+514954530+515544512
3578+515732252+515886526+516250479+516756766+517639298+519335842+521493149
3568+522940314+522967722+521958030+520628850+519468178+518478483+517238880
3558+515821123+515071809+515541983+516954976+518719863+520363591+521551259
3548+522078191+522052429+521970675+522218643+522536602+522304220+521299116
3538+519706617+517749460+515941460+515064633+515224671+515411294+514862954
3528+514563816+516057269+518745448+519845011+518177169+516129730+515924639
3518+516385932+515413176+513731807+513643348+515404178+517041964+517166713
3508+516452100+515872058+515200322+514513117+515039460+516933861+518095239
3498+516964327+515012346+514604693+515908994+517437442+518592174+520095155
3488+521866630+522070251+519521465+515781011+513256692+512293053+511517801
3478+510401241+509830609+510354306+511205901+511149908+509912481+508561598
3468+508209703+508541483+508333745+507283764+506223726+505712910+505581515
3458+505659094+505864361+505535580+503846388+500988937+498247059+497031746
3448+497688190+499076715+499699281+499187466+498423095+498231473+498400509
3438+498296405+497739301+496865709+495659278+494135712+492700634+491638978
3428+490776443+490247512+490712452+492261456+493888215+494460552+493752703
3418+492511217+491807633+492152735+493070939+493541966+492937221+491637037
3408+490597408+490240984+490064566+489532694+489070930+489754371+492267279
3398+496190091+499636525+500047295+496712612+491979140+488768852+487951841
3388+488839254+490752564+493032091+494604415+494762748+493897096+493059029
3378+493201128+494508016+496032818+496530812+495954475+495437895+495908187
3368+497447339+499660875+501971691+503778633+504802852+505174745+505138514
3358+505049055+505309080+505961466+506642260+507008800+507041914+506919047
3348+506770184+506586149+506215315+505581810+504903133+504473424+504495598
3338+505085639+506152912+507350462+508363094+509184164+509760148+509625107
3328+508278517+506029869+504178228+504001133+505455708+506995096+506912225
3318+505059525+503007733+502310000+502922215+503613301+503732403+503786808
3308+504206400+504560590+504300153+503506844+502564202+501588918+500516469
3298+499565358+499201934+499550418+500272324+501047224+501869352+502867339
3288+504156760+505924941+508206291+510554985+512185479+512536374+511844817
3278+511044392+510919115+511675663+513248988+515161268+516173666+515147623
3268+512389276+509491065+507729824+507197952+507460918+508363741+509686216
3258+510567748+510251848+508903083+506978216+504694278+502606962+501685258
3248+502410458+504324973+506439580+507897332+508509487+508666937+508673172
3238+508530249+508278164+507909330+507132137+505887358+504879019+504773033
3228+505056643+504597291+503256054+502057857+501696610+501877174+502152256
3218+502360817+502218071+501370946+499916194+498292641+496882237+496051756
3208+496008880+496424179+496766546+496998104+497301123+497326238+496498051
3198+494839267+493075468+492132796+492408643+493250592+493460506+492589619
3188+491283907+490248924+489608595+489260758+489102573+488850371+488101939
3178+486664832+484744699+482978871+482196825+482513696+482787895+481853988
3168+480028872+478396614+477065699+475460467+473970661+473682787+474555203
3158+475222469+474740943+473586035+472626248+471962335+471150646+469911484
3148+468267933+466440730+464874493+464047689+464160439+465153457+466766982
3138+468296430+468749400+467737679+465792873+463700999+462105089+461417619
3128+461426795+461428236+461201059+461200648+461566247+461785719+461456497
3118+460665217+459741161+459131505+459263665+460094645+460935976+461031052
3108+460091557+458333168+456455295+455317531+455178314+455467688+455597966
3098+455513094+455166198+454302105+453089292+452096980+451522732+451191186
3088+451106403+451356959+451752702+451952764+451760848+451289115+450920957
3078+450803237+450522450+449798985+449077021+448770678+448544208+447946668
3068+447132862+446529852+446301676+446293854+446178633+445749425+445226140
3058+445019696+445128976+445091745+444692768+444383632+444589105+444846483
3048+444303907+443038983+442041525+441843051+442015646+442049965+441987091
3038+442096430+442478350+443026779+443412258+443137559+441903249+440032963
3028+438392059+437670477+437765788+437988229+437822104+437317434+436810236
3018+436548505+436574560+436760477+436807883+436343473+435296756+434130143
3008+433405679+433153124+432889158+432239390+431387765+430889154+431050515
2998+431492899+431424731+430456828+429099799+428266113+428293521+428672648
2988+428713584+428221883+427493919+426949137+426757780+426629473+426171180
2978+425540174+425274091+425435452+425528205+425326378+425138814+425068853
2968+424651260+423592016+422361176+421569720+421178565+420758208+420116968
2958+419335746+418654453+418496238+419115716+420215544+421239763+421865682
2948+422025396+421721289+420978591+419930993+418979116+418667833+419097542
2938+419631767+419506783+418574434+417252782+416010033+415105768+414630947
2928+414523991+414523197+414285434+413646870+412753486+412029551+412004113
2918+412823536+413861753+414238793+413694569+412621297+411600783+411203600
2908+411700211+412668938+413209780+412695611+411216568+409425243+408064244
2898+407488936+407545488+407834244+407971285+407750961+407277229+406844814
2888+406600523+406472657+406434074+406565792+406868870+407232029+407496406
2878+407460175+407053993+406588436+406485802+406674454+406631342+406111939
2868+405412118+404822342+404267591+403579416+402757405+401951657+401458075
2858+401582529+402231444+402844071+402993228+402816398+402669417+402688385
2848+402796106+402808663+402469855+401614525+400324222+398882792+397661157
2838+396953191+396786359+397012330+397588931+398475992+399253362+399245216
2828+398200175+396665699+395539051+395254882+395470354+395569694+395336254
2818+394976095+394675458+394415521+394172994+394051657+394091240+394105297
2808+393915174+393605891+393302019+392909982+392348261+391762396+391283547
2798+390834223+390336670+389880465+389575504+389421377+389428994+389712281
2788+390242388+390639924+390567199+390202628+389935134+389792094+389563594
2778+389192819+388679768+387953980+387113972+386458881+386120307+385929891
2768+385735034+385629606+385737622+385883162+385691628+385059475+384329864
2758+383935209+383995701+384278341+384422411+384175090+383514999+382662993
2748+382000138+381857980+382241018+382739336+382800886+382152441+380995827
2738+379822657+379032671+378689422+378591376+378548234+378554881+378685128
2728+378903600+379073784+379060609+378760001+378207044+377705138+377584360
2718+377767248+377818653+377449113+376777171+376160486+375918841+376100788
2708+376393721+376345257+375774566+374935058+374235208+373843406+373604202
2698+373292184+372856181+372451322+372315223+372517137+372778192+372710965
2688+372260730+371708743+371289268+371047593+370965487+370963457+370885526
2678+370675701+370446084+370255961+370002435+369650834+369376223+369330082
2668+369416071+369428481+369313202+369161721+369004389+368741541+368309274
2658+367840041+367563959+367530199+367505790+367239648+366745624+366199989
2648+365679851+365197091+364883690+364874309+365026525+365007674+364746590
2638+364585200+364795466+365109602+365029024+364548146+364167960+364157785
2628+364229275+364036624+363627707+363255196+363051017+363048253+363266871
2618+363589712+363754808+363647881+363430968+363271136+363157974+363037284
2608+362887156+362701269+362602899+362790610+363180412+363369829+363135506
2598+362686359+362325935+362123226+361961100+361729601+361441139+361217462
2588+361176849+361332917+361577856+361750304+361749892+361581385+361299010
2578+360976846+360689972+360429711+360149160+359980652+360181538+360719115
2568+361157205+361145501+360843099+360687884+360869889+361185437+361355003
2558+361333888+361274337+361257457+361148706+360804133+360383129+360232502
2548+360428741+360704705+360842217+360821807+360623774+360238560+359828172
2538+359601731+359616435+359820585+360115341+360332548+360352369+360236207
2528+360109959+360032440+360084315+360368572+360777960+361000314+360898445
2518+360667357+360539874+360580045+360772990+361030839+361103682+360759668
2508+360105724+359546738+359378819+359526564+359712511+359773209+359752211
2498+359826349+360189978+360809809+361284012+361221755+360753581+360377159
2488+360358074+360530904+360629744+360630391+360702676+360863684+360888181
2478+360709440+360627656+360859214+361160616+361164910+360872507+360600630
2468+360584515+360774784+360973464+361043132+360941262+360686002+360399421
2458+360265027+360354809+360608570+360978316+361417259+361754127+361781447
2448+361486868+361075627+360780989+360722262+360886093+361172174+361486368
2438+361795916+362051824+362123814+361921311+361537832+361174320+360961230
2428+360901474+360925588+361017400+361282953+361769390+362277059+362569021
2418+362678654+362778847+362891185+362955677+363048782+363299544+363647851
2408+363872469+363887938+363875410+364024126+364280798+364483301+364607491
2398+364782203+365165918+365839125+366759593+367929117+369692799+372730374
2388+377708373+385095352+395273145+408516538+424747836+443555328+464652051
2378+488155726+514151694+541987598+570178104+597066720+621414373+642352411
2368+659247858+671811457+680143960+684296302+684091975+680156017+673245153
2358+662126306+644978775+622019823+594901649+566852890+543492873+530004453
2348+528758968+539315240+557541102+575488530+587175420+593547296+598453186
2338+603483708+607533533+609384175+609420699+608592631+607198636+605292237
2328+602937249+599584333+594214032+586551442+577630310+568743585+560127589
2318+551219514+541848381+532539652+523856900+515843120+508006729+499743570
2308+490888635+481812817+472917357+464261190+455835199+447939669+440999043
2298+435108928+429978596+425239419+420644341+416089757+411661746+407596216
2288+404066647+401079300+398605211+396684226+395356604+394562384+394110443
2278+393751343+393324193+392791762+392141141+391392121+390680390+390147812
2268+389775449+389452638+389120828+388749994+388281467+387674105+386966932
2258+386278081+385734005+385386785+385231482+385272565+385470009+385644016
2248+385576172+385258537+384941872+384862147+384954606+384940373+384699345
2238+384364418+384028285+383671008+383425099+383510176+383804021+383869100
2228+383497178+382875347+382192289+381466001+380800470+380451016+380500274
2218+380686221+380680280+380426666+380121088+379952316+379958110+380027836
2208+379952934+379612155+379187857+379043288+379350689+379989517+380738508
2198+381361192+381663623+381705676+381783607+382077245+382539920+383135255
2188+383832223+384383798+384533102+384456171+384615238+385163785+385828580
2178+386365893+386818422+387286361+387703425+387923749+387914162+387811263
2168+387789766+387877755+387971184+388036528+388151925+388342812+388562019
2158+388838218+389262839+389807827+390289882+390541202+390559406+390482768
2148+390440774+390465388+390562964+390788023+391171561+391638647+392079090
2138+392484596+392975209+393675470+394556385+395422272+396100831+396649965
2128+397342640+398413530+399805643+401243691+402610248+404081145+405777541
2118+407520462+409095845+410504279+411802904+412984309+414106192+415251837
2108+416337019+417184997+417703841+417833530+417532717+416952351+416389395
2098+415996534+415725775+415534565+415479778+415634817+416007415+416513585
2088+417006785+417357181+417484488+417306628+416726527+415740274+414536136
2078+413395255+412460465+411683125+411025388+410570653+410378119+410389206
2068+410531569+410757569+410964513+411044356+411020418+411019594+411146607
2058+411447744+411904626+412424705+412940756+413505800+414174183+414856242
2048+415444841+416003533+416679739+417506632+418385429+419171033+419760574
2038+420239217+420899866+421933496+423169835+424329684+425415925+426631473
2028+428051817+429616937+431325479+433235907+435385157+437824339+440566423
2018+443372381+445792037+447596978+449011853+450369499+451682770+452692638
2008+453288208+453760911+454562218+455812173+457162821+458220683+458954558
1998+459593004+460353817+461402710+462749652+464054570+464927486+465504058
1988+466273428+467379108+468510902+469401874+470158040+471169555+472774494
1978+474904687+477117399+479039413+480656114+482276786+484378424+487120449
1968+489826861+491534551+492291628+493163544+494873616+497177139+499514482
1958+501698727+503890030+506237489+508677465+511007691+513151412+515340068
1948+517958845+521176838+524756019+528217862+531162008+533500644+535456096
1938+537288328+539055862+540696649+542275443+544041919+546216636+548769009
1928+551524474+554495616+557841592+561381308+564540779+567015104+568976495
1918+570576581+571975340+573679706+576011050+578468730+580205210+580952348
1908+581122031+581244192+581607262+582257119+583177058+584429542+586029392
1898+587749168+589226564+590313482+591344171+592914790+595093271+596990494
1888+597717753+597586946+597504133+597699108+597801095+597681169+597628529
1878+597877732+598339554+598824197+599483993+600865402+603099640+604949811
1868+604588858+602124708+599676204+598582287+598367727+598117230+597595945
1858+596839044+595721366+594360837+593218162+592642708+592685584+593231866
1848+594167862+595407171+596387691+595734423+592715051+588546947+584971236
1838+582767876+581700897+581213843+581218137+581950218+582992376+583211348
1828+582276469+580957112+579431781+577056678+573941143+571236554+569764687
1818+569254989+568811340+567903459+566856830+566301373+566287904+566239440
1808+565794086+565259685+565182048+565856490+567147969+568449152+569006433
1798+568710589+568434742+569368503+571905937+574700338+575507174+574135059
1788+572594554+572400814+573484144+575000887+576454522+577824226+579122586
1778+580436356+582281527+585435646+589939354+594116339+595996094+595988213
1768+595535272+595033926+594795663+595597970+597337390+598864015+599953285
1758+601371336+602903548+603857483+605075383+608166686+612914832+616794504
1748+618074102+617727323+617319318+617454653+618242433+619596021+620975253
1738+622274496+624829340+629818278+635144055+636588103+634391918+631860895
1728+630710868+631094994+632600387+634633828+637031045+640552763+646033990
1718+652509970+656514155+655862181+652530909+649363086+647978855+649095944
1708+652540555+656891635+660224260+662477555+665714604+670966155+675696186
1698+676942848+675410400+672777272+670281245+669261730+670263012+672694401
1688+676064844+681046549+687597284+691909781+690571249+686571653+683871298
1678+683923997+686629998+690602539+694003744+696773677+699987905+702851944
1668+703143259+701506061+701073882+703411989+706999992+709120363+709453673
1658+710098942+713153956+719463075+726883285+729705624+728278398+728376209
1648+730608742+731130615+727647951+723311515+721182734+721386766+723579069
1638+728180117+734547052+738489362+736597021+732313696+730347187+731935275
1628+735592681+739501995+743355846+747099947+749758660+751466908+754111563
1618+758662441+763477285+766298682+767543344+768587855+769660303+770486901
1608+770860147+770797685+770866087+771792790+773458279+774854568+775379911
1598+775814737+777392473+779769869+780916249+779986312+778820757+779413504
1588+781601983+783861866+785077296+785234510+785410723+787034217+790545289
1578+794819086+797331288+796064571+793096781+792216719+794260217+796374119
1568+795276438+792028861+789850968+790185042+793323398+799773735+808159702
1558+812095424+809311493+805498636+803554654+802762640+802203418+802296700
1548+804028828+807831627+813547706+820721948+828178154+832879130+831495839
1538+826462495+822990064+822515303+823776139+824821238+824664670+823929766
1528+823793078+825319291+829152909+835255114+842654327+849017852+852335596
1518+852877996+851806782+850347914+850237163+852798712+857907282+864647934
1508+871864876+876649430+876205017+873760806+873945253+878036308+884813837
1498+891552254+895569613+896593774+896908321+898353309+900910035+903735608
1488+906304980+908623972+910993605+913565917+915892025+917482995+918973977
1478+921740499+926345370+932084446+937245598+939599115+938674294+937265066
1468+938372451+942075028+945380244+945173271+942386752+940433183+941203671
1458+944397666+947478383+947256412+943443379+937880633+932747654+929877498
1448+929168708+928059265+924571954+920174233+918042451+919970730+925491599
1438+932052627+935141695+932453281+928238594+927579033+931230852+935981292
1428+937932802+937176842+937065739+939290861+941982981+942544672+940934470
1418+938971785+937072385+934662052+933043851+934325213+937809818+939788972
1408+938158008+934762098+932190138+931116161+931226734+932330297+933733055
1398+934287865+933845041+933699354+935488709+939725922+944861900+947741349
1388+945660502+939915368+935733265+936543924+941426994+947521436+952485437
1378+955433347+957135713+958883251+960332650+959942230+958363024+958767913
1368+963049414+969360239+973891473+974893519+974231899+975132252+978976752
1358+984448274+989024502+991076353+991233156+991372432+992222909+992701906
1348+991584992+989732763+990151297+995012663+1003307230+1011387943+1015925234
1338+1017088730+1017548082+1018505839+1018886260+1017970615+1016898755
1330+1017349990+1020370067+1025999452+1032131830+1035086504+1033772322
1321+1031787051+1033059591+1036871565+1039214790+1038464182+1037468899
1312+1038999288+1042352381+1045450331+1047650279+1049953509+1053708667
1304+1059537555+1066180455+1070098768+1068656485+1064768521+1064551373
1295+1069449206+1073741823+1071053114+1061761030+1051496367+1044804885
1287+1041695996+1038981173+1034327309+1028270803+1022415683+1017429156
1278+1013554837+1011442053+1011683551+1014392140+1018737221+1022565193
1270+1022912677+1017709120+1008159540+998480918+992067282+989196597+988209432
1260+987114515+984143020+978839181+973028703+969052985+967458781+967420786
1250+967877374+967186346+963335553+955927636+946878343+938072196+929485138
1240+920290923+911020836+903380361+897763563+892562475+886479267+879892949
1230+873568949+867764822+862678720+858481560+854971723+851806253+848794645
1220+845847147+843258131+842140453+843476456+846270915+847915172+847379594
1210+846760204+848399638+851849483+855094119+857260190+858445506+858570784
1200+858026796+858139723+860188338+864766389+871455518+878214579+882601478
1190+884582279+886366753+889260846+892725866+896194767+899824118+903456880
1180+906357267+908540395+911407492+915944313+920974305+924787161+928687889
1170+936005053+946431578+955226962+959502758+961876096+966159244+972505947
1160+978114982+980437267+979050977+976229286+975593251+978729137+983401999
1150+986054242+986054889+985869678+987932762+992163505+996149927+997636910
1140+995839850+991995409+989109315+989412334+991796259+993205605+992520282
1130+991948827+994346397+999336924+1003323581+1004587770+1006003350+1009807560
1120+1013246760+1013057137+1011629206+1013614594+1018989424+1022397568
1111+1018748749+1010080113+1004915727+1009428551+1020757076+1029132573
1103+1028119293+1022081021+1020128922+1024991230+1030311949+1029278672
1094+1024285204+1021107030+1019544881+1015408243+1008295051+1002875404
1085+1003931502+1011448288+1020014937+1023556123+1020723198+1015776901
1077+1013204883+1012480977+1009767566+1004207584+998866044+995444254+993669191
1067+993993502+996131224+997406116+995406730+992139273+992195148+996073114
1057+999654412+1000064947+997852294+994419447+990166706+984808051+977622340
1047+969087451+963180867+965219014+976247519+990318922+998780996+998687126
1037+994629419+991484535+989803342+988387644+986460071+983416644+979584084
1027+976668758+976023430+977111230+977970765+977439599+975925090+973397478
1017+969875878+967793737+970299470+977106525+982927472+982060056+975519908
1007+969469813+967148939+966086136+962311745+955332066+948199289+943913318
997+942633073+941394469+936612680+927476458+916664101+907774965+902525884
987+899936044+897337559+893036178+888462480+885979627+885056806+883430900
977+881199778+880444171+881458686+882290519+881796701+880050399+876312003
967+870098459+863389392+858887096+856893885+855720920+854091250+851758377
957+849179478+847516753+847982222+850898489+855100530+858482619+859750219
947+860021536+861912761+866558744+872663949+878366442+883001956+886977555
937+890646607+894088806+897893957+903090457+909757118+916145463+920144001
927+921664097+922447054+923626489+925022778+926495703+928420218+930492595
917+931525578+931222559+930370669+929790627+929783275+930269918+931444530
907+934106183+937926803+939829732+937324940+932744302+930671924+932835701
897+937607021+942498031+945595628+945870769+944767501+945775722+949700094
887+952340220+949816431+944472010+941823531+943817154+948271103+952947906
877+956995908+958943772+957670938+955570976+956012272+958613109+960406170
867+960535918+960911222+962553714+964244435+964650852+963786377+963107701
857+964073457+966167361+967956951+969416997+971871971+975323933+977212923
847+975733174+972926775+972116233+973814953+975915915+976525071+975654478
837+974764653+974850230+975317816+975282762+975545669+978325601+983685668
827+988436696+990617236+991771438+994128661+997524336+999822390+1000057654
817+999839447+1001187389+1004639527+1009829910+1016247310+1022795987+1027052609
807+1028259746+1029795193+1033533294+1036724879+1037541008+1037846380
798+1038573226+1036363043+1027943905+1017782757+1014024188+1017669360
790+1021343235+1018122595+1009178348+1000855550+997418350+999269168+1003500499
780+1005166400+1001812366+995721748+989050734+980105605+967966832+957442556
770+954164865+957154711+959411300+956636014+952748991+954061349+962141062
760+973526991+983968161+992381006+999800628+1005275209+1006322955+1004155120
750+1003370752+1005021007+1005061120+1000783912+993909748+986326971+978415295
740+973054523+974336415+982643098+993570616+1001105164+1002584501+999936610
730+996172983+992084692+987647152+986167933+990689697+997877467+1001255498
720+999330336+994987490+990167177+986511770+987735846+997430584+1012674834
710+1021846463+1015645153+1000065300+988962628+989427391+997556567+1005348729
700+1009046012+1008038261+1003364752+997791360+993251481+992303369+994965846
690+994273348+985907084+975788108+972642459+977986292+984084851+982513644
680+974581265+965176137+957722872+956690360+960594087+962891670+962071188
670+959521873+955634497+951584907+950938285+954991640+959588982+958903895
660+951664602+942633896+936494754+932920279+929498254+926889829+929718049
650+941036869+954844424+957887733+945951288+932956509+932717481+943539484
640+953065067+953490894+946363469+935967764+926976817+927646965+946000164
630+976171117+990961897+973755079+944790968+924694938+919324108+925158642
620+933036028+932986446+921880540+909520208+905652477+910510844+918366233
610+920685872+913333006+902815258+898512936+903976636+914788757+920149706
600+914718061
##END=
