##TITLE=<SNM>
##JCAMP-DX=4.24
##DATA TYPE=INFRARED SPECTRUM
##DATE=29/4/2025
##SAMPLING PROCEDURE=Instrument type and / or accessory
##ORIGIN=Admin
##XUNITS=1/CM
##YUNITS=ABSORBANCE
##RESOLUTION=4
##FIRSTX=4497.3318
##LASTX=599.83466
##DELTAX=-1.4281778
##MAXY=2.2331245
##MINY=0.69289571
##XFACTOR=1
##YFACTOR=2.0797593e-09
##NPOINTS=2730
##FIRSTY=0.70105529
##XYDATA=(X++(Y..Y))
4497+337084827+338020355+338693450+337730638+335446025+333770711+333819518
4487+334924768+335988576+336881918+338036691+339085052+339117408+338490054
4477+338871826+341134973+344397358+347019922+347711903+346301775+343933505
4467+341967241+340896068+340646760+340963761+341210863+340781574+339965067
4457+339680308+340124213+340368506+339595504+338300730+337584331+337732071
4447+338443454+339711661+341339801+342523549+342839175+342562612+341658293
4437+339871323+337786638+336435319+336147292+336380952+336234760+335150031
4427+333651202+333161499+334646829+337626633+340682527+343101609+345322225
4417+347209819+347413215+345498910+342998091+341373161+340577891+339834037
4407+338878074+338218048+338400809+339161573+339536351+339067140+338368911
4397+338184173+338499025+338821328+338839097+338706003+338857382+339452637
4387+340056434+340161957+339888461+339703493+339877914+340712304+342320755
4377+343693311+343407462+341591431+339645486+338411585+338058874+338692103
4367+339824808+340489534+340418258+339934287+339078346+338068962+337692750
4357+338230715+338945509+339182609+339142256+339227231+339268873+338889337
4347+338376821+338309901+338361918+337670367+336329136+335262949+335087124
4337+336141761+338446492+340605118+340500024+338249000+336508257+336974144
4327+338464347+338858127+337767551+336463692+335848718+335747895+335921771
4317+336572253+337629327+338609392+339507606+340556626+340942353+339480552
4307+336685429+334325787+333266965+333346782+334530357+336585609+338367564
4297+338816399+338117224+337315793+337325996+338341369+339809619+341111329
4287+342105208+342639677+342240251+340894406+339374942+338325893+337692607
4277+337121453+336422823+335730412+335573846+336501923+338159182+339215424
4267+338847294+337720005+336987156+337013723+337609466+338615697+339575586
4257+339823977+339285725+338444085+337745712+337540167+337996969+338696345
4247+338881284+338347474+337778527+338142502+339710113+341605245+342569863
4237+342113089+340623976+338895155+337891531+338232320+339553404+340772976
4227+341098002+340568835+339761586+339207857+338972220+338753319+338470766
4217+338384473+338533043+338602915+338482488+338417833+338516478+338602170
4207+338675280+339013690+339665175+340285938+340534501+340208414+339195534
4197+337860637+337289942+338305144+340237790+341486194+341344129+340532753
4187+339961313+339791535+339723067+339604590+339572749+339724099+339832231
4177+339603500+339193356+339068974+339338487+339594301+339463700+339065076
4167+338839097+339025297+339370987+339418561+339072499+338782380+339081441
4157+339929673+340722134+341028790+340992994+340839609+340532151+340124070
4147+339638981+338618477+336858589+335423270+335656643+337436277+339338344
4137+340157974+339697761+338706834+338470308+339710400+341636655+342651485
4127+342074313+340742826+340003729+340446373+341569850+342472851+342674068
4117+342212709+341338340+340457837+340003729+340014333+340107562+339929243
4107+339387581+338578870+337860895+337840518+338799948+340137826+340697086
4097+339877828+338408891+337616602+337872903+338313484+338204721+337915978
4087+338162420+338813905+339115975+338974054+339103767+339696758+340090022
4077+340166027+340640713+341493358+341749344+341170023+340508593+340058239
4067+339466537+338700758+337997886+337243285+336283252+335608180+336070943
4057+337885828+340124500+341397636+341127292+339934459+338846778+338462398
4047+338741483+339264087+339646747+339773709+339844067+340109597+340268026
4037+339621527+338381091+337873533+338753749+340091914+340817054+341020822
4027+341383220+342122231+342746204+342581584+341638547+340823932+340909652
4017+341526374+341644565+340859298+339793828+339319027+339680652+340458181
4007+341077310+341093101+340408686+339693921+339985158+341347740+342521658
3997+342469383+341718994+341391961+341538927+341431655+340957055+340764120
3987+341344788+342569863+343979790+345084467+345462685+344908498+343642698
3977+342404870+342003725+342491107+343062776+342956077+342172529+341153773
3967+340273786+339844641+340071136+340784411+341451057+341645053+341440654
3957+341257004+341420907+341920641+342561666+343328735+344357521+345474149
3947+346249901+346678015+347065576+347248079+346706846+345445002+343971766
3937+342702556+342142064+342960662+345078964+347071939+347471651+346710515
3927+346559623+347706744+348753271+348117319+346518239+346119272+347701585
3917+349676333+349881104+348025035+345581335+343765963+342736374+342505006
3907+343648602+346685495+351099415+355283285+357538923+356923033+353652709
3897+349493829+346962144+347548917+350549154+353029854+352414537+350058849
3887+349226380+350653446+352312309+353228808+354540778+355879286+355314496
3878+353394517+352627276+353788870+355825120+357956806+359595235+359495443
3868+357748624+356233746+355723121+354922177+352922754+350920638+350415831
3858+351990722+356178404+363366783+370053221+369604959+363273325+356739670
3848+352848985+352021617+353514915+356205344+359287691+362582518+365777841
3838+367511963+366540725+363577687+360253427+357390955+355064815+353445100
3828+352860305+353415725+355383737+359333145+364322803+366938976+365790107
3818+363271318+360464646+356531459+352300673+349867376+350018440+352156517
3808+354795990+356422124+357477965+359783413+363356494+365490444+364847413
3798+362878312+360292891+357061916+354326262+353583812+354826885+356702441
3788+358177139+359217561+360094281+361214777+363337178+366603174+369668382
3778+371301079+372319950+374467713+378714778+384874112+391322562+395784830
3768+397966011+399582057+401632780+404169337+407400541+410922666+413072064
3758+412984452+412406707+414008997+419225093+426845884+432517837+433373721
3748+432519728+434265057+439407641+444667988+447130489+448289246+450623410
3738+454823617+459906819+464428813+467316878+467986935+467265090+467527840
3728+470830921+477071361+483754503+487848785+487946169+484648333+479907725
3718+475940232+474395061+476212009+480981592+485611288+485930153+481796436
3708+477039979+475153331+477400486+482337869+486017621+485357825+482030583
3698+479905145+480684566+483650183+487558866+491831581+495898177+498083800
3688+497065933+494083751+491269226+489648595+489588296+491610445+496367561
3678+503654614+510673644+512981700+510604059+507598376+505067407+500750729
3668+494579157+489489363+487171391+486908241+487181193+487813190+489844625
3658+492940528+494683822+494392871+495290312+500545872+508984746+513839017
3648+509553635+500076603+492270185+488869747+489267425+491274557+492433027
3638+491632398+489600619+487681471+486989519+488674347+493362738+498738668
3628+499795683+495845387+491095379+489192567+491811749+498009859+503526220
3618+504396892+502152460+500711351+500993646+501394878+501113901+500898669
3608+500980004+500563067+499754013+500008737+502154294+505033016+506892896
3598+507692207+508515419+509746111+511250730+513314493+516248126+519318923
3588+520727303+519298460+515765903+511991059+509869461+510494695+513253276
3578+515987669+516552087+514425904+511155638+509487374+511818873+518421597
3568+525980914+529278407+527116285+523202959+520550876+518667151+515794333
3558+512514093+511404802+513746963+517967288+521145100+521593791+519839836
3548+517741796+517229939+519061160+521891046+523233395+521825130+518458682
3538+514715822+511655629+509610552+508737129+509333760+510939374+511640383
3528+510085782+507740240+507025417+508346214+510475722+512154991+512247217
3518+510194344+507160289+505353772+505864540+507682176+508856925+508906792
3508+509453556+511421081+513096911+512533066+510489192+509038396+509044988
3498+510321420+512343684+514088468+514443444+513249264+511459714+510233493
3488+509836560+509409707+508180678+506685804+506238201+507336200+509196424
3478+510665333+510877871+509483305+507007878+504411107+501872458+498962326
3468+496381260+495908953+497765165+499711138+499763872+498391946+497200346
3458+496816482+496736579+496473830+496251032+496521634+497245800+497996045
3448+498271577+497345305+494764125+491615432+490023632+490925600+492885903
3438+493670597+493001228+492644935+493742074+495193500+495072386+492860740
3428+489728096+487215641+486174847+486503054+487434485+488246864+488723928
3418+488975386+488983754+488530363+487791581+487481887+487893493+488366202
3408+488285898+487896646+487581278+487205324+486699428+486686532+487768596
3398+489355753+490075563+489387107+487858988+486143780+484829575+484832555
3388+486528446+488789845+490011480+489827487+489037003+488108496+486780420
3378+485181971+484257247+484647014+485963856+487679866+489904581+492506453
3368+494225042+493850693+492028185+490742467+491223085+493159199+495648611
3358+497989970+499553683+499949986+499825145+500565016+502455849+503852077
3348+503063027+500633340+498539256+497910870+498684559+500558769+503085266
3338+505367930+506572484+506505077+505334972+503310701+501186352+500019169
3328+500120509+500824613+501350226+501283851+500230790+497952483+495109987
3318+492997961+492198135+492152165+492281820+492749026+493786897+494797083
3308+494787798+493992500+494060078+495852036+497922907+498232141+496791892
3298+495390792+495455619+497060545+499208166+500415701+499708616+497438563
3288+494813649+492921613+492391414+493361133+495473904+498243605+501288551
3278+504016009+505614573+505848319+505425707+505075833+504797092+504288445
3268+503457265+502303896+500842095+499335872+498349874+498298803+498858464
3258+499029732+498100423+496400806+494862656+494124046+494206872+494601340
3248+494770946+494938661+495847278+497646343+499577757+500693525+500525122
3238+499241583+497421482+495548246+493828167+492627739+492510293+493380220
3228+494228596+494262700+493707396+493194909+492970219+492990166+493180292
3218+493156505+492351577+490790213+489299008+488861436+489752858+490993351
3208+490940446+488951312+486056483+483722176+482558776+482431013+483017326
3198+483783277+483908462+482849153+481127812+479985363+479952777+480413506
3188+480586981+480185577+479323847+478600254+478771036+479545269+479486374
3178+477790397+475208042+473011414+472154011+473033539+474950222+476122162
3168+475187866+472602015+469993838+468484175+468087443+468285394+468504867
3158+468273987+467646089+467189974+467046849+466669462+465787813+464764358
3148+463926987+463368960+463103517+462721115+461551209+459665536+458025960
3138+457438271+457940957+459108426+460282916+460742384+460316906+459564712
3128+458979057+458463217+457837496+457252902+456727317+455911040+454755608
3118+453819305+453557731+453857709+454459872+455168676+455434492+454609789
3108+453039483+452030071+452175660+452532986+452100229+451272660+450961448
3098+451081846+450893611+450265856+449746175+449616319+449481333+448905222
3088+448126030+447754633+447929714+448263338+448482238+448546550+448274830
3078+447460702+446305528+445276713+444571635+444061956+443684942+443464551
3068+443207705+442732647+442335227+442388190+442626923+442515610+442099504
3058+441811334+441628057+441032285+439812111+438529432+438021272+438468846
3048+439269388+439805634+439925746+439687615+439055446+438054488+437041063
3038+436555945+436810613+437438856+437771219+437275583+435833270+433905954
3028+432383481+431846576+432003802+432120331+431886183+431640057+431839325
3018+432463298+432984469+432984412+432641129+432366887+432126407+431442679
3008+430131139+428725883+427937320+427920468+428286076+428588519+428607147
2998+428411633+428296938+428398249+428441553+428169031+427729081+427333208
2988+426891682+426248966+425463813+424714112+424136138+423768839+423503023
2978+423137072+422595323+422045779+421753539+421895862+422498053+423311837
2968+423780045+423475052+422600625+421750043+421182816+420624531+419811034
2958+418952914+418516031+418606823+418745105+418422343+417763865+417336152
2948+417426056+417839354+418256004+418438421+418209088+417571188+416812774
2938+416271627+416056882+416101992+416322240+416567822+416579057+416176736
2928+415425745+414572412+413899718+413569103+413527805+413679471+414046368
2918+414529938+414709747+414216605+413270473+412509336+412285506+412380885
2908+412407624+412246558+412026511+411954834+412154332+412377245+412047891
2898+410927710+409462126+408206271+407399739+407211389+407686791+408341544
2888+408500919+408105476+407627437+407333363+407132232+406973287+406968673
2878+407191184+407624657+408264937+409002171+409452468+409242194+408456496
2868+407529480+406768458+406227541+405937966+406029418+406524194+407003121
2858+406797805+405862391+405025508+404850428+404834751+404340864+403584628
2848+403096960+402975530+403130606+403580817+404189170+404568763+404439166
2838+403868729+403138659+402513541+402131310+402001541+402024984+401986494
2828+401616559+400798534+399788175+399119724+399105537+399479886+399741833
2818+399736818+399640379+399562368+399501782+399517602+399672248+399922760
2808+400165075+400266300+400059924+399460111+398569320+397591031+396674160
2798+395924660+395508067+395539964+395817244+395856823+395391709+394714287
2788+394298095+394181796+394051825+393867631+393955300+394380090+394681787
2778+394450420+393799766+393103887+392608309+392413282+392471804+392512386
2768+392280130+391869728+391563187+391462334+391509651+391607666+391500337
2758+390891038+389900856+389037176+388563350+388318140+388197914+388334218
2748+388747200+389195605+389419578+389317408+388925261+388385146+387820012
2738+387165832+386334595+385571653+385310251+385567555+385837154+385720224
2728+385338509+385005573+384838517+384797190+384793980+384698745+384470502
2718+384295852+384392004+384647158+384627641+384047862+383167073+382574138
2708+382579498+382939431+383119985+382723941+381787581+380742660+379967108
2698+379454764+379102683+379052214+379413637+379937359+380293767+380419611
2688+380390235+380250320+380071399+379924692+379818595+379796470+379910964
2678+380021503+379853760+379329407+378656599+378064582+377599727+377234520
2668+377085979+377368159+378032885+378634102+378782815+378601745+378461601
2658+378434346+378332519+378156350+378120210+378206819+378065069+377537823
2648+376954375+376630781+376405776+375958174+375337039+374912651+374928069
2638+375234753+375444311+375360511+375202884+375281440+375600935+375949691
2628+376170454+376195904+376026355+375754406+375464573+375195261+375059157
2618+375141868+375281726+375243151+375053082+374901789+374827618+374724215
2608+374531882+374280482+374069950+374044701+374256580+374558535+374741325
2598+374742442+374632046+374465851+374252711+373998101+373703482+373393674
2588+373176980+373178958+373380605+373584545+373572795+373327127+373089454
2578+373105045+373308498+373422190+373376593+373431332+373805796+374303037
2568+374451807+374066253+373501634+373248887+373432651+373784072+373950067
2558+373802271+373554109+373495816+373580877+373533761+373347418+373264449
2548+373297894+373219109+373007603+372928045+373141586+373480455+373619739
2538+373380634+372888237+372458374+372292981+372297739+372259622+372148738
2528+372129737+372323675+372697766+373151789+373581622+373868503+373872458
2518+373496332+372858718+372358067+372338893+372695588+373002187+372981580
2508+372686589+372339839+372147219+372173815+372346975+372620931+373030473
2498+373492090+373749767+373721050+373713885+374017102+374416413+374432032
2488+373960241+373372581+373030703+372969486+373021245+373085843+373248027
2478+373604808+374020484+374222303+374102908+373756903+373328760+372980663
2468+372865825+373030129+373409265+373857755+374140968+374083448+373786107
2458+373561962+373638798+373964311+374273403+374356601+374245689+374054846
2448+373791208+373516365+373457212+373674307+373881543+373852339+373710389
2438+373607874+373468188+373280326+373306607+373722684+374290226+374615453
2428+374568824+374306648+374032664+373870280+373874206+374059862+374394173
2418+374759609+375016197+375166229+375350996+375629709+375878014+375931205
2408+375757931+375513982+375447693+375679089+376064214+376352871+376465560
2398+376581344+376971771+377765407+378908057+380424655+382691499+386319549
2388+391793350+399354329+409171176+421396787+436021047+452844169+471571623
2378+491662663+512156825+532220752+551922253+571557207+590041142+605473367
2368+617784011+628413208+636624813+639155036+634839619+626517904+617548832
2358+608774987+598643145+585035836+567076769+547006594+529744695+519444279
2348+517756928+524197497+535862502+547743083+556182702+561050386+563698800
2338+565359899+567079406+569648606+573188901+576696525+578591885+578186355
2328+576076507+573204033+570258650+567460060+564323919+560157817+554912059
2318+549004440+542680630+536290673+530565271+525675863+520463006+513533450
2308+504869772+495672743+487113442+479756432+473617446+468250916+463024990
2298+457610170+452099455+446683173+441507200+436797516+432727939+429119291
2288+425606365+422149698+419116474+416826616+415186611+413775050+412229449
2278+410560383+409082790+408069050+407506896+407106037+406508976+405621710
2268+404734357+404171974+403897274+403625669+403204949+402681829+402118614
2258+401560329+401111351+400867918+400781252+400690631+400485802+400181870
2248+399874469+399651957+399505221+399335901+399106426+398913921+398860815
2238+398959776+399181313+399453950+399641009+399665227+399600485+399549930
2228+399535457+399540329+399560391+399597247+399617165+399513074+399197878
2218+398756007+398352512+398009487+397636657+397217370+396851848+396702074
2208+396865576+397158475+397166242+396695024+395994703+395447423+395267070
2198+395459718+395829166+396138258+396408688+396827688+397328454+397633963
2188+397723810+397850800+398105439+398329871+398451358+398603195+398918649
2178+399407951+400038085+400770763+401454433+401807488+401705862+401470826
2168+401616616+402233338+402865192+403106389+403080223+403182279+403551297
2158+403949462+404082356+403930375+403718238+403602454+403558376+403609849
2148+403914584+404495252+405109108+405527019+405779652+406014200+406227168
2138+406282996+406194267+406210316+406487711+406838845+407023125+407112514
2128+407310293+407593562+407795210+407907583+408097165+408489799+409044874
2118+409596739+410005709+410292847+410609276+411067883+411636371+412194914
2108+412688629+413204241+413853347+414590983+415227393+415638312+415863059
2098+415977324+416025644+416126983+416467457+417095270+417832905+418444153
2088+418814690+418979281+419079360+419251717+419458008+419541406+419530659
2078+419658451+419991388+420339141+420638488+421089988+421772282+422433111
2068+422817319+422967121+423085714+423302322+423644601+424048670+424376963
2058+424613575+424987408+425659414+426384353+426807394+427036068+427538094
2048+428473537+429508772+430319317+430930106+431489967+431977922+432294981
2038+432540449+433019605+433927248+435114177+436278093+437299943+438238854
2028+439118067+439931678+440773233+441767743+442947249+444308054+445875895
2018+447618931+449387158+450982455+452247509+453159451+453924342+454849439
2008+456005444+457170162+458212791+459352604+460912076+462923020+465051267
1998+466952846+468730847+470808338+473185291+475204402+476389497+477040352
1988+477614027+478190081+478842426+479842410+481262913+482869387+484465371
1978+486048917+487729619+489639940+491762340+493867717+495814034+497741435
1968+499792416+501869993+503824048+505624603+507262832+508770431+510388884
1958+512445139+514975190+517642807+520077250+522175405+524095240+526085521
1948+528358498+531077816+534262333+537470065+539875620+541236196+542380566
1938+544096633+546221613+548272365+550293024+552637191+555400530+558383457
1928+561366785+564359228+567493935+570598321+573254703+575444224+577489129
1918+579366147+580899196+582479991+584692439+587406140+589781087+591083140
1908+591369390+591388821+591900735+593144897+594865665+596689147+598481793
1898+600322872+602070866+603291069+603970124+604813112+606316183+608068877
1888+609403029+610190188+610551755+610485494+610157287+609991005+610236559
1878+610714024+611047734+611208800+611909981+614157852+618010305+621697222
1868+622721394+620728076+617854341+615979787+615378914+615456581+615591510
1858+615351516+614640247+613753181+612964073+612266160+611660701+611413314
1848+612038318+613899402+616111678+616175932+612816134+608135940+604779007
1838+603399573+603050444+602834696+603024078+604253910+605851098+606048275
1828+604482669+602552115+600883106+598898042+596588668+594758822+593688967
1818+592838643+591769991+590828014+590682711+591293729+591678052+590980941
1808+589388109+587696287+586720894+587068360+588546153+589901284+590110498
1798+589794958+590495508+593066313+596799658+599181311+597990685+594652496
1788+592406860+592371151+593303842+593988687+594676226+595776976+596855372
1778+597771785+599459135+602942226+608053572+612743855+614526756+613523906
1768+611761640+610690638+611008643+612924352+615532758+617208186+617799544
1758+618559649+619728264+620660325+621964041+625277182+630657296+635298914
1748+636579989+635289170+633806276+633577459+634795369+636620628+637728715
1738+638233350+640179953+644666639+649155962+650169243+648636768+646784167
1728+645178439+644360729+645117623+647328467+650446953+654775897+660832774
1718+667341208+670993390+670390568+667654513+664919833+663213166+663341274
1708+665774055+669729396+673437463+676423715+680099626+684923118+688532940
1698+689142125+687677171+684593133+680570500+677853074+677830834+680129031
1688+684323219+691035651+699442541+704173462+701852280+697145605+694494038
1678+694923413+697664741+700576650+701984285+703041817+705291064+707322786
1668+706792931+705131316+705614858+708820411+711909321+712078411+710490452
1658+710457608+714362565+723223764+734649749+739785972+736412073+732926689
1648+732626339+732612983+729576291+725092414+722396195+722830958+726814385
1638+734156808+742125381+744685468+740467550+736399807+737430055+742801514
1628+748553397+751916061+754065917+757068390+760860659+764958666+770469008
1618+778102610+785311136+788402625+788683316+790105166+793883391+798226837
1608+800707595+800822175+799942217+799428583+799811702+800995335+802449971
1598+803663181+804805200+806358138+808086243+809357688+810273184+811443748
1588+813022021+814583213+815833852+816966930+817946451+818273741+818202666
1578+819145445+821889124+825102702+827721655+831100827+836357705+841924105
1568+844933055+845233406+845403987+848007979+854281292+863731384+872215998
1558+872473245+866507161+862185553+861458579+862800240+864026518+863676644
1548+862519034+863356060+868336261+876784306+885712396+891215573+889885949
1538+883958613+879385662+877796499+876449564+872765915+868433703+866712076
1528+868312703+871574085+874674459+877457057+880240056+882077295+882845367
1518+884535584+888003715+891425646+893304327+895018446+899196527+907314760
1508+918305867+926306596+924721331+917689003+911857733+909380300+911124568
1498+916348029+921054246+922163078+922076011+924627099+930589858+937109183
1488+939682453+936816284+931565825+927637252+926379793+927227652+929666624
1478+933982500+940070787+946548098+951032089+951417214+948866242+947054624
1468+947359101+948063263+946982918+944488232+943310560+945454226+950998673
1458+957142731+957619452+950601224+942350872+937813229+937963405+941414111
1448+944705585+944175100+939735759+934490402+931217269+931268799+934738076
1438+939851314+942831375+941460310+938208901+936628393+937412628+938168434
1428+936803559+934666428+934108544+935183558+936607242+938257106+940512142
1418+942153695+941624471+939413054+936882544+934662931+932799956+931410720
1408+930710686+930732352+931131463+931486496+931900796+932768087+934215959
1398+936181593+938425165+939892985+939124626+936597727+935002832+936321680
1388+940028945+943785332+946179652+947947823+949945497+952133470+954460613
1378+957101691+959881595+962551848+965001998+966691412+967041400+966707002
1368+967405145+970246782+974674658+978788199+980496299+979765026+979636058
1358+982709148+988318709+993783827+996713734+996072337+992922096+990612607
1348+991732731+995138041+998512169+1002465217+1008676969+1015592710+1019775836
1338+1021366432+1023981660+1028927354+1033282551+1033725281+1031132408
1330+1029978925+1032900464+1037518753+1039636683+1038592449+1037137125
1321+1037304610+1039564805+1043716749+1048524649+1052224119+1054494860
1312+1056931941+1060890376+1065918152+1070184275+1072104110+1071351973
1304+1068978402+1066749160+1065965038+1066618129+1067511500+1067750977
1295+1067360751+1066860243+1067398696+1069719534+1072621011+1073741823
1287+1071765930+1067274429+1061202076+1054013841+1047002721+1042219124
1278+1040076203+1038937050+1037743328+1036581820+1034778457+1031822756
1270+1028326539+1024377962+1018795684+1012591957+1010247618+1014431088
1261+1021688679+1025915022+1025504505+1023632703+1022066524+1018728851
1253+1011701108+1002969966+996312273+993402657+993247667+993130278+989857260
1243+982376585+972689938+963043529+953781328+944528241+936084724+929399690
1233+924238420+920055638+917001005+914953463+912181011+906815800+899164658
1223+891461127+885900745+883285174+882503690+881207081+877973499+873770656
1213+870572038+869246541+869651040+871676055+874905224+877929650+879329432
1203+879083305+878260437+877896978+878691245+880983481+884264867+887284880
1193+889610991+892258431+895980312+900219496+904205788+907807185+910342740
1183+910123954+907066512+904398093+905833355+911455068+917748213+922156028
1173+925909664+931059471+937222273+943219366+949555844+957182453+965755740
1163+973647047+978562478+979235285+977581868+977465510+980301300+984347893
1153+988059628+990918002+992444745+993272658+995276294+998357866+999545970
1143+998133865+998753366+1005399480+1015042106+1019942519+1017915268+1015436230
1133+1017818972+1022897761+1025250354+1023958617+1023061922+1024029922
1124+1023647491+1020705203+1020315779+1027342719+1038388967+1045402609
1115+1046620290+1046140532+1044119356+1037587651+1029392668+1026337233
1107+1029623204+1035146673+1040848631+1047831321+1055595381+1060806806
1098+1061245524+1058815551+1057200766+1059085981+1064643496+1068533035
1090+1063692119+1052133211+1043925160+1043510172+1045503834+1044037390
1081+1040489472+1041113559+1047590124+1053975208+1052760164+1044973980
1073+1038365008+1036179213+1035933660+1034878077+1032482724+1030754792
1064+1030576187+1029925160+1025947809+1018775394+1013263389+1013296176
1055+1017644150+1022122353+1022961156+1018457504+1009815549+1000753219
1047+995987620+998488783+1007483935+1017666160+1021896860+1019288397+1016455702
1037+1017964333+1020797027+1020151045+1016221268+1011322346+1006537144
1028+1003339328+1003218500+1005154729+1007466167+1010715798+1014522683
1020+1014619552+1008337298+999381007+992844143+990430563+991845649+995711458
1010+999084669+999795193+998551719+996769563+993572091+987702876+981234106
1000+977722872+977591726+976799351+971395106+962373358+953105138+945311559
990+938864399+933515237+929348161+926117502+923858454+923194301+923599201
980+922923584+920252700+917177146+914652540+911352811+906446437+901181935
970+897279672+895776888+896541406+897462748+895505999+889807652+882839291
960+877848831+875860958+875769362+876116026+876065127+875651113+875989581
950+878314087+881922248+884608207+885473090+885492120+886130422+889196347
940+896173935+905685588+913388316+916714812+918525055+923070664+930279018
930+936938029+941145114+943192655+943835142+944414578+947358069+953629777
920+960817152+965635370+966827601+964527856+959409403+953487111+949704472
910+949732558+952671980+955631005+955561478+952446775+950015483+951605163
900+957111951+962732288+964208591+961594166+958359208+957172881+958382537
890+960807122+962803593+963227752+961460671+957943131+955415372+956222306
880+959794757+964257770+968294274+971237480+973178638+975214487+977767695
870+978434313+975495005+971957060+971671956+974321804+977111739+979267155
860+982458321+987890423+994567719+1000683634+1005096608+1006498396+1003207380
850+995730144+988731061+987282844+992268203+1000787037+1008548001+1012151405
840+1010620764+1005036996+998258820+994400462+996544529+1003088960+1007712981
830+1006339623+1001126479+995690594+992493122+993133259+997200600+1003931660
820+1012689972+1019777555+1019405900+1010680375+1001554536+1001544104
811+1011080575+1020359570+1020871198+1015889392+1013169272+1013968984
803+1016923423+1024777015+1039438131+1053796947+1056716995+1048309933
794+1037647148+1028925405+1021774198+1017135388+1016605992+1019880271
785+1023502245+1022603028+1016215880+1008699896+1004098114+1001534359+997414972
776+990791327+985082719+982172644+978826488+972853526+968041613+969049507
766+975093200+981199830+984198176+986467427+991707396+998059579+1000955325
756+1001189186+1003761309+1009879976+1013026663+1006069078+992461482+982347352
746+980858554+985159297+991272805+1000004406+1011264568+1019786497+1023464529
736+1026983330+1032389295+1034178443+1027416316+1015495154+1004210918+996529741
726+994837690+1000560398+1010160723+1016169567+1015335807+1010904148+1006782009
716+1005249878+1006614753+1009765109+1013386854+1018085275+1025364647
707+1033210214+1036358736+1032338052+1023044612+1011451771+1002405376
698+1000089582+1001737039+1000318513+993628722+986806181+985192772+989606777
688+996391488+999415054+995093561+988006207+986484049+991281518+994367791
678+989538682+981136894+979361387+986403918+992093610+984409338+963998804
668+948382299+952169524+964755756+973250974+979831630+986153205+986770185
658+978343061+966692443+961690806+965018391+967398267+962583832+953835437
648+950257598+958906029+976403393+989674528+990641840+983150388+977158740
638+980582048+990840621+991789591+975210360+953762069+935333447+921585706
628+915384386+916807153+922413676+927117027+927575978+927264565+930454929
618+937502390+951619492+976979332+1007241706+1020358539+1002738513+961372915
608+915809061+887097390+885185808+904811992+929125477+942472559+937224394
##END=
