##TITLE=<SNM>
##JCAMP-DX=4.24
##DATA TYPE=INFRARED SPECTRUM
##DATE=29/4/2025
##SAMPLING PROCEDURE=Instrument type and / or accessory
##ORIGIN=Admin
##XUNITS=1/CM
##YUNITS=ABSORBANCE
##RESOLUTION=4
##FIRSTX=4497.3318
##LASTX=599.83466
##DELTAX=-1.4281778
##MAXY=2.1496952
##MINY=0.39343199
##XFACTOR=1
##YFACTOR=2.0020596e-09
##NPOINTS=2730
##FIRSTY=0.40409395
##XYDATA=(X++(Y..Y))
4497+201839118+201776047+202070027+202884431+204151141+205220286+205406314
4487+204778207+204009502+203709776+204098267+204811119+204848602+203511214
4477+201444659+200090197+200175448+201190379+202320943+203262859+203875366
4467+203774708+202864499+201885652+201779173+202550021+203257976+203156261
4457+202387602+201537130+201062480+201229052+202097760+203402935+204685662
4447+205571666+205869041+205628709+205153345+204724722+204350671+203859126
4437+203108954+202056645+200738713+199370006+198563625+199108476+200908173
4427+202430562+202232834+200829442+199908069+200057835+200473061+200600096
4417+200762441+201109906+201137088+200522273+199693668+199346665+199684424
4407+200161232+200066662+199383686+198768782+198699429+199039838+199383254
4397+199408485+199011346+198407577+197997889+197939254+197997190+197990684
4387+198171488+198903841+200017599+200787628+200745337+200213050+199754090
4377+199519653+199373340+199246066+199119998+198902471+198588752+198423594
4367+198619209+199031561+199320853+199367996+199328400+199265403+198969026
4357+198342213+197844878+198145959+199276597+200483287+200986681+200583662
4347+199556272+198319096+197193474+196513623+196835053+198430516+200412371
4337+201281644+200683457+199607077+198864825+198506196+198489479+198919099
4327+199688756+200408024+200621949+200140407+199337495+198829456+198734053
4317+198696258+198686210+199170133+200271819+201308587+201581623+201260938
4307+201072066+201425114+202166264+202837705+202964993+202414113+201532054
4297+200731077+200124122+199728575+199692716+200064281+200507611+200471259
4287+199701870+198626473+198107851+198649933+199941234+201201112+201903157
4277+202110978+202093413+201840935+201227668+200487634+200128662+200402621
4267+201111514+201871614+202386217+202580760+202632116+202790383+203108954
4257+203435832+203647137+203661472+203319306+202637460+202085568+202110085
4247+202430473+202360271+201846338+201560188+201818293+202047609+201678813
4237+201001924+200655680+200819871+201355299+202149637+202940491+203402250
4227+203664851+204105516+204589350+204609163+204128381+203706546+203805194
4217+204267801+204562392+204428613+204073244+203739860+203491118+203428255
4207+203656783+204083932+204577159+205075492+205362044+205203659+204864187
4197+204973152+205724425+206603761+207004919+206785144+206139442+205307190
4187+204628783+204528973+205048787+205599175+205602346+205255119+205243225
4177+205818518+206534928+206815720+206592641+206410706+206868103+207886875
4167+208731928+208823655+208255865+207546197+207173039+207264394+207524598
4157+207582176+207425860+207299867+207346459+207553298+207905467+208494216
4147+209432783+210504265+211031864+210458640+208918254+207021665+205445643
4137+204824412+205464592+206912805+208166267+208559312+208320276+208104118
4127+208134649+208138817+208007986+208014342+208346951+208830711+209131315
4117+209079840+208930654+209225483+210028856+210516144+209931607+208763829
4107+208259601+208898263+210046422+211006260+211555607+211496852+210742409
4097+209881308+209663900+209954844+209948145+209297024+208485151+208201710
4087+208652155+209473198+210314024+211182092+211934764+212040423+211371186
4077+210685143+210759096+211380624+211599118+210909591+209859634+209211431
4067+208878971+208286232+207469372+207014937+207103269+207412523+207773415
4057+208283254+208856597+209155311+209090885+209068750+209479882+210178042
4047+210808368+211379671+211991613+212295269+211892696+211077950+210585125
4037+210705834+211065134+211170272+210861034+210314233+209891951+209904783
4027+210295238+210643388+210690472+210647958+210734936+210818401+210804066
4017+210915174+211259334+211520015+211376411+210931340+210554088+210528008
4007+210873478+211346744+211726466+212160254+212902715+213660359+213733449
3997+212994963+212139950+211743496+211701369+211813995+212189877+212769889
3987+213119274+212970594+212489529+211948325+211589279+211717580+212416648
3977+213242767+213642035+213553330+213244881+212836607+212395510+212168263
3967+212295671+212577772+212851091+213307431+214180381+215301477+216127507
3957+216197500+215590456+214900483+214718891+215250240+216259381+217086631
3947+217112071+216612726+216545218+217192201+217740059+217503017+216759292
3937+216097914+215883112+216442000+217885732+219474423+219946899+218996989
3927+217746029+217510252+218488355+219792756+220743053+221542630+222514362
3917+223267630+222989042+221458094+219354502+217543626+216441628+216222494
3907+217355067+220341120+224630994+228374081+230142845+230064099+228616243
3897+226033581+223212746+221763878+222698322+224989117+226127972+225547738
3887+225327264+226696909+228290348+228813109+229026944+229178824+228095433
3878+226052382+225074592+226007129+227833487+229681161+231303791+231794770
3868+230757853+229620873+229536545+229789768+229239186+228008351+226823573
3858+226538955+228895308+235771669+244340728+246198301+240307858+232726400
3848+227411756+225411890+226176560+228465643+231397006+234907547+238616605
3838+240800847+240321137+238552313+237121963+235897276+234255086+232773514
3828+232309284+232535876+233125251+235177992+239086282+241927392+241436204
3818+239908948+239146704+237634036+234527124+231730225+231068922+232881719
3808+236031576+238255043+238839594+239912580+242790101+245201099+244962836
3798+243391369+242033543+240690231+239182311+238295532+238636269+240129779
3788+242689636+246280203+250141841+253239136+255784732+258876876+262564901
3778+265832966+268564397+271693815+275890489+281264959+287325784+292742858
3768+296433234+298728629+300686562+303349102+307775166+314481530+322342053
3758+329191263+334609021+340680802+349764345+361907522+373155107+379383012
3748+382773290+387868888+395220673+400465309+401411095+401818282+405180455
3738+412196773+421324735+429091775+431921423+429736540+426129971+424393688
3728+425127767+426797690+427586252+427223097+426590390+425885010+424684408
3718+423381272+423120383+424663240+427902397+431475741+432962538+431748896
3708+429926543+429326316+430325632+432567914+435354036+437670331+438959950
3698+439793289+441483724+445131199+450890051+457937301+464364259+467149339
3688+464719673+459497694+455104438+453390484+454320610+456912680+460837270
3678+466640392+472689547+474147406+470616427+467495077+467387006+467790799
3668+465715982+461648220+457756409+455554348+455306260+456352377+457959451
3658+459628004+460811934+461813899+464784694+471721462+481218801+487225860
3648+484642840+476241723+467712886+461839533+459178869+459328859+461239604
3638+463736375+466030847+467743760+469094291+471390104+475903577+480887532
3628+481994829+479268996+476842010+477069316+479953059+484316989+487953598
3618+488894531+487742904+486515418+486378320+487826235+491415090+496726533
3608+501203268+502413903+501243996+500418547+501167959+502795695+504613315
3598+506846844+509693968+512766880+515515400+517684623+519641455+522208963
3588+524990291+525755780+523736785+520627314+517642764+515101097+513694982
3578+513767922+514283270+514196992+514205149+516276364+521756017+529613414
3568+535911609+536761828+533019411+528691862+526023249+524597484+523089192
3558+521230845+519993594+520092912+521031791+521893026+522787486+524802313
3548+528350321+531780672+532380094+529592752+525903031+523769117+523212863
3538+522789748+521778643+520387771+518896865+518008777+518751341+520539070
3528+520733301+518080645+514865008+513582981+513527308+512461482+510286126
3518+508973136+509635913+511415961+512933839+513847055+514727165+515818178
3508+516863223+518123933+520079932+521899218+521740952+519351121+516707695
3498+515567738+516035928+517457465+519112174+520032892+519535348+518091423
3488+516718830+515796861+515322837+515654017+516822257+517596260+516785876
3478+515085378+513983886+513366243+511777448+508959918+506533408+506037293
3468+507489734+509694861+511409352+512440344+513342843+514163588+514339419
3458+513669080+512511320+511164867+509833359+509128902+509761847+511283179
3448+511894808+510416467+507775958+505451982+503529090+501586072+500190555
3438+500110886+501014873+501839012+501777266+500564309+498612389+496908765
3428+496416967+497487675+499552191+501501044+502591700+502807306+502292078
3418+501093709+499449211+497737400+496234943+495152714+494915940+495946307
3408+497823857+499107671+498692743+497142056+495924336+495674730+496015943
3398+496587529+497294041+497874022+498041131+497852229+497517775+497285377
3388+497589911+498522836+499247002+498859583+497750440+496855385+496180193
3378+495454241+495274271+496402081+498555674+500707511+502220387+503161231
3368+503777148+504230332+504891322+506180495+507812994+509065250+510148462
3358+512064566+514443858+515021428+512517036+508915022+507557970+509527128
3348+512713470+514619809+514811181+513928511+512361449+510983617+511161592
3338+512914666+514444037+514184666+512618855+511441029+511525044+512355316
3328+513085139+513316524+512668753+510778907+508252722+506501433+506326793
3318+507413399+508951582+510205386+510620462+509854080+508119583+506335665
3308+505403157+505385056+506014488+507517064+509706174+511145456+510800878
3298+509444601+508322387+507736362+507523792+507532307+507390713+507069358
3288+507346294+508738893+510738358+512641124+514200088+515283121+515862418
3278+516133757+515906540+514616891+512638683+511481637+512045751+513707962
3268+515268474+515852772+515151471+513720704+512716387+512771882+513468717
3258+513931488+513534393+512308099+511164152+511230543+512407476+513216313
3248+512568303+511085376+510239444+510641183+511531832+511715821+510832734
3238+509643297+508923418+508441534+507574166+506532575+506105649+506502743
3228+507261028+507939881+508251948+507949587+507147479+506380203+506002699
3218+505830142+505661039+505700218+506095169+506423313+506006152+504741333
3208+503360761+502667915+502669285+502639930+502030623+501004691+499952620
3198+498831955+497431526+496136548+495863453+496988494+498548767+498963844
3188+497815581+496305949+495518578+495001414+493791375+492051548+490586336
3178+489427385+488054375+486572104+485617594+485337532+485259024+485059792
3168+484868867+484756538+484380165+483439440+482184237+481036122+480119423
3158+479526252+479429137+479525121+478986552+477502821+475765853+474472334
3148+473506571+472540123+471917687+472251457+473212278+473462896+472183221
3138+470164464+468911851+469029270+469813456+470242436+470022989+469468640
3128+468765940+467908724+467035641+466245917+465326211+464070800+462662243
3118+461486887+460700469+460031797+459071363+457971062+457491798+457910983
3108+458433952+458235048+457474709+456783619+456445294+456489833+456889368
3098+457306767+457246003+456655840+455889874+455034207+453749381+451928754
3088+450150940+449266304+449638272+450800319+451860905+452297566+452204351
3078+451896214+451652057+451592126+451421505+450713713+449674087+448937863
3068+448456277+447471252+445875431+444676437+444742530+445785550+446825415
3058+447177733+446850155+446322274+445965639+445536987+444483338+442847534
3048+441414653+440760391+440616803+440366095+439810943+439235844+438853397
3038+438491880+437975699+437478453+437170316+436897518+436555739+436322121
3028+436247067+436073349+435606797+434914338+434101185+433197585+432329890
3018+431712277+431358649+431064713+430795220+430827671+431353766+432091091
3008+432353886+431602419+430136254+428997816+428797720+428942768+428446861
2998+427177398+425848271+425024400+424531977+423938925+423451474+423807960
2988+425077632+426241496+426350073+425504647+424402500+423469605+422688813
2978+421992365+421491189+421081084+420132916+418289514+416367366+415584104
2968+416057592+416801765+417029161+416795423+416413125+415861665+415027314
2958+414188497+413861724+414180846+414710127+414927579+414695539+414172659
2948+413485052+412737397+412187276+411971610+411742100+411052231+410095251
2938+409608008+409964583+410691041+410988520+410542838+409706076+409001172
2928+408635129+408496185+408422709+408327052+408113381+407714619+407285282
2918+407079649+406988697+406498447+405374031+404094594+403306925+403141216
2908+403256462+403297636+403128860+402786189+402386236+402078933+401964639
2898+401966277+401857194+401490823+400920101+400232405+399396863+398438543
2888+397666266+397374712+397327256+397007360+396438096+396190009+396505707
2878+396973450+397146781+397035673+396855108+396572068+395973896+395180094
2868+394702944+394756771+394889434+394587102+393878596+393163927+392820154
2858+393011884+393516573+393795861+393552924+393112631+393006971+393301681
2848+393556586+393431396+393044067+392614045+392083663+391317310+390466913
2838+389913666+389865674+390083781+390055468+389492516+388605082+387813900
2828+387287597+386827744+386141209+385200156+384303583+383778708+383702672
2818+383894758+384089822+384173272+384282892+384510168+384543096+383952188
2808+382839472+381823901+381341183+381264759+381236923+381094436+380908184
2798+380775611+380616541+380166810+379294471+378287712+377556312+377117805
2788+376724908+376368601+376206613+376108813+375760217+375196878+374834854
2778+374906902+375153322+375159723+374790852+374151059+373297207+372255646
2768+371296641+370904637+371268239+371907258+372097350+371678582+371110836
2758+370715468+370302267+369639729+368865100+368251089+367873495+367630380
2748+367376904+366981030+366395064+365727792+365157486+364716300+364248527
2738+363684711+363240518+363143254+363255642+363262936+363164065+363188507
2728+363243049+362915084+362100442+361182344+360538234+360237123+360191692
2718+360271241+360277226+360036551+359498845+358700369+357801771+357125389
2708+356921393+357086090+357244684+357123335+356745651+356265762+355736332
2698+355125090+354491520+354014905+353808766+353775303+353699415+353455049
2688+353063224+352593725+352126012+351798554+351724065+351788491+351702242
2678+351364602+351011361+350880574+350927643+350993766+351020173+350971646
2668+350791557+350511465+350201691+349861311+349502890+349148667+348685986
2658+348039583+347449301+347207436+347207525+347105498+346833801+346655201
2648+346730732+346855803+346720014+346301454+345814836+345373412+344962116
2638+344639868+344474040+344376627+344252985+344164295+344138960+344001355
2628+343580920+342982450+342516880+342405892+342596252+342835080+342929337
2618+342927789+342974501+343009006+342827905+342473950+342254324+342275551
2608+342265280+341983640+341558888+341290228+341317737+341568177+341867084
2598+342024398+341930111+341640700+341306900+341018026+340792446+340658712
2588+340640462+340724239+340888847+341058188+341035889+340678718+340133361
2578+339707537+339509704+339418067+339426433+339734540+340320893+340730104
2568+340613876+340210231+339952915+339902899+339863779+339785688+339791553
2558+339936124+340059736+339909448+339480290+339120559+339107459+339272781
2548+339254263+338993464+338796435+338911472+339183705+339265011+339110764
2538+339028951+339223301+339548646+339746240+339726799+339605599+339538136
2528+339528728+339453257+339314313+339313449+339536529+339764966+339801824
2518+339773958+339854966+339908258+339727365+339437389+339314104+339359149
2508+339360638+339257985+339192606+339266767+339417263+339491722+339391749
2498+339210886+339209993+339498659+339784646+339680207+339224224+338817930
2488+338727335+338917963+339231012+339482761+339521375+339333545+339017638
2478+338691430+338499373+338560524+338830464+339115795+339217942+339057145
2468+338777232+338665350+338813077+338998078+339020913+338935439+338870477
2458+338883517+339017757+339254323+339424617+339395976+339301392+339370909
2448+339596995+339790451+339891824+339966789+339969111+339787385+339472698
2438+339196923+339064290+339091204+339248309+339466744+339724417+340089686
2428+340555821+340906412+340875003+340429738+339868899+339612446+339828797
2418+340274955+340576572+340615364+340569129+340674134+341030113+341553350
2408+342066435+342455640+342723109+342913647+343078017+343285644+343589375
2398+343987154+344440666+344899268+345315417+345669938+345991740+346352691
2388+346765446+347007519+346687206+345650437+344163700+342500327+340556595
2378+338134492+335419495+332837607+330526700+328302995+326091973+324002479
2368+322070119+320389836+319355241+319277180+319954932+321008729+322406062
2358+324396179+327175602+330859369+335553556+340938685+345762617+348436112
2348+348223453+345800873+342924752+341066792+340189897+339564335+339092216
2338+339071852+339444862+339907781+340457098+341299577+342299726+343075159
2328+343625845+344342330+345431943+346742640+348061823+349264717+350263705
2318+351065456+351799774+352542964+353221580+353791022+354364960+355052448
2308+355816478+356587683+357354035+358090318+358752023+359327926+359796056
2298+360146230+360522097+361146886+362010085+362805703+363265646+363445318
2288+363638476+364059150+364615284+364982905+364926100+364548328+364173354
2278+363964178+363771049+363431116+363048491+362822197+362758813+362702812
2268+362517543+362157753+361692124+361270498+360978586+360778312+360651009
2258+360700460+361034200+361599415+362190382+362635409+362949530+363253380
2248+363578843+363834969+363949143+363973139+364014998+364072904+364007407
2238+363731304+363341801+362993800+362743986+362563868+362391639+362162457
2228+361905587+361776139+361877393+362108451+362280323+362326409+362341354
2218+362502687+363003179+363951287+365257161+366674471+368029677+369376756
2208+370866172+372512843+374204886+375918066+377758074+379757480+381779690
2198+383687250+385496801+387322042+389215907+391073838+392731673+394186435
2188+395585138+396968627+398231184+399349913+400456526+401655252+402836086
2178+403688597+404022397+404069407+404231394+404554774+404702174+404365575
2168+403522084+402431816+401496123+400961900+400707799+400351938+399559536
2158+398293853+396807860+395371824+394047610+392743165+391430026+390279768
2148+389515887+389171220+389330320+390593383+393677399+398464802+404033711
2138+409632927+415123685+420638647+426296424+432104102+437930535+443657770
2128+449254217+454703354+460072852+465463518+470677697+475255120+478928408
2118+481768267+484024691+486009330+487908107+489773748+491957678+495262363
2108+500358646+507267161+515557973+524755571+534293638+543308200+550829653
2098+556121567+558834837+559280876+558333899+556447804+553176018+548097687
2088+541565010+534265176+526521567+517948459+507822104+496237504+484457363
2078+473713812+464338209+456137128+448891539+442493281+436980968+432359572
2068+428480831+425263080+422671516+420475975+418499523+416852108+415567997
2058+414521374+413801585+413556713+413628969+413839990+414283677+415108084
2048+416448643+418578389+421784946+426220685+431977215+439154419+447917469
2038+458493853+470918699+484831295+499544391+514048431+527101995+537804253
2028+546013015+552070596+556433514+559458017+561262180+561917871+561656238
2018+560700091+559189179+557244256+554805719+551691484+547913995+543495762
2008+538197358+531976152+525345884+518859413+512640350+506610636+500780332
1998+495241761+490187753+485894530+482409013+479349349+476336219+473553461
1988+471489422+470224305+469379653+468676565+468171191+468027751+468381022
1978+469266997+470435803+471477692+472350508+473498443+475294508+477604968
1968+479937072+481829686+483172626+484288587+485633373+487386359+489412022
1958+491563740+493836598+496164801+498272099+499987513+501644306+503779291
1948+506454751+509380175+512564373+516040036+519126464+521072817+522297623
1938+523914284+526431537+529560599+532802852+535839919+538601479+541114564
1928+543363456+545507254+547901015+550486684+552729264+554589814+556618277
1918+558698661+559883157+559995574+560159438+561375670+563508988+565658085
1908+567118921+567924423+568536469+569239676+570068876+571102727+572372131
1898+573582706+574354805+574716888+575147386+576105676+577453856+578352603
1888+578172901+577437065+577058131+577092250+577019309+576833117+577047830
1878+577766042+578436023+578704683+579147447+580706232+583328579+585314290
1868+584648715+581496312+577980219+575545016+574038153+572772739+571470824
1858+570181413+568953749+567750378+566424110+564914389+563543702+562860144
1848+563234315+564615124+566084415+565853864+563216035+559739002+557194835
1838+555931683+555215496+554378019+553684994+553826529+554520208+554430953
1828+553090335+551373999+549549055+546981309+543781867+540947545+539014114
1818+537735719+536822741+536461194+537062284+538534790+539891842+540024207
1808+538977316+537881302+537804194+539111051+541381259+543467776+544205339
1798+543681001+543352619+544660846+547628842+550308649+550466320+548673232
1788+547428360+548008729+549810927+551766151+553595917+555437831+557214306
1778+559004654+561413777+565137915+569995042+574125682+575478090+574557788
1768+573152089+572077570+571820700+573050508+575456833+577568179+578788699
1758+579767948+580610665+581267845+582969712+587033484+592552258+596621865
1748+597858163+597625111+597416530+597791951+599187170+601710855+604227930
1738+605879781+608340290+613782669+620179765+622013164+619007357+615154249
1728+612708388+612082230+612879813+614171903+615624880+618527557+624371437
1718+632059016+637081615+636575854+632897327+629398204+627882528+629016233
1708+632596097+637407079+641642931+644882505+648703936+653885873+658214375
1698+659780662+659625016+658171504+655449123+653253701+653044526+654462609
1688+657073882+662078380+670237125+677365354+677627107+672999459+668871916
1678+668198898+671266808+675833245+679128849+681306527+683884336+685903570
1668+685303433+683611926+684227485+687685285+690791422+690541280+688362709
1658+687812112+691208046+699251754+709151190+712520091+708494367+705587402
1648+706909741+709294332+708172297+704202127+701065861+700580702+703113020
1638+708317762+713907213+715450874+712056844+708381652+707569183+709189536
1628+711519704+713842013+717030320+721649929+726632872+731153818+736254299
1618+742559819+747691203+748784299+747410456+746301640+745516502+743993681
1608+741702157+739630287+738678427+739255581+741284401+744209109+747522576
1598+751455770+756494267+761954807+765886988+767040402+766194172+765092561
1588+764951027+766202687+768605082+771199087+772915483+773700919+774836767
1578+777608390+781248571+782919416+782222521+782209779+784690592+788159467
1568+789993521+790360129+791170752+793380941+797644362+805497412+817133309
1558+826477324+828394203+826964389+825833066+825328912+825083356+825211552
1548+826249690+828566997+831808655+835524516+840143411+845100571+846076189
1538+841160292+835099853+831428471+830264578+830494593+831497422+833437939
1528+836265414+839630862+843912682+849754299+855821466+859375727+860786844
1518+862538251+863983785+863115524+861400140+862274653+867054374+874963455
1508+884677710+892665507+893921931+890160043+886356713+884789711+886452101
1498+891356387+896686527+898372020+896528023+894729934+895415635+898013450
1488+900078770+900807700+901896390+904682720+908582748+912392568+915995237
1478+919949331+924180361+928142790+931585109+933823700+933286798+929964697
1468+926305521+924927689+926346487+928362326+929116562+929535211+931000334
1458+932594368+930863742+924577098+917467446+913290184+912994134+914469023
1448+914527077+912726130+911036231+910259131+910108069+911205334+914225788
1438+917653042+918664684+917416715+917129121+919281255+922829263+925956597
1428+927317401+926752513+924936978+922655396+921021170+921697523+925160980
1418+928344047+927620893+924285693+921962788+921774274+922149814+921914022
1408+921909914+923127158+925012062+926420380+927046002+927034213+926514340
1398+926064728+926134394+926079912+925270420+924407876+924297840+924732863
1388+925481025+927129244+929928376+932534289+933566592+933644236+934713992
1378+938102602+943422501+948583895+951561300+953415241+957162719+962668273
1368+966181627+966187344+965600187+966649042+968534899+970461602+972739312
1358+974755747+975277644+974525315+974106130+974856554+976305600+978478872
1348+982379437+987621631+991444313+992343000+992528716+994604515+998566111
1338+1003086998+1007270274+1010527889+1012973929+1016027430+1020865325
1330+1026507412+1030307110+1030538496+1028452216+1027122376+1029012281
1321+1034809419+1043348885+1051605043+1056169873+1056994429+1057627136
1312+1061257374+1067747358+1073320137+1073741823+1069927835+1067523594
1304+1069006819+1070990683+1070065737+1067153711+1064919765+1063326266
1295+1059775340+1053386937+1046960664+1043318875+1041751457+1039711502
1287+1036290738+1032187369+1028046726+1024940589+1023957767+1023559660
1278+1020554271+1014720096+1008627028+1003736615+999763527+996179138+992754861
1268+989816696+988112566+987339693+985796330+982455354+977961322+973135276
1258+967670508+960460169+951161883+941324670+933174142+927450540+923587309
1248+921258510+919769212+916466284+908337430+895522098+881605691+870374987
1238+862897774+857261879+850749983+842588974+834399802+827967515+823392801
1228+819667354+816218307+813283833+811272817+810368532+810418608+810929966
1218+811551242+812341798+813213334+813831870+814561693+816418134+819532965
1208+822822019+825502660+827900588+830657980+834103574+838274465+842778382
1198+846841082+850074523+853028944+856445778+860257087+863935316+867395617
1188+870729150+873473502+875238307+876797389+879564963+883988437+889202229
1178+894489200+900071982+905905859+911171216+916140582+923012478+933153599
1168+944241281+951793221+953748921+952029072+950031036+950463380+954099155
1158+958845949+961245783+960027348+957472701+956669283+958776998+963447815
1148+969549398+975163976+978498819+979084130+977474317+974394855+970699834
1138+967810495+967659135+971139026+976898116+983164634+989750603+995703983
1128+997012864+991371848+983554286+980704066+984889307+992614875+998796425
1118+1000088991+996210994+989432820+983926313+984122686+990552473+998830841
1108+1004495793+1006864069+1007356016+1007363399+1009194238+1014211120
1100+1018829539+1016819832+1007940255+999398527+997183336+1000438391+1003867492
1090+1005136717+1007098193+1011020908+1012038027+1004976903+992788444+982855485
1080+978644522+979211612+981996752+983368808+980233555+974330012+971607334
1070+974664825+978638270+977416738+971092761+964975875+963211606+963977810
1060+963059414+960289398+958793908+960212588+963563150+966535910+966821659
1050+964007581+960362041+958036339+956075339+952095463+946814446+944440989
1040+947672823+954177455+959592027+962944793+966109580+969149088+969134917
1030+964119285+956652254+951486334+951290437+956125534+964581936+972959563
1020+976298693+972566160+964834757+958419202+955917727+955874023+955039047
1010+951415418+945368615+937980241+929844062+922063000+916171724+912353091
1000+908976865+904199347+897956051+891679529+886247689+881387703+876915345
990+873237413+870228272+867119932+863837070+860693956+857059134+852022304
980+846264941+841915956+840372295+840944209+841359524+839731907+836355919
970+832621898+828986004+825156772+821177968+817545885+814841784+813510217
960+813345877+813318607+812915855+813255074+815755179+820330071+825700820
950+830946646+836013843+841063117+845981932+850379802+853861121+856687881
940+860067560+865424793+873273318+882513787+891004903+897207055+901149716
930+903728121+906141234+909658101+913894489+915803984+913348775+909442792
920+908596741+911360385+914662419+916058949+915420585+913309476+909812496
910+905364014+902034411+902292770+906020420+910239898+912297775+912420494
900+912453600+913368781+914482182+914522850+913199797+912058113+913555271
890+918740840+925747303+930430623+929869070+925781064+922845935+924029656
880+928872732+935621670+943254767+950140417+952981110+949836984+943145148
870+938140889+937997211+941464895+944976760+945890393+944367394+942986108
860+943825728+946780209+950720429+954558711+956675119+956034730+954956817
850+957093053+962487559+967461392+969545111+970105771+970978795+971150458
840+968471187+963370885+959254416+958885962+961466213+964048666+965407743
830+967285025+971074302+975179338+977121046+976672864+975409057+974977070
820+977252637+983582688+993241687+1003134513+1010026772+1013845405+1015076404
810+1013016681+1008973094+1005587103+1004266194+1005624020+1009393470
801+1012012423+1008848410+1000390042+992420704+989974069+992575457+995903393
791+996657569+993987468+988215695+981256033+975320575+970995586+966933005
781+961084897+953412680+946775505+943988579+944664396+945194808+942264562
771+936860290+932957345+932986759+936735130+942657131+948664517+953075486
761+955582796+956407174+955476690+953734452+953508366+955486812+957225061
751+957014396+956502145+957661692+960248671+962638025+964310836+966426708
741+970037594+974877632+979434900+983114975+986955520+992391825+999704222
731+1004793629+1002295191+994613149+989496769+990438447+992074757+986302568
721+973761552+962739547+958764137+961334324+967881232+975721064+981578757
711+984370804+987604125+994273216+1001451938+1002579331+994743013+982715797
701+971744403+963270495+957842644+955930827+956640583+957877358+958686671
691+959888791+961141583+959762261+954312261+947245302+942800392+942029604
681+943435422+946760023+950398835+950399192+945381655+937798693+930071518
671+923211531+918675104+919018133+922274438+922022451+918548693+917363960
661+921810893+929723785+936091884+938571387+937749153+934030970+928691780
651+924656886+922784129+920179228+914521659+908985797+909596771+918017150
641+930238954+940563290+945589223+945397077+941563261+936120286+932270215
631+935543133+949162656+962842914+957178617+933099117+913428920+911412247
621+921030459+926601869+919348479+906144032+899090530+903177703+913352526
611+919483643+915845307+903547467+888304316+877791882+877829632+887856490
601+896517960+893480655
##END=
