##TITLE=<SNM>
##JCAMP-DX=4.24
##DATA TYPE=INFRARED SPECTRUM
##DATE=29/4/2025
##SAMPLING PROCEDURE=Instrument type and / or accessory
##ORIGIN=Admin
##XUNITS=1/CM
##YUNITS=ABSORBANCE
##RESOLUTION=4
##FIRSTX=4497.3318
##LASTX=599.83466
##DELTAX=-1.4281778
##MAXY=2.1263292
##MINY=0.38129383
##XFACTOR=1
##YFACTOR=1.9802984e-09
##NPOINTS=2730
##FIRSTY=0.38643813
##XYDATA=(X++(Y..Y))
4497+195141367+194541573+194451728+194865376+195944735+197660352+199355834
4487+200076204+199496305+198453547+198315122+199465454+200643296+200310674
4477+198548553+196999503+196984784+198183079+199161170+199012301+198242057
4467+197896026+198309193+199091070+199870313+200570171+201135065+201364343
4457+201113244+200459633+199447741+197907238+196048154+194791393+194712293
4447+195256826+195674583+195939528+196285002+196645556+196828045+196713564
4437+196336998+196036039+196209830+196929041+198080321+199499721+200658691
4427+200792104+199752115+198356974+197566504+197504967+197459804+196726521
4417+195336769+193959763+193284902+193535776+194334643+195003033+195182482
4407+195169163+195539439+196470215+197470745+197861443+197431421+196467145
4397+195342593+194364200+193828035+193896179+194423239+195133933+195858020
4387+196400792+196470260+195957813+195127446+194361943+193823355+193441732
4377+193203184+193344904+194110136+195315037+196385953+196829700+196488590
4367+195545669+194518472+193916812+193645982+193217601+192703438+192779227
4357+193701650+194937809+195890617+196460237+196866902+197320567+197958331
4347+198783204+199443632+199363148+198439882+197373706+196900944+196979171
4337+197038586+196689334+195907698+194869499+193856870+193123061+192798550
4327+193044894+193994286+195232627+195804188+195334391+194633826+194439974
4317+194329241+193675284+192825774+192543628+193093458+194380168+196156119
4307+197773283+198469213+198105273+197242445+196661132+196923714+197919022
4297+198745926+198603634+197844994+197633820+198366651+199014543+198549487
4287+197370230+196566531+196421199+196362296+195909037+195089883+194238899
4277+193766769+193956978+194866866+196384117+198138863+199396227+199551040
4267+198839925+198054015+197590072+197280204+197030474+197031483+197306842
4257+197616378+197908186+198359804+198884486+199055342+198722464+198331210
4247+198236489+198011591+197048594+195680633+195002310+195560508+196859919
4237+198094498+198844304+199108331+199022851+198681500+198260703+198159541
4227+198655073+199489412+200149103+200454366+200686563+201254136+202168027
4217+202816024+202622203+201806179+200991840+200377222+199808294+199273574
4207+198966235+199171087+200026842+201070895+201410936+200809742+200198345
4197+200653153+202085255+203295754+203326515+202470686+201741572+201660666
4187+201906905+201954656+201682066+201291188+200960252+200840443+201130280
4177+201833524+202641827+203267672+203714504+204163699+204784683+205555739
4167+206087119+205896398+205063594+204241685+203885240+203870732+203927529
4157+204003032+204076653+204033838+203973354+204267194+204993659+205630415
4147+205635592+205070847+204416514+204004762+203746334+203289750+202494027
4137+201792514+201904391+203109051+204874603+206165045+206188552+205088380
4127+203848218+203335530+203534212+203873562+204091823+204287676+204291709
4117+203809842+203214518+203345056+204417297+205731757+206496207+206500030
4107+206031542+205545671+205409294+205689529+206062483+206085072+205817705
4097+205890860+206538315+207089470+206961114+206426258+205937408+205619940
4087+205673456+206289940+207136003+207650723+207615071+207061990+206149333
4077+205290960+204886567+204933747+205220484+205640302+206118422+206548549
4067+206904121+207182114+207289898+207157734+206879937+206662909+206676981
4057+206966471+207430159+207854492+208027530+207867359+207407268+206727863
4047+206048367+205698318+205729244+205736739+205423485+205170369+205582874
4037+206590206+207478016+207798387+207804708+207917940+208198040+208484024
4027+208692939+208826954+208888100+208842320+208603365+208155209+207712019
4017+207562819+207753555+208119000+208475596+208594772+208254234+207528657
4007+206850892+206700232+207262327+208313107+209379945+210062872+210260922
3997+210136374+209906524+209629871+209231723+208800889+208661065+208982325
3987+209537934+209997814+210263526+210401710+210403395+210189603+209908405
3977+209994443+210620393+211234047+211110702+210340308+209750356+209826250
3967+210209529+210421846+210624907+211183828+211795601+211724116+210816231
3957+209659473+208816014+208467800+208749089+209889398+211773704+213655001
3947+214832993+215536583+216399065+217223261+217146735+215988984+214503156
3937+213451322+213268833+214136492+215620063+216571321+216179630+214996039
3927+214287829+214658992+215566758+216086098+216066970+216185529+216937924
3917+217908130+218080551+217007844+215375600+214124798+213542341+213690593
3907+215242819+218929037+224005052+228149630+229817977+229501744+227928478
3897+225189290+221959521+219846750+220078691+221880993+222826713+222361476
3887+222568872+224431643+226195057+226600218+226802090+227088631+225913001
3878+223592352+222645202+224122678+226867796+229887566+232715380+233826658
3868+232586722+231044700+230812894+230821141+229300443+226647548+224674314
3858+224823559+228307453+235958227+244338927+245326605+238558509+230314231
3848+224679281+223027894+224950712+228815054+232993282+236888717+240020875
3838+240884305+238762188+235383174+232733379+231272819+230534976+230186582
3828+230032401+229882404+230504200+233610805+239036584+242655004+241654233
3818+238885984+236905301+234624458+231146990+228197622+227815773+230641105
3808+235203664+238347561+239099189+239903129+242003123+243082903+241640101
3798+239672602+238501065+237281371+235675102+234810799+235472627+237263071
3788+239569348+242150984+244605257+246521709+248359061+250862004+253641103
3778+255653089+256998897+258843744+262196783+267454505+273934119+279724680
3768+283518968+285985927+288336284+291367596+295949781+302646467+310560591
3758+317843994+324195417+331389998+341435449+354548632+367076995+374343272
3748+377804546+382745538+391512813+399657975+401535389+399269128+398412215
3738+402296166+410412193+418658939+422925537+422887191+421068078+419840468
3728+420075239+421300772+422462557+422867596+422332831+420711166+418334112
3718+416363873+416090065+418359516+423353211+429578128+433597104+433581633
3708+431619671+430650519+432150163+436034024+440624095+443545877+444059032
3698+443443993+443369468+444963201+448817806+454857857+461439987+465084412
3688+463753382+459696934+456252907+455198846+456814732+460072116+463813670
3678+468047972+472082870+473078870+471206904+470332503+471305959+470616094
3668+466356328+461210092+457719442+456121194+455980934+457404638+460568175
3658+464529812+467088843+467449156+468186728+472506390+480420363+486305014
3648+484221032+476934408+470708016+467955118+467625596+468064467+468728085
3638+469732995+471156217+473493210+477701567+484186749+491691499+496550893
3628+495598627+491320109+488359710+488858989+492804493+498495126+502992281
3618+504858468+505872377+507737962+509832178+511319722+512852956+514636371
3608+515070697+513147202+510674704+510482252+513365599+517420693+520639340
3598+523161200+525517998+526859141+526943538+527741398+531395575+537732219
3588+543374966+544038103+539557051+533773863+529884735+528493025+528564179
3578+529005729+529485624+530166339+531170556+532590016+534784883+537792357
3568+540054524+539592627+537436709+536546627+537795848+539466814+539738547
3558+538688820+537618205+537169251+536883493+536294098+535959820+536806921
3548+538373445+538796514+537412269+535917622+535621269+535954282+536127892
3538+536215600+536316792+536128313+535836355+536344363+538138373+540377544
3528+541580955+541264677+540589260+541147653+542762394+542980551+540042244
3518+535651127+533073103+533399073+535164670+536720538+537296930+536514541
3508+534804447+533866206+535325096+538949355+542641036+544402299+543845531
3498+541611415+538363572+535154135+533711499+535062334+538249979+541036107
3488+541929379+541351843+540691535+540639826+540817950+540652888+540042123
3478+539262263+538836846+539313250+540782675+542761010+544576149+545681498
3468+545765534+544844209+543229408+541326199+539524062+538008647+536405042
3458+534263511+532016152+530530595+530038539+530171877+530872578+532539029
3448+534824071+535963974+534212885+530088022+526483748+526142548+528996157
3438+532221487+533403166+532724257+531402979+529749531+528014996+527500366
3428+528942340+530777887+530632389+528323990+525959246+525037982+524893869
3418+524489762+524282140+524918008+525659823+525780158+526031002+527186857
3408+528524328+528813698+527631236+525329639+522701892+520673051+519912454
3398+520731623+523129656+526555263+529770419+531328996+530332665+527089758
3388+523252520+520852921+520846781+522539719+524576747+526361728+528042627
3378+529477979+530287216+530747006+531380104+531963479+532259411+532903165
3368+534410815+536344543+538140480+539649093+540397590+539565418+537388069
3358+535647093+536043134+538341720+540497097+540867132+539845217+538944841
3348+539048862+539979638+541149940+542148378+542791650+542866356+541989396
3338+540040438+537873262+537128016+538884583+542440457+545698655+546926988
3328+545882378+543205389+539824388+537119106+536285309+537029954+537703866
3318+537072333+535495034+534342370+534732029+536610316+538560780+538981742
3308+537917989+537008824+537367783+538380187+538861828+538549643+538026827
3298+537895957+538266112+538762382+539168655+539719404+540350094+540599132
3288+540804406+542081800+544590055+547148274+548839467+549799198+550383897
3278+550623303+550594890+550635644+550764708+550287641+548719372+546755665
3268+545501146+544952445+544290873+543502946+543297250+543573196+543320667
3258+542128092+540869961+540598530+541388203+542579935+543741629+544868228
3248+545958347+546947515+547688728+547647794+546200583+543756859+541956589
3238+542089084+543539426+544176919+542532439+539350332+536582806+535483657
3228+536101706+537795547+539537005+540151382+539165646+537612486+537214098
3218+538296271+539183043+538389277+536759245+536127772+536634636+536772187
3208+535573111+533608139+532090978+531829720+532669778+533599170+533720047
3198+532962820+531752848+530596451+529982014+530003866+529968168+529107162
3188+527752654+526993261+527359082+528298647+528604210+527328081+524745782
3178+522322587+521198335+520916791+520224157+518731195+516908351+514867952
3168+512390096+509920970+508502593+508715933+510051117+511256514+511463354
3158+510972442+510465939+509941738+509216477+508734113+508973459+509462745
3148+509199862+507867086+506068682+504468508+503304707+502761785+503049499
3138+503877247+504447319+504115750+502723950+500710430+499217257+499069562
3128+499355441+498413709+496414606+495214806+495688773+496841256+497422555
3118+497237387+496740606+496210084+495780634+495732446+496068138+496069222
3108+495058413+493537219+492716966+493025960+493640006+493352322+491773458
3098+489678821+488157325+487658859+487924180+488416145+488660909+488520558
3088+488265681+488200818+488237990+487884058+486743855+485164208+484029724
3078+483696590+483520933+482724759+481339100+479905373+478611153+477297039
3068+476229584+476100099+476947230+477793880+477844145+477379148+477024434
3058+476878184+476779460+476768052+476810943+476506373+475498002+474063794
3048+472980928+472756361+473134342+473367217+472901708+471843614+470866185
3038+470626388+471126480+471717831+471724573+470887766+469358415+467590139
3028+466199514+465596995+465579237+465525029+465198607+464960797+464957185
3018+464751580+464094161+463431235+463177291+463003169+462435596+461725866
3008+461470086+461640596+461595628+460971559+460025945+459037228+457913880
2998+456635312+455598679+455232015+455584322+456408879+457215738+457243218
2988+456062261+454259522+452872328+452299306+452249463+452374704+452478756
2978+452476649+452437851+452363417+452003586+451271703+450487327+449892936
2968+449441664+449174989+449160240+449045624+448421916+447490900+446672302
2958+445912668+445007867+444102585+443313334+442438211+441502107+440996477
2948+441187966+441631442+441685499+441282025+440871958+440737958+440606246
2938+440038913+439073253+438147052+437534481+437159239+436809099+436327337
2928+435744203+435315867+435255609+435388977+435279808+434833984+434540340
2918+434793953+435256482+435331638+434971988+434440894+433642944+432410247
2908+431108894+430316453+430220317+430663492+431295447+431490818+430720920
2898+429284394+428156230+427911527+428246436+428558501+428478137+427883655
2888+426927476+425979935+425180269+424306440+423387042+422942422+423236728
2878+423785731+423954074+423632618+423070162+422434775+421763782+421055708
2868+420321176+419723474+419550977+419840528+420238043+420456862+420621291
2858+420889683+421005292+420548482+419531383+418456945+417736139+417309639
2848+416969943+416727979+416585792+416301418+415732611+415136263+414844335
2838+414836358+414809330+414561737+414183485+413870818+413640442+413337648
2828+412893449+412402176+411983923+411696690+411490664+411177365+410580746
2818+409791044+409143678+408829627+408615835+408139792+407421002+406805421
2808+406470391+406299671+406129522+405845088+405402305+404930084+404640232
2798+404628012+404852971+405140174+405136381+404514811+403326539+401987292
2788+400878271+400008415+399141058+398313280+397947128+398175337+398415857
2778+398029629+397129252+396379039+396205309+396445046+396638792+396510120
2768+396150890+395815319+395586778+395243351+394499067+393378247+392224590
2758+391369542+390974796+391078457+391496860+391786531+391582822+390923056
2748+390090312+389255552+388414049+387608695+387037449+386828624+386808066
2738+386634908+386143063+385509182+385107904+385135023+385333615+385208735
2728+384532415+383511854+382519195+381768079+381221906+380778731+380491287
2718+380487223+380662790+380632571+380126941+379344883+378738964+378474576
2708+378213528+377465874+376147395+374772812+374038070+374185765+374855192
2698+375502407+375745124+375418281+374701658+374059620+373727661+373512845
2688+373264259+373096729+373016365+372783701+372264406+371636214+371169833
2678+370924798+370770873+370679613+370765997+370962061+370945175+370520812
2668+369822941+369105716+368566887+368301867+368243084+368214249+368096262
2658+367864591+367505000+367009544+366455485+365989675+365687965+365467130
2648+365156961+364618433+363845857+363068193+362607531+362476571+362335558
2638+361986502+361613517+361448275+361506095+361637506+361593080+361182171
2628+360537846+360013585+359763915+359688969+359740859+359957992+360251004
2618+360425427+360390663+360215578+360018160+359828266+359523817+358949441
2608+358146705+357419217+357116332+357315436+357726164+357985285+358013879
2598+357966052+357944381+357969694+358077538+358197753+358119105+357795392
2588+357470475+357319168+357201151+356916898+356502377+356161778+356054717
2578+356182878+356339181+356197024+355656540+355063141+354843299+354966223
2568+355007970+354732807+354372373+354267238+354436424+354653256+354795141
2558+354873188+354806278+354462309+353913186+353426187+353220130+353319426
2548+353571323+353784694+353892869+353947137+353999118+354077646+354165474
2538+354129717+353861175+353506280+353360421+353552331+353963300+354365330
2528+354578159+354613314+354669118+354872285+355079936+355051884+354749873
2518+354337248+353968568+353773888+353935278+354459509+354945876+354948916
2508+354532860+354144284+354018863+353985333+353778704+353359699+352931152
2498+352718533+352787400+353078816+353514647+353982293+354314644+354426882
2488+354443647+354545110+354661743+354496019+353973624+353481629+353422214
2478+353690184+353862770+353786771+353684976+353767839+354018893+354289090
2468+354383540+354184226+353861416+353760163+353946957+354132395+354120868
2458+354030059+354004686+354009713+353972420+353923720+353932720+353987650
2448+354029187+354095886+354296284+354597272+354822351+354886943+354829544
2438+354650095+354373517+354217214+354403526+354807061+355048844+354986841
2428+354867228+354910149+355010709+355001318+354970046+355117470+355458760
2418+355808779+355992202+356040841+356196452+356641885+357252228+357743231
2408+357991425+358050810+357976827+357843821+357837651+358125967+358680959
2398+359357731+360035286+360566199+360794468+360798261+360916880+361350093
2388+361887898+362171670+362030175+361389973+360037724+357740130+354595285
2378+351073783+347664671+344598775+341920913+339613597+337530518+335467033
2368+333515817+332047868+331109326+330324138+329715089+329972042+331570470
2358+334306092+337867294+342261330+347564953+353319065+358163199+360523579
2348+359774480+356791837+353638654+352061326+351962692+352153488+352054644
2338+351871553+351801031+351766688+351782280+352038059+352533727+353032404
2328+353443494+353884110+354411171+355042764+355976550+357485675+359519091
2318+361537006+362922636+363568947+363878514+364236509+364749544+365416564
2308+366244341+367215389+368270293+369258859+369985414+370452969+370891870
2298+371425101+371961070+372490328+373178417+374081111+375004814+375700127
2288+376080094+376264028+376451574+376713072+376899564+376801683+376388095
2278+375841139+375366090+375008606+374667346+374257610+373822412+373450360
2268+373130801+372803356+372529818+372447317+372549472+372689763+372793965
2258+372943436+373277292+373837822+374460115+374923758+375292408+375834939
2248+376511801+376930596+376943479+376839096+376775828+376492568+375793644
2238+374921982+374227391+373762304+373387815+373038548+372733587+372505408
2228+372428987+372604433+373053868+373690458+374396426+375100438+375786841
2218+376466412+377162749+377913503+378767828+379804040+381112165+382660178
2208+384238319+385683544+387106676+388777311+390831827+393143476+395445765
2198+397598794+399740175+402104407+404724750+407388375+409807718+411771456
2188+413231610+414347915+415412119+416601443+417805667+418845491+419797788
2178+420833909+421812994+422412623+422629635+422763996+422909825+422833705
2168+422435197+421970260+421621746+421169451+420337098+419181815+417934310
2158+416716511+415539467+414374733+413158921+411785723+410200087+408611080
2148+407375011+406535916+406064689+406665251+409377155+414213704+420109912
2138+426163267+432080514+437739725+443174458+448642360+454235534+459737056
2128+464892442+469604924+474014943+478364885+482663478+486689165+490193300
2118+492847203+494416887+495265312+496246383+497997804+500651857+504170470
2108+508770352+515029101+523485485+533958128+545215508+555513940+563630930
2098+569097177+571493584+570558535+567061172+562296168+556810417+550477745
2088+543243855+535224506+526516135+517036812+506611725+495585233+484879835
2078+475074361+466174562+458303269+451698715+446246675+441711896+438038997
2068+435123445+432741153+430698647+428819909+427042935+425526105+424419251
2058+423734804+423454253+423440678+423477098+423606432+424063332+424919794
2048+426187587+428032133+430699761+434537240+439943470+447027799+455668839
2038+465981508+478172644+491944208+506471284+520850212+534336711+546301113
2028+556102372+563210510+567599820+569735512+570214385+569671462+568565812
2018+566786430+563965629+560168542+555829918+551258870+546499283+541439551
2008+536009543+530357888+524727542+519176357+513574425+507855769+502161012
1998+496739342+491818606+487625419+484325926+481765480+479520108+477435102
1988+475787312+474793690+474364842+474361712+474730181+475377727+476149943
1978+476960715+477906510+479196365+480889815+482784325+484640098+486374813
1968+488005116+489602731+491341269+493388801+495690458+497931135+499822605
1958+501453419+503181964+505152775+507134481+508913622+510687707+512893589
1948+515698679+518883134+522225849+525622621+528756149+531197765+532981783
1938+534588277+536430325+538660587+541197376+543803332+546351799+548896173
1928+551415324+553901607+556579258+559458812+562012757+563915785+565462443
1918+566704140+567139610+566847049+566946375+568437772+571033313+573260506
1908+573911483+573386800+573190255+574233661+576064752+577669802+578683049
1898+579537554+580542193+581329217+581585418+581821031+582614196+583517401
1888+583614440+582907779+582219480+582084818+582394595+582824466+583283654
1878+583859865+584367030+584388641+584116548+584609687+586595066+589017419
1868+589422669+586776802+582743440+579351664+577228433+576004073+575082207
1858+573879879+572104350+569973654+567878957+566163144+565268667+565502595
1848+566759883+568713356+570492618+570266937+567161040+562941727+559778642
1838+558169860+557288747+556332508+555445857+555193990+555231192+554308422
1828+552218420+550153521+548548712+546648272+544308450+542405603+541348773
1818+540595520+539714166+539179551+539763950+541363461+542788400+542985005
1808+542182631+541412884+541509441+542824699+545058393+547096504+547827604
1798+547425304+547217140+548454804+551346157+554343457+555063782+553492684
1788+552093450+552623129+554769175+557201400+559143196+560570121+561724350
1778+563208704+565954198+570611809+576662033+581625329+582803156+580717549
1768+577881036+575955313+575798017+577803441+581048816+583506686+584563877
1758+585389247+586398340+587175973+588421522+591561371+596501972+600965326
1748+602997839+603062913+602783114+603388702+605316171+608016577+610197356
1738+611633371+614113695+618860880+623252298+623221297+619939080+616798871
1728+615040136+614770090+615789416+617446236+619651637+623686564+630531578
1718+638328737+642542091+641306474+637572173+634522741+633609784+635208633
1708+639103661+644202883+648450489+651112248+654270156+659844096+666030608
1698+669552471+669965186+667590690+663547455+660842534+661340128+664442233
1688+669139936+676004273+684957288+690919864+689134583+683687057+680209199
1678+680943129+685566006+691205442+694611906+696504219+699512897+702635770
1668+702106331+698417721+695916690+696806230+699583027+701656896+702780786
1658+704618620+708934189+717131061+727726387+732792259+730074938+727681058
1648+729102325+730861601+728185093+722507854+718063040+716557738+718275177
1638+723259241+729803326+732784434+729223081+723394384+719869812+719643710
1628+721718542+725116037+729481028+733521795+735187403+735317912+737524155
1618+743522248+750143266+752066280+749458939+746314696+744477223+743234925
1608+741490216+739602238+738943796+740184409+742788860+745836667+748871290
1598+752042080+755455888+758451925+760095682+760418221+760200365+759707226
1588+758733289+757632515+757361144+758462219+760389386+762138368+763677441
1578+766023705+769141401+770790395+770438660+770935892+773886841+777115481
1568+777399072+775293600+773601384+774125223+778274526+787755534+800965545
1558+807912413+804140309+797899499+794081404+793175911+794721425+797686159
1548+801040612+805033040+810704139+818300419+826712197+832556063+830829113
1538+823408249+817760025+816576359+817883791+818780375+818929846+820302533
1528+824163730+830257416+837829918+846345958+854191757+858296936+858352558
1518+857648908+857847018+858278515+859012746+861454482+866749587+875202420
1508+885830433+893761954+893195073+888110901+885516322+887289504+891721314
1498+895717474+897180097+896473978+895646020+896927868+901358595+907257723
1488+911302403+912750156+913356768+913977947+914346417+914707904+916214470
1478+919915481+925776203+932412632+937527926+938849566+936154036+932495644
1468+931381446+933672809+936822952+937466284+936275695+936772566+939958587
1458+942312495+938904707+931316794+925443009+923266925+923538055+924216422
1448+923633950+921610707+919416443+918354918+919145192+922327179+927969324
1438+934251068+937046586+934466997+930340930+928444945+929146910+931548194
1428+935371045+940246632+944254049+945419897+944860180+945581227+947826659
1418+948572989+947155455+946137935+945836164+944119568+940540156+937532381
1408+937243733+939317361+941927049+943839228+945235572+946890887+949226435
1398+952059998+954632002+955718028+954476993+951678465+949076723+947236120
1388+945136366+942274932+940322843+941137858+944396597+948694528+953622307
1378+959487785+965134323+967876627+967183993+966345801+967645649+969315772
1368+969578655+969870794+972008533+975162227+977367447+978353786+979628109
1358+982734007+987758403+992617677+994811279+994454186+994119969+995977668
1348+1000418749+1006535251+1012567416+1016618235+1018042752+1018255250
1340+1019424890+1022221913+1025462834+1027848827+1029180158+1030162825
1331+1031977182+1035570258+1040625054+1045222709+1047048744+1046224759
1322+1045834438+1048697076+1054282936+1059199759+1061357362+1062244435
1314+1063627295+1064958265+1064995587+1063959827+1063332327+1064421663
1305+1067563860+1071468038+1073741823+1073513915+1072267222+1070772875
1297+1067685459+1062991126+1058947892+1055991224+1052225380+1046881515
1288+1041498402+1037744356+1035306954+1031973931+1025375788+1015956783
1280+1008024781+1005783442+1008988726+1013091978+1012948587+1006968734
1271+997913143+989692974+984061485+980150926+976361424+971808797+966347246
1261+960114683+953044410+945266453+938130444+933391325+930514961+926624147
1251+920323140+913415099+908104764+904125038+899040324+890793849+879588480
1241+867488995+856613990+847640870+839848405+832601332+826390621+821931240
1231+818967409+816766282+815085805+813777891+812264101+810309363+808617629
1221+808104925+808881896+810145324+810977497+811135636+811009642+811196375
1211+812398703+815113014+818993053+823085169+826835060+830311414+833688622
1201+837117239+840865023+845089332+849335554+852599771+854493950+855977460
1191+858106049+860783700+863784011+867854154+873015740+877189784+878726269
1181+878940934+880356060+884135930+890193017+898050193+906943853+916094918
1171+925202158+933721750+940192394+943859875+945832552+947415569+949056136
1161+951110741+953844256+956601970+958151096+958747595+959867451+961967928
1151+964699155+968299816+972959234+977101675+978216716+976191486+973749689
1141+972918300+973259921+973707671+974267088+975021485+975490304+975694675
1131+976202382+976991152+977827598+979686260+983801913+988989926+991871106
1121+990821740+988276885+987949289+990790257+994403259+996494044+997451367
1111+998310327+999436926+1001803596+1005730469+1008594191+1007482641+1003638480
1101+1000634497+999526078+998527339+996346198+993414633+990794471+989407878
1091+990130190+992421553+993159576+989711515+984085383+980958417+982018678
1081+984574309+985723000+985838941+985989074+984171466+977770832+968215239
1071+959668799+954164267+950587925+947672132+945767659+945453548+945878724
1061+945774822+945431034+945692472+945757787+944729490+943094342+941814239
1051+941496034+942181986+943681690+945377398+946244244+945677242+944068039
1041+943226596+945208844+949530553+953440811+956098959+959082173+961651649
1031+960654716+956154220+951953448+950036996+948822569+946972093+945728771
1021+946451143+948036448+949048250+950680930+954365628+958938542+962417724
1011+964339955+963907977+958255058+946891850+934006063+923488211+915109422
1001+906414294+896654692+887337722+879424501+872677670+867426570+864964607
991+865610227+867536671+868308164+866766382+863046108+857669195+851240749
981+844780398+839710432+836919489+835674602+834019107+830879077+827311344
971+824884657+823395006+821290797+817813902+813553474+809310082+805650728
961+803467119+803444725+804732834+805669148+806162528+807809656+811451011
951+815851278+819350206+822281650+826797677+834230099+843011731+849956071
941+854027237+857329078+862235487+869339470+877568668+884938365+890297881
931+894836301+900396396+906605482+911172797+912539765+910872291+907136606
921+902724119+899497224+898972782+901267336+904600118+906450112+906315209
911+906092598+906893648+907323881+905655443+902237902+898811332+896469162
901+895251725+895256361+896986501+900461109+904446855+907017655+907266512
891+906410141+907275000+912061013+919805560+926565515+929132643+928059259
881+926271208+926322677+929312815+934367731+938420477+938941728+937281417
871+936767329+938650131+941749346+944322494+944928504+943289924+941086811
861+939975683+939863474+940445465+941942942+944074540+946610306+949364649
851+950325283+947227151+941862698+939662474+944034448+952279479+957860041
841+956963156+952170160+948763274+949626147+954401205+961616072+970214282
831+978615705+983989007+984351096+980850483+976037140+970997273+966644261
821+965738888+970441889+979879856+990277433+995762341+992297124+983174714
811+976650915+978094454+985937183+993783705+996124912+992393440+985886798
801+980438851+978209010+979170969+981562260+982951681+983296975+984387395
791+985639506+984523923+980280893+974890074+969795607+964396421+958451302
781+952352017+945710170+938266973+931744679+929217943+930208194+930076602
771+925985691+920000119+915939186+915734394+919041532+924031615+927479616
761+926567140+923724487+926245685+937977362+953732288+963598320+963616621
751+958777633+955079211+954665593+957342521+962078511+966123070+965975164
741+961439152+956086197+953001248+952121099+952402643+954810007+960949985
731+970165040+977735797+978217197+973141633+970861587+976816037+987442967
721+995495304+997988089+996018061+990309880+982098440+974996322+971830167
711+971931299+973259560+975194072+978365103+981961611+983007184+980477197
701+975689980+970444357+966020493+962894610+962000615+963140638+962950654
691+959198355+954884110+953469405+953757933+953810545+954550134+955703641
681+953067586+944996467+934969105+925858975+919690282+918370569+920684025
671+920181615+911190616+899830538+899941302+911468910+924102649+932169193
661+934820899+933487340+930632588+927826535+927154007+930242447+935837035
651+939026968+934524847+925621375+920100288+920184143+924369505+930926171
641+937984887+944122277+946606754+941733695+933694601+931116637+934033935
631+932983426+922272881+908543966+899191902+895462056+897135310+904773608
621+916315060+923908511+919457558+907778854+898386758+892580455+887146233
611+880863767+877926784+880190095+883246570+885656944+891304265+899657410
601+903924941+899213091
##END=
