##TITLE=<SNM>
##JCAMP-DX=4.24
##DATA TYPE=INFRARED SPECTRUM
##DATE=29/4/2025
##SAMPLING PROCEDURE=Instrument type and / or accessory
##ORIGIN=Admin
##XUNITS=1/CM
##YUNITS=ABSORBANCE
##RESOLUTION=4
##FIRSTX=4497.3318
##LASTX=599.83466
##DELTAX=-1.4281778
##MAXY=2.1208861
##MINY=0.3817777
##XFACTOR=1
##YFACTOR=1.9752291e-09
##NPOINTS=2730
##FIRSTY=0.39030126
##XYDATA=(X++(Y..Y))
4497+197597969+197900363+198837738+199504840+199296550+198446249+197697565
4487+197761674+198814306+200265081+201307800+201688938+201515999+200676652
4477+199171319+197708549+197282161+198261420+200082802+201596932+201832954
4467+200808537+199505519+198834102+198986657+199850507+201261660+202584519
4457+202879988+201957777+200604199+199566626+198979958+198706623+198649650
4447+198778231+199184053+199963924+200863759+201317184+201019558+200263074
4437+199567953+199166853+199023834+199097916+199362907+199703625+200000452
4427+200192341+199992485+198906524+196924862+194879453+193798878+194018786
4417+194987075+195835717+196072418+195789925+195482763+195771759+196894776
4407+198260620+198941347+198710078+198124904+197718794+197567461+197402021
4397+196930640+196312137+196129451+196549487+197026872+197138539+196965056
4387+196569584+195956648+195404788+195169716+195202578+195506043+196112432
4377+196557981+196215256+195189466+194173106+193658016+193790097+194473056
4367+195187761+195245247+194548738+193698980+193282746+193523959+194472211
4357+195963241+197494586+198513013+198771049+198281698+197255124+196226829
4347+195790574+196027214+196407056+196436130+196368430+196908024+198121343
4337+199152550+199301393+198815709+198243873+197685812+197063928+196623599
4327+196831814+197772930+198667258+198446007+197253374+196657140+197611684
4317+199070350+199471405+198794194+198129536+197930630+197787626+197465602
4307+197208985+197164837+197203598+197269352+197442713+197675688+197778105
4297+197642418+197374923+197346120+198010748+199353658+200677603+201314514
4287+201322873+201137411+200862054+200331996+199631308+199163639+199237209
4277+199737528+200292390+200714236+201048904+201232767+201111670+200785105
4267+200467517+200083013+199491910+198910085+198680656+198881402+199390729
4257+200100274+200930222+201728409+202211331+202212599+202052515+202236317
4247+202705344+202912955+202714970+202627037+203102370+203943694+204490530
4237+204220152+203250927+202327358+202125420+202579842+203137782+203552703
4227+204038673+204727563+205418323+205860689+205990974+205903283+205741946
4217+205611359+205560950+205610364+205756295+205992785+206251711+206249628
4207+205733648+205058383+204883739+205129101+205054415+204484600+204057035
4197+204204461+204664555+204943382+204851933+204683053+204872679+205353022
4187+205559954+205302975+205150646+205589105+206263042+206555222+206573433
4177+206940570+207822164+208779424+209440748+209861990+210264916+210631073
4167+210614415+210025922+209335116+209198811+209598463+209994252+210095055
4157+209938472+209521197+208897684+208419529+208422999+208749836+208916227
4147+208839701+208981634+209547993+210071382+210050923+209545021+209002470
4137+208867266+209232337+209719122+210017623+210406548+211252941+212307459
4127+212960484+212877907+212142969+211176218+210622291+210891673+211615054
4117+211874749+211331942+210761343+210937827+211500490+211640628+211389729
4107+211438026+212121182+213182142+214146554+214639480+214652124+214587457
4097+214870025+215568194+216373895+216850300+216797416+216404629+216003423
4087+215818746+215972236+216429072+216907000+217114325+217110749+217195227
4077+217377008+217265930+216707703+216165424+216109025+216419008+216753721
4067+217027418+217258039+217436953+217611778+217685468+217418892+216990241
4057+216981249+217507006+218041093+218312058+218659491+219273408+219690894
4047+219396858+218617410+218125072+218299973+218759494+219015266+219096304
4037+219286036+219586303+219738798+219620191+219375870+219168787+218969806
4027+218766691+218852014+219524789+220529049+221232709+221429910+221545560
4017+221954868+222467574+222601511+222082317+221021341+219864481+219157049
4007+219103803+219475889+220130830+221161750+222246686+222582470+221987911
3997+221318545+221297905+221668618+221856524+221828460+221949059+222415702
3987+223031625+223426645+223454045+223236174+222872009+222476431+222436689
3977+223055570+223921623+224133173+223274467+221959681+221288143+221741282
3967+222731253+223370442+223467639+223502070+223850076+224388357+224818894
3957+225134716+225554993+226033465+226184180+225863317+225403525+225060694
3947+224742156+224515549+224754724+225448215+225997827+226051269+225841591
3937+225514723+225086767+225071241+225987235+227138814+227185859+226174870
3927+225570866+226336704+227934708+229091085+229270739+229085035+229293718
3917+229837400+229999053+229380987+228351545+227602198+227489702+227825788
3907+228461809+229778300+231919880+233812704+234186586+233361557+232559402
3897+232087478+231544128+231089646+231335053+232111212+232283261+231587234
3887+231317370+232328660+233624496+233983591+233879499+234020874+233807635
3878+232791471+231906135+232136107+233505723+235640107+237955501+239188405
3868+238745194+237748463+237088271+236320607+235128411+234068627+233389259
3858+232983043+233776146+237702324+244050916+247141292+244502893+239436407
3848+235223300+233343376+233919045+236176893+238988911+241665694+244159097
3838+246104140+246551742+245491642+244017511+242804674+241555083+240065638
3828+238978002+238969492+240118431+242370109+245191360+246764604+246293209
3818+245757342+246535100+247076700+245705892+243342291+241872792+242504075
3808+245087871+247725893+248812593+249249437+250458758+251812351+252124371
3798+251902276+251726047+251045517+249638165+248344804+247814097+247871160
3788+248283939+249100503+250082689+250886232+251910272+253758270+255898296
3778+257161828+257501520+257870181+259017626+261213961+264195507+267068178
3768+269181318+270853554+272629899+274739477+277449107+280857766+284212741
3758+286599999+288443123+291124931+295734265+302391346+309406829+314041964
3748+316110231+318138697+322044506+326493665+328805152+329354386+330590156
3738+334605082+341960770+350770220+357484697+360038859+359731878+359514550
3728+361480913+365825422+371072406+375678239+379448347+382813582+385947004
3718+389179012+393237693+398840724+406304231+414883709+422477245+427463629
3708+430341188+432724343+436008073+440655338+445714114+449638421+452161774
3698+454089300+455982607+458362171+462026088+467148989+472319748+475293117
3688+475430237+474123432+472735122+472071550+472521294+473487381+473990839
3678+474508328+476423180+478905645+479577756+478909326+479184260+480789235
3668+482009585+482105605+482264452+483417540+485144275+486811352+488874037
3658+492305206+496584444+499830755+501946973+505327960+511638107+518476487
3648+521584380+520736674+518774324+518034830+519354248+522005940+524375968
3638+525742340+526978231+528851260+530960024+533218944+536504574+540474175
3628+542470382+542203022+542679140+545144404+548173297+550065035+551277509
3618+553747420+557750215+561450344+563496704+564832236+566997972+569429741
3608+570266463+568989894+566749321+565272988+566089552+569448390+573570501
3598+575844931+575067052+572306787+569991559+570364112+574352906+580856753
3588+586411564+587682881+585783901+584741922+586668603+590419006+593348679
3578+593922266+592973349+592405556+592917403+593549350+593436250+593303777
3568+594566827+597030522+598922259+599659641+600535713+602366676+604127993
3558+604463671+603636304+603060062+603754775+605732213+608126985+609785824
3548+609991323+608950068+607753044+607558951+608471053+609486236+609541277
3538+608550356+607677664+608203391+610272383+612885993+614965908+616283818
3528+616803450+615783016+613403512+612334676+614872785+619563292+622971981
3518+623910939+623566027+622891833+622537083+623411465+625332775+626546034
3508+626013004+625170971+626098583+628591308+630082669+628922218+626592988
3498+625388480+625482750+625593074+625225952+624885505+625087927+626052354
3488+627030119+626140468+623223166+621473317+623563009+627685060+629900285
3478+629507875+629049863+629657669+629499064+627063010+623787881+622287467
3468+623454134+626403241+629843313+632366273+632660852+630809067+628633433
3458+627638589+627403034+626987751+627237851+630009884+634816871+638270341
3448+637897848+634406718+629354400+623717330+618865441+616140180+615690979
3438+617010337+619216388+620912464+621784070+623212062+625962550+628846054
3428+630327518+630206753+629058192+627378049+625595548+623988673+622833835
3418+622184747+621159063+618821806+616168002+615816632+619381331+625690060
3408+631538121+633886121+631739275+627230608+624418682+625853614+629852124
3398+632053046+630608578+627895508+626491476+626315248+626133044+625954885
3388+626980328+629821827+633616950+636548797+637321726+636306241+634849401
3378+633849729+633195210+632272305+631108716+630652635+631616277+633491780
3368+635296248+637057625+639524821+642361733+644077182+644149846+643714345
3358+643337325+642414239+641302734+641579087+643710543+646062224+647109153
3348+647417009+648110455+648799133+648717899+648599005+649401146+650105153
3338+648936977+646208276+643940485+643300692+643471367+642505673+639526812
3328+636296585+635718894+638611753+642485998+644232408+643698050+643484041
3318+646080933+651029929+654703865+654230282+650902405+648008943+646877944
3308+646565078+646014848+645274327+644558611+643326039+641437199+640370595
3298+642090993+646715838+651561329+653323008+651340561+648095729+646507381
3288+647340784+649498916+651751921+653582281+654971768+655907106+656223049
3278+655849288+654865428+653052872+649902672+645815022+642446226+641008216
3268+641210999+642403859+644292639+645882677+645666797+643876149+642861328
3258+644133370+646483603+647785941+647810867+647981603+648689835+648961842
3248+648591401+648190784+647371503+645456168+643459538+643143293+644582812
3238+646448900+647978103+649153883+649800677+649652090+648559656+646491569
3228+644104039+642764342+643105151+644275741+645208422+645836688+646557232
3218+647161900+646803891+645054102+642613100+640534693+639166631+638687012
3208+639879027+642667175+644629042+643076423+638361473+633462268+631036353
3198+631760157+634224334+636024457+635975150+635395467+636416203+639119375
3188+641146422+640292500+636900227+633147230+630590472+629035499+628018505
3178+628033412+628960421+629111422+627658022+626205588+625905396+625191370
3168+622528091+619418990+618275438+619096589+619887081+619306554+617870113
3158+616815339+616827409+617462495+617194712+614908936+611634229+609643091
3148+609738206+610429238+609990176+608578238+607784849+608659110+610589775
3138+611805327+611202591+609615812+608479442+607751293+606176827+603448247
3128+601119801+600600652+601069467+600782312+599804607+599475024+599725787
3118+599220459+597748470+596395617+595724441+595455210+595398298+595261963
3108+594215094+592017854+589831055+588994937+589381371+589556272+588830356
3098+588402581+589631109+591777774+592710395+591660449+589980185+589273220
3088+589795387+590428240+589981815+588564083+587231327+586557737+586162611
3078+585224377+583072703+579945496+577324826+576777553+578414785+580926158
3068+582921098+583938756+584346736+584371541+583480381+581364918+578912630
3058+577257714+576619792+576701268+577295917+578009521+578126302+577221925
3048+575603643+573988318+572957625+572658701+572783267+572711690+572014260
3038+570944881+569912377+568618065+566589871+564461372+563594595+564285204
3028+565162724+564604889+562474157+560236843+559134029+558750008+558012264
3018+556882049+556232359+556607447+557675921+558518075+558347218+557299445
3008+556359883+556215520+556633459+557041439+557117604+556835699+556395008
2998+556062286+555761491+554781795+552303797+548683816+545745331+544994791
2988+545984144+547153467+547738822+547947218+547913481+547634775+547454563
2978+547632602+547582932+546362854+544173761+542267599+541095199+539916280
2968+538492332+537746862+538211453+539001825+538919927+537797136+536466854
2958+535737076+535437910+534765165+533634528+532856770+532602326+531853477
2948+530099704+528483413+528318954+529270948+529886419+529546094+528922354
2938+528653486+528521375+527882004+526348638+524136792+521987834+520677348
2928+520494843+521277610+522549109+523416007+523046109+521520045+519668562
2918+518046357+516579257+515002920+513130193+511076651+509623432+509770872
2908+511496823+513476373+514409718+514218040+513683622+513416684+513398337
2898+513184087+512338856+510830716+509146711+507931520+507340311+506840957
2888+505866331+504438128+502983551+501970963+501772404+502335158+502997764
2878+503076885+502439114+501242754+499685005+498167692+497070913+496341980
2868+495831793+495672644+495779166+495572490+494761086+493826020+493253399
2858+492831085+492150071+491349349+490888802+490841697+490941248+491145993
2848+491556206+491915814+491771120+491049792+490013032+488791113+487407902
2838+486066456+485046112+484465766+484313739+484410121+484239838+483236242
2828+481342453+479112532+477343490+476637159+477006212+477805184+478313681
2818+478285436+477733848+476640478+475163149+473693755+472563511+471965330
2808+471928667+472103929+471982229+471480492+470859800+470177398+469383104
2798+468750704+468592038+468685433+468519706+467939209+467083688+465939140
2788+464486886+463141034+462437901+462372148+462497499+462506823+462297552
2778+461774149+461047901+460456873+459994877+459194638+457912034+456675902
2768+456004635+455871680+455915526+455745695+454997992+453524736+451705210
2758+450249184+449524476+449288741+449207507+449293539+449531869+449482109
2748+448774359+447656849+446561156+445529044+444466394+443511412+442788122
2738+442155873+441456271+440767170+440300377+440124631+439958452+439359064
2728+438299432+437336966+436965650+437061579+437164057+436967641+436373294
2718+435458657+434533127+433855191+433323881+432793537+432457285+432463381
2708+432432601+431888798+430945011+430060822+429358354+428661619+428030245
2698+427719884+427638228+427322103+426537525+425547147+424715313+424167225
2688+423866943+423742739+423667359+423456066+422942982+422101010+421133294
2678+420339814+419785419+419236637+418574303+418087020+418125283+418549407
2668+418701827+418034362+416773938+415800066+415703593+416132878+416313633
2658+415981998+415383908+414648759+413781559+413028364+412642442+412502154
2648+412373000+412217473+411967917+411427946+410598859+409724175+408973093
2638+408351677+407801447+407265188+406871602+406960410+407589158+408210182
2628+408221498+407658563+407029000+406641388+406303748+405626567+404583924
2618+403649975+403248120+403256720+403240365+402962534+402504853+402082811
2608+401855585+401803954+401802234+401825952+401919558+401932323+401571960
2598+400860891+400303298+400376626+400944781+401369117+401196600+400569692
2588+399952169+399637161+399558311+399445392+399114632+398653784+398352204
2578+398438266+398830917+399148581+399060225+398628194+398182735+397896545
2568+397669983+397409896+397218670+397247247+397442667+397538657+397338650
2558+396920863+396490280+396139574+395864972+395701629+395708780+395892704
2548+396175815+396387591+396404007+396355454+396487202+396775686+396940507
2538+396821704+396485784+396086977+395863101+396017844+396376396+396458324
2528+396054930+395441541+394998557+394930117+395260726+395793666+396154994
2518+396101613+395736663+395356294+395190325+395306564+395648157+396118028
2508+396632228+397088883+397359019+397415267+397395502+397394506+397280441
2498+396901308+396392087+396053934+395986943+396037036+396036734+395928583
2488+395724412+395483124+395257256+395054443+395002389+395399144+396276724
2478+397098207+397310496+397029014+396742100+396561103+396236560+395770853
2468+395571087+395952513+396714488+397288135+397304672+396992078+396913560
2458+397315777+397868964+398081132+397820653+397345651+396958492+396769952
2448+396733077+396760597+396791981+396829218+396937158+397150261+397327817
2438+397201711+396736608+396351621+396497824+397063505+397534402+397694517
2428+397767482+397905236+397973072+397864468+397694818+397640864+397752575
2418+397901404+397860394+397553202+397235931+397260796+397660538+398162849
2408+398575718+398890967+399051957+398987289+398898662+399147434+399782580
2398+400480160+400985307+401331728+401614569+401848101+402075629+402324642
2388+402396099+401932805+400719003+398724124+395906585+392167710+387438275
2378+381738318+375321498+368751625+362544287+356750211+351165617+345841503
2368+341093117+337167875+334156605+332089786+330984829+330897711+332012505
2358+334711754+339489531+346672672+356063404+366328427+374766862+378617509
2348+376816269+370787695+364032812+359792532+358376882+358031245+357744754
2338+357832868+358664007+359895010+360907960+361542714+362202030+363389368
2328+365266440+367517424+369551080+371039725+372317712+374015780+376336138
2318+378913778+381276443+383235262+384924035+386612929+388473284+390502685
2308+392655626+394920642+397190063+399178032+400637347+401678602+402737571
2298+404130347+405707681+407033587+407849487+408226869+408315194+408204147
2288+408113618+408436864+409321174+410300236+410653327+410189038+409423199
2278+408929821+408772754+408651295+408357743+407922181+407452008+407022572
2268+406701741+406571712+406702495+407103022+407688377+408326873+408926350
2258+409449694+409892950+410322205+410844100+411434525+411918881+412233979
2248+412538063+412911915+413104860+412740545+411742652+410474986+409456785
2238+408957492+408836426+408738534+408467221+408164827+408078463+408210393
2228+408335865+408306323+408159154+407993970+407909145+407993035+408257588
2218+408628995+409026988+409402619+409758636+410176273+410716666+411286873
2208+411740238+412101929+412568934+413296448+414238183+415168390+415860388
2198+416270511+416521847+416722760+416911209+417172443+417645845+418364639
2188+419181747+419871029+420273004+420423703+420602979+421131755+422009124
2178+422818929+423146218+423060397+422997028+423190849+423484281+423693491
2168+423859007+424064053+424273445+424458455+424711119+425159083+425851985
2158+426740308+427732075+428757156+429738934+430541225+431078631+431477227
2148+431986569+432728417+433621478+434532916+435456786+436571701+438114573
2138+440141168+442405338+444516456+446267845+447831568+449582535+451709525
2128+454088485+456592526+459326025+462348459+465342348+467847444+469773824
2118+471407616+472916510+474182094+475217828+476432988+478276806+480853359
2108+484124354+488325285+493895636+501015226+509270674+517681045+525183661
2098+531301737+536132865+539568652+541012335+540133910+537363928+533259561
2088+527752851+520440767+511551381+502203439+493549879+485964098+479247117
2078+473333755+468423656+464576509+461601722+459335047+457702854+456517236
2068+455501359+454550662+453717199+452944118+452107517+451306675+450829862
2058+450832699+451224083+451756871+452111289+452111229+451981019+452154803
2048+452795924+453762946+455034354+456878685+459571356+463183582+467747984
2038+473473591+480629935+489255643+499075690+509630554+520382286+530753981
2028+540143083+547938829+553675420+557329259+559411769+560568116+561019550
2018+560476562+558647772+555654487+551832567+547450459+542781196+538069324
2008+533244835+528022987+522438363+516972029+512116398+508124828+505085284
1998+502845043+500900346+498736058+496390623+494496864+493616357+493608299
1988+493825869+493883173+494034054+494760784+496165721+497884731+499503466
1978+500891957+502115084+503212708+504232055+505399628+507054544+509285822
1968+511679750+513626046+514985780+516240319+517874233+519877018+521920541
1958+523778059+525477636+527250661+529353148+531748222+534076366+536149945
1948+538256717+540734112+543490756+546154578+548499681+550617136+552752032
1938+555037447+557459378+560052588+562865541+565619650+567761547+569113978
1928+570224216+571818659+574022236+576276207+578119181+579866737+581997469
1918+584089636+585256545+585594939+586089826+587239293+588663543+589779635
1908+590318157+590394261+590476038+591079862+592242726+593425387+594089985
1898+594303752+594618669+595418275+596604677+597848233+598762748+598963118
1888+598527073+598138466+598259412+598650192+598892023+598840784+598484042
1878+597928380+597510140+597422991+597446227+597424259+597597107+597993923
1868+597800554+596172616+593515070+590969900+589092768+587557530+585812388
1858+583710625+581582729+579853097+578539654+577214019+575650959+574353026
1848+574141371+575247566+576757214+577016306+575365313+572910610+570829186
1838+569202274+567525510+565712894+564368249+564062626+564510438+564604889
1828+563575644+561706056+559528671+557236799+555064786+553505589+552872314
1818+552884505+552923794+552764948+552789390+553327067+554092212+554554388
1808+554615646+554508581+554446177+554791995+555975862+557722875+558988761
1798+559351478+559743827+561318716+564131910+566730612+567396538+566458424
1788+565873552+566915471+569339213+572090968+574405472+576135225+577550241
1778+579184516+581537706+584843796+588857515+592319736+593539211+592583294
1768+591261461+591139067+592688970+595482489+598401118+600210777+600889316
1758+601497123+602563122+603799858+605212279+607413382+610616813+613896891
1748+616237588+617775602+619166839+620794476+622862200+625268138+627259577
1738+628469638+630089972+633487254+637599829+639495550+639094691+638587552
1728+639051419+640378743+642115798+643702697+644997009+646919888+650726901
1718+656328001+661496920+664111435+664546694+664346869+664803493+666768075
1708+670618421+675984993+681422901+685587802+688799380+691881745+694277061
1698+695368529+696151839+697254714+698347027+699873635+702690329+706435058
1688+710117926+714277697+720445746+727264692+730564746+730297266+729861463
1678+731689952+736248952+741912999+746297884+749068469+751524378+754063212
1668+755973779+757367491+759382830+762537255+765899774+768157487+769403396
1658+770697044+772977751+777271685+784194316+790747049+793097945+793480940
1648+795146478+798036198+798944619+796384602+792654357+790268215+790412879
1638+793050629+796579841+797709211+794958421+790939572+788254264+787536496
1628+788146656+788911378+788870278+787505958+784896694+782043788+780070334
1618+779037105+777855712+775770425+773451757+771465930+769520902+767480155
1608+766029470+765794882+766294718+766318436+764981999+762477204+760111944
1598+759300087+760237597+761710068+762278706+761490507+759901496+758370724
1588+757516681+757516862+758206687+759240218+760216534+761005035+761957572
1578+763361303+764357294+763270111+760463374+758030037+756580620+755066807
1568+753019663+751470243+751141565+751988848+754462441+759525140+766086926
1558+768888351+766245773+762504846+760068249+759196342+759411256+759886046
1548+760487757+762242193+765972981+771082996+776311543+780592440+782084647
1538+780104795+777326243+776107070+776641065+777861204+779084301+780713808
1528+783366164+787190377+791960791+797716091+804666242+811916646+817729220
1518+821637745+824174225+825818277+827345789+829569162+832720328+836985594
1508+842811688+848991927+852468029+853672657+855641163+859702982+865383868
1498+871131323+874763857+875232009+874401624+875322235+879482187+885386436
1488+889769570+891815085+893921616+898269625+904768162+911462481+916417391
1478+919201917+920495445+921386303+923094932+925505336+926355335+924392684
1468+921235543+919172224+919537837+922238354+926056471+930370321+935585289
1458+941253078+944522715+943880508+941969579+941083670+941660817+943329010
1448+945282549+946720981+947510267+948042271+948408850+948637765+949692479
1438+953010820+958100678+961807385+962794505+963012436+963844994+964925478
1428+966067159+967980986+970172131+971010663+971013258+973028657+978096547
1418+983170230+985167946+984878799+984066942+983288339+982918199+983399327
1408+984160488+983828973+982208639+980940460+981560820+984066700+987240559
1398+989353125+989070435+986753517+984849890+985480872+987709374+988970613
1388+988278857+987041155+987043147+988626727+991202978+993769875+995046926
1378+994527717+993544158+994392769+997860784+1002206439+1005645545+1008661945
1368+1012185966+1015667983+1018356550+1020535744+1022201101+1022691643
1360+1022755979+1024093744+1026595944+1028433545+1029526281+1032529524
1351+1038912124+1046333022+1050553206+1049831153+1046647940+1044647991
1342+1045279033+1047656786+1050349095+1052387910+1053599419+1054727038
1334+1056291486+1057600645+1058158540+1059036543+1061345253+1064442525
1325+1066514172+1065915841+1062181975+1058060407+1058378825+1064729439
1317+1072314133+1073741823+1067665450+1060741611+1058828569+1060373101
1308+1060387706+1058454266+1058812516+1063492099+1068797052+1069097485
1300+1062912357+1053388307+1044584259+1038587309+1035139874+1033471862
1291+1033116267+1032628019+1029941383+1024088554+1016375793+1009547069
1283+1005080227+1001922120+998200265+993836081+990091533+987218832+984033145
1273+979321454+973090458+966668267+961334949+956534963+950722207+944029880
1263+937654401+931410611+924304389+916978122+910912914+906068448+901543366
1253+897226861+893184656+888557096+882243538+874344229+865836147+857147733
1243+848273978+839869280+832934337+827484177+822619916+817857106+813543558
1233+809984110+806875432+803865430+801254536+799674457+799131771+798757889
1223+797793040+796495469+795736541+796101249+797567926+799694373+801944844
1213+803990661+805898754+808241141+811800287+816652780+821738111+825773194
1203+828339306+830025786+832099787+835836248+841327025+847073212+851398710
1193+854104236+856471729+859651985+863061035+865037628+865229427+865645977
1183+868930160+875729914+883822893+890263492+894981761+900994524+910079753
1173+920427126+928968220+933945340+935220701+934382350+934652064+938388343
1163+944603165+949962012+951880184+950656484+948820511+948706023+950886848
1153+954337602+958240634+962557864+966726989+969384958+970019198+969408676
1143+968540511+968336219+968999247+969148800+967583507+966082187+967910193
1133+973485945+979670229+983567528+985350873+987115449+990863618+996558325
1123+1000531607+998525563+992045434+987139529+986536793+988098223+989856039
1113+992140126+995140593+997526494+997700489+995751477+993915988+994527596
1103+996178348+993831374+986657859+981917742+986319646+997765971+1007420200
1093+1008559950+1002081933+993795766+988973993+988822630+990048261+988475484
1083+983989993+979726537+977554343+975624222+970816269+962931021+954048334
1073+946166647+940236627+936871393+936692448+939222410+942239292+943274392
1063+941664619+938857340+937130665+937755853+940324017+943052960+943286221
1053+940238921+936527747+934780493+935011702+936190439+937751870+939175999
1043+940006324+940712383+942872266+947808949+954735020+960532869+962348020
1033+960018970+955149036+949966116+947059617+947649016+949671114+949250279
1023+945524199+942134099+942417210+945128590+946466839+945560168+944666776
1013+944368153+942160171+936420683+929036298+922400762+916110198+908148967
1003+898711644+890697243+886085012+883656321+880861595+876567843+871133737
993+865122423+858975980+853541392+849650972+847189993+845557589+844467810
983+843398008+841146512+837230383+832971453+830083362+828654948+827079093
973+824099207+820389603+817278510+814560733+810966402+806498292+802561100
963+799851530+797967397+796652626+795967086+796039931+797448550+800736775
953+805036080+808616772+811282707+814828576+820734032+828045331+834143914
943+837510175+839237634+842080763+848079342+856961788+866913915+876496084
933+885099582+892103085+897133496+900957709+904313288+906076475+904368329
923+899617952+894947662+893169749+894432436+896572463+897129392+895326191
913+892419994+890058898+888579124+887226874+885680653+884423156+884116325
903+885047197+886914069+889744041+894065797+899426817+903789491+905417430
893+905034556+904841731+905682738+906835222+908086322+910727392+916342614
883+923512750+927334548+925007370+920097422+918180156+920659784+924571688
873+926688600+926419188+925400263+926020864+929278973+932885557+933167099
863+930039290+927663166+929178849+933076692+935265724+934203406+932871374
853+934921898+940199149+944991712+946849592+947205488+947976306+947699893
843+943885699+938276028+935883609+939600395+947224861+953503052+955543799
833+955734512+958051250+963028007+967360626+968510998+969138238+973810036
823+982756516+990665241+992559815+988985580+984918450+985558303+992236207
813+1000431664+1003241539+999140792+993200815+990701754+992743044+996520061
803+998187470+996635274+994569360+994386070+994445276+991124219+983523350
793+974467995+966999962+961554993+957240600+953893893+951289940+948523277
783+944368576+938115612+930388608+922461838+915989373+912609111+912770432
773+914468198+914486485+912554070+912010478+914948722+919776228+924593173
763+930044239+937720245+947079473+954615342+956963463+955501553+955376383
753+958203035+959437779+955140044+948205885+944806250+948166174+957171557
743+967185967+972581569+972482229+971254063+972243235+974708318+976102693
733+975378407+973038374+970060419+967266115+965095551+963584816+962243007
723+960252895+957690947+955258213+952777620+950606271+950647612+953536367
713+957763370+962344580+965546079+961968344+949738407+938119535+937660014
703+947048693+954660667+953652665+949417696+949502370+953836015+954615221
693+946575593+935452936+929817978+931269025+936273665+940846003+942065237
683+938778339+931547429+922341496+914207658+910572468+910790037+908711087
673+900157500+888590169+881733925+887686577+906171168+922943750+928595003
663+925184262+916531215+905829333+897166871+892285469+888054061+881853543
653+878034279+881832178+890606232+897867861+900238010+898545917+895356126
643+891363711+888271027+891740007+905147716+920859549+924579594+914859159
633+902473694+894144134+889387601+886142709+884036902+883410749+885944874
623+893101189+902546298+908889669+909476895+905634637+900153456+894852668
613+890126794+886598669+884212044+881185203+874400718+866236402+862203794
603+860002932+855945157+853784128
##END=
