##TITLE=<SNM>
##JCAMP-DX=4.24
##DATA TYPE=INFRARED SPECTRUM
##DATE=29/4/2025
##SAMPLING PROCEDURE=Instrument type and / or accessory
##ORIGIN=Admin
##XUNITS=1/CM
##YUNITS=ABSORBANCE
##RESOLUTION=4
##FIRSTX=4497.3318
##LASTX=599.83466
##DELTAX=-1.4281778
##MAXY=2.1271813
##MINY=0.53293842
##XFACTOR=1
##YFACTOR=1.981092e-09
##NPOINTS=2730
##FIRSTY=0.55075258
##XYDATA=(X++(Y..Y))
4497+278004551+277339483+277067318+276848286+276335638+275219720+273496862
4487+271815944+271235841+272428661+275030595+277815636+279572853+279786921
4477+278763580+277364906+276336450+275837973+275886172+276767112+278347931
4467+279514816+279262418+278048508+277197022+277310088+277880413+278161574
4457+277925784+277475535+277125686+276649774+275595925+274295214+273885613
4447+275027225+277242874+279609108+281317525+281619054+280149887+277465456
4437+274833436+273530920+274140087+276022796+277679463+278117918+277616732
4427+276933312+276366718+275972190+276025774+276673212+277283281+276727969
4417+274818573+272933517+272532611+273532063+274711645+275146007+274636608
4407+273323803+271852740+271432819+272615741+274448446+275562107+275419165
4397+274114994+272144552+270627307+270413209+270995629+271422199+271753243
4387+272505503+273347030+273447399+272785219+272407781+273240312+274849442
4377+275887857+275706253+274761739+273644678+272584390+271636627+270932356
4367+271077134+272845243+275708690+277567902+277063497+275159908+273558178
4357+272759465+272289269+271983678+272209419+272948922+273569642+273775134
4347+274072752+274833978+275558136+275592555+275030775+274421037+273990646
4337+273629213+273379945+273369896+273304728+272709130+271743586+271030890
4327+270711549+270447418+270228206+270372712+270753129+270781381+270367357
4317+270205610+270771994+271625886+272001971+271686571+270988528+270363115
4307+270326349+271186559+272680217+274130128+274962478+275028759+274569665
4297+273910976+273275453+272891426+272908756+273091081+273039693+272665053
4287+272024686+271153735+270308327+269806389+269560039+269263113+269012460
4277+269357585+270643373+272397401+273581225+273649191+273105493+272821865
4267+273227525+274203780+275215026+275592976+275189393+274605017+274478472
4257+274803981+275204586+275565718+275935334+276124218+276050446+276061157
4247+276258736+276201872+275895529+276043345+276680282+276734017+275583379
4237+274010262+273150804+273301538+273958724+274479796+274502873+273956407
4227+273032563+272224041+271935088+272002452+272134834+272617335+273851434
4217+275439805+276483033+276607893+276158969+275538941+274852481+274288986
4207+274459608+275857259+277930898+279202937+278697900+277022910+275709563
4197+275566440+275926609+275698430+274823327+274107172+273807598+273286435
4187+272248983+271429390+271553497+272243417+272622721+272718096+273380185
4177+274865418+276370358+277077036+277011718+276767112+276843172+277246455
4167+277504900+277209719+276441182+275477714+274600203+274308964+274912143
4157+275794588+275929196+275149768+274213378+273809674+274125254+275012242
4147+276007783+276508908+276307266+275698942+275010978+274365797+273912270
4137+273924124+274491861+275359262+276171214+276686119+276810437+276739884
4127+276917937+277402755+277490789+276530841+275014739+274200862+274681017
4117+275895619+276882976+277114735+276769579+276348545+276036846+275711308
4107+275461166+275427289+275350026+275102442+275166015+275776927+276366236
4097+276448313+276264122+276179247+276164745+275985488+275505063+274967051
4087+274879709+275162856+274882628+273472010+271689821+270848775+271521485
4077+273261012+275165504+276417685+276572000+275791970+274774616+274130549
4067+274000273+274349220+275119712+275932445+276147506+275547275+274684928
4057+274296026+274497728+274670336+274256552+273534410+273034278+272577591
4047+271920285+271885264+273421585+275774490+277060639+276668307+275708118
4037+275109392+274648222+274072843+274021154+275113905+276743976+277559086
4027+277017163+275844622+275038929+274981854+275490772+276190891+276681877
4017+276695175+276262798+275610938+274868638+274023230+273198943+272838623
4007+273356958+274579353+275865743+276824036+277509172+277889890+277668211
3997+276862578+276050115+275660040+275469500+275208558+275215388+275937199
3987+277108326+278011080+278368059+278481907+278610077+278640435+278393392
3977+277892538+277224762+276405379+275637475+275481956+276323633+277714153
3967+278672718+278740112+278471919+278852125+280308776+282090694+282746044
3957+281664575+279854345+278758074+278811989+279527272+280332093+280902989
3947+281086699+280909699+280491793+279830667+278918827+278044656+277651934
3937+277857998+278434370+279282787+280440826+281440610+281395479+280214544
3927+278926138+278490452+278917534+279654328+280469650+281579129+282954245
3917+283884016+283562930+282048122+280227000+278931705+278334482+278222800
3907+278815750+280872662+284469354+288011318+289695364+289495468+288251531
3897+286250941+283899872+282423153+282923737+284725753+285521638+284617290
3887+283985288+284994368+286394846+286761394+286795572+287074687+286594141
3878+285199018+284377048+285015760+286607740+288487200+290170916+290870283
3868+290606813+290556779+291008712+290671018+288684810+285932684+283686466
3858+282869400+284847605+291048908+298892828+301078782+296571905+290419974
3848+286026675+284289315+284737126+286418013+288714747+291629041+295009258
3838+297653464+298208565+296856887+294850581+293196531+292208843+291682354
3828+291177890+290455145+290329503+292480075+296969200+300322791+299787187
3818+297373567+295419010+293572465+291045087+288611820+287641492+288977374
3808+292137417+295124671+296844551+298454524+300483425+301245733+300228530
3798+299188972+298631915+297439607+295435407+293896469+293770526+294942406
3788+296976331+299580822+302310143+304753970+307178783+310112723+313253812
3778+315829539+318062158+320991345+325316046+331112983+337812914+344218837
3768+349448278+353445425+356192527+357991986+360157120+363839168+368398305
3758+371926249+373891817+376053732+380863191+389540214+399809909+407302205
3748+412190071+418161150+425872598+430933763+431038917+430233674+432550566
3738+438798624+446841598+453307033+456911698+458935905+460417106+461535191
3728+462701955+464195553+465228612+464653202+462379877+459325739+456541299
3718+454692378+454193178+455691469+459658138+464490222+466368659+463980071
3708+460168349+457830608+457826937+459041269+459318187+458113874+457530131
3698+459308830+462999363+467334113+471499656+474793916+476368868+476223007
3688+475735180+475817949+475897288+475431274+474952774+475338005+476934017
3678+480013488+484390149+487766847+488326250+487112971+485001482+481566145
3668+477226220+473881625+472851695+473492212+473738051+472627669+471979540
3658+473970953+477430991+478985182+478393015+478538334+480793457+482787728
3648+481652133+478529097+476363241+476328130+477521642+478409081+478529488
3638+478759712+479887725+481498661+482814535+484394211+487802560+492810772
3628+495981556+495326627+492881687+491225320+491810869+494711955+498279884
3618+500321511+500354517+499467378+499077965+500402746+503536854+506893303
3608+508365448+507452857+505813188+505656436+508152554+512586561+516964847
3598+520104942+522393161+524156185+524499114+522985810+521491220+522492568
3588+525511233+526883671+524696002+521078610+518864766+519042579+521015849
3578+523637128+525669610+526155691+525240091+524518309+526069282+530663170
3568+536296134+538947680+536553797+531105987+526086251+523959839+525257361
3558+528585258+531907438+533975361+534267323+532506044+529364745+526795095
3548+526456258+528116385+530022502+530849828+530935094+531366237+532182612
3538+532132367+530272222+527270105+524873995+524459159+526152502+528673773
3528+529956612+528569974+525109334+521830659+520340823+520169448+520100790
3518+520031892+520644639+522108300+523916394+525194720+525176608+524411802
3508+524598701+526081979+527001912+526167365+524842404+524224061+523537361
3498+521940175+520364892+520195203+521148652+521605129+520871493+520341244
3488+521505541+523735091+525515987+526576665+527242846+527049328+525363627
3478+522522354+519565788+517265053+515717991+514802030+514934231+516741062
3468+519731144+522322878+523388672+522871962+521113390+518638875+516224893
3458+514354098+513063376+512335698+512081164+511853347+511265331+510679782
3448+510916505+512172627+513548736+514057924+513811754+513411721+512562311
3438+510518818+507866610+506465650+507108183+508164409+507401529+504821950
3428+502523772+501892311+502191494+501920743+500694256+499571479+499691104
3418+500913679+502151900+502810920+503243357+503701007+503624466+502549888
3408+501103858+500512773+501366214+503098851+504669109+505523031+505479406
3398+504178755+501914094+500402144+501016395+502663465+502960692+501380806
3388+499673984+499451944+500728676+502404117+503337168+503264659+502959940
3378+503121837+503398665+503250067+503339695+504997416+508281145+511343918
3368+512268544+511339465+510757346+511906961+513659876+513958758+512691925
3358+511838424+512843863+515135211+517263368+518421768+518383799+517065878
3348+515001445+513551564+513769873+515196708+516531477+517414464+518621845
3338+520549865+522450747+523319051+522921846+521732696+520204349+518411539
3328+516354206+514416137+513242994+513202738+514035118+514847461+514527759
3318+512709074+510411168+509279725+510151038+512420542+514790898+516326887
3308+516623242+515686460+514171231+513001638+512420422+512080502+511958771
3298+512348033+513244859+514327201+515336070+516112489+516479066+516401864
3288+516165743+516151903+516426174+516868269+517703236+519313059+521363351
3278+522759497+522804567+522051977+521737931+522320231+522749629+521770606
3268+519797636+518412863+518244257+518599822+518869038+519105641+519429856
3258+519774048+520085687+520210848+519835184+518922533+518008497+517654797
3248+517735369+517536435+516611749+515368022+514653341+514842045+515394017
3238+515360139+514467164+513488683+513302927+514025912+515224689+516371295
3228+516881025+516287353+514816833+513473940+513066565+513300520+513258760
3218+512685547+512258736+512461882+512729293+512186828+510853563+509475830
3208+508521358+507923173+507456166+506843058+505813489+504429287+503155624
3198+502421207+502240626+502299746+502512881+503256566+504474418+504956738
3188+503545549+500828173+498542602+497584669+497333836+496646112+495224633
3178+494029256+494044209+494839252+495080217+494231469+492904342+491745611
3168+490730273+489506764+488147565+487308324+487326015+487517458+487045968
3158+485996512+484897081+483942789+483239511+482965270+482860658+482315035
3148+481220960+480200567+479839466+480024951+480097009+479457876+478066483
3138+476446010+475186157+474446173+473989215+473638043+473431557+473342741
3128+473255911+473197422+473109388+472490413+470890579+468765852+467275113
3118+467136293+468041544+469203254+470068128+470392794+470057176+469172685
3108+468187615+467554740+467387307+467499230+467529437+467070794+465941457
3098+464367077+462893849+462103289+462181214+462646235+462741369+462212293
3088+461453806+460880653+460533602+460314902+460204152+460146025+459991770
3078+459678868+459386454+459356668+459465552+459199315+458312206+457247105
3068+456639984+456710237+457228902+457600414+457105848+455725918+454425388
3058+454013169+454222753+454396685+454425237+454504606+454538394+454199707
3048+453401896+452533743+452112468+452189971+452276621+452044381+451714029
3038+451396102+450700556+449443110+448243250+447917801+448493120+449197301
3028+449286629+448613738+447569878+446742131+446471170+446508838+446195876
3018+445143742+443689618+442535701+442051153+442140631+442593858+443133795
3008+443275895+442711738+441756453+440952655+440419488+439939935+439437757
2998+439065523+438933051+438876067+438489272+437556582+436419483+435667795
2988+435538542+435729533+435702997+435219502+434560241+434093957+433850374
2978+433740918+433801363+433946953+433940905+433744318+433422631+432766107
2968+431508059+429834363+428347806+427673471+428111143+429285189+430200037
2958+430123677+429364438+428816076+428870744+429084781+428794113+427888381
2948+426999317+426774118+427006598+426934601+426407932+426015179+425980670
2938+425865949+425468322+425122024+424997254+424821186+424379452+423807984
2928+423270093+422662972+421884507+421194046+420926876+420975947+420955248
2918+420621946+419833794+418584441+417362437+416904005+417370199+418147701
2908+418496828+418177036+417483957+416835768+416376584+416029683+415795157
2898+415711666+415660820+415512552+415307330+415137280+415058753+415141342
2888+415373341+415543692+415388474+414805453+413848303+412653016+411487725
2878+410778249+410879943+411696106+412581680+412784314+412071078+410876633
2868+409826635+409204952+408891087+408673951+408511302+408488587+408597200
2858+408680630+408600810+408368119+408168403+408244402+408587422+408823904
2848+408614861+408068756+407479266+406892183+406279255+405779905+405428342
2838+404959259+404155250+403198491+402495394+402218114+402152435+402032930
2828+401916314+402079143+402580509+403041077+402933818+402158091+401218632
2818+400624839+400274990+399816197+399395615+399412313+399661220+399484009
2808+398767463+398106156+397954158+398192866+398511786+398697933+398561971
2798+397966072+396950674+395737395+394662756+394048234+393971663+394179502
2788+394309959+394175080+393813798+393346460+392842326+392329106+391876722
2778+391604858+391575764+391655043+391562285+391233437+390970117+390924837
2768+390737095+390110087+389360476+388913898+388690654+388424206+388157426
2758+388081788+388206377+388364483+388333103+387904066+387032362+385980950
2748+385196167+384904897+384876013+384709934+384305388+383893410+383698267
2738+383702720+383698357+383513083+383211433+383039247+383126558+383271968
2728+383071259+382288792+381089925+379916812+379204659+379154775+379577734
2718+379968351+379929900+379507572+379001814+378570219+378136458+377621704
2708+377167965+377011935+377089258+377006851+376579197+376092965+375806810
2698+375529590+375013272+374500052+374455523+374806455+374885252+374312791
2688+373535650+373175000+373241402+373366894+373457335+373677479+373999348
2678+374125592+373792652+373015631+372104995+371450818+371191079+371130575
2668+371055207+371008934+371155727+371479581+371733694+371677191+371298639
2658+370785088+370349583+370156576+370270876+370480129+370326235+369590433
2648+368606747+367871246+367536500+367455808+367485443+367552597+367573808
2638+367484992+367337386+367271556+367368315+367580668+367793080+367833697
2628+367485172+366702224+365783555+365138284+364944495+365137322+365562327
2618+365993832+366134006+365793213+365120954+364554601+364412261+364548253
2608+364556105+364307860+364072972+364081788+364206588+364173281+363910865
2598+363546454+363196786+362901514+362670297+362483759+362304893+362150849
2588+362064169+362004598+361944544+362045726+362460532+362982658+363230784
2578+363152046+363012173+362938822+362766605+362321622+361723076+361371030
2568+361531844+361929110+362022439+361734238+361530430+361726355+362088690
2558+362190654+361916895+361543759+361403314+361515296+361601134+361456116
2548+361187170+361017391+360958752+360813282+360496077+360193976+360100166
2538+360163709+360260979+360447608+360853358+361423562+361905191+362049186
2528+361813577+361437703+361291571+361547519+361973728+362132316+361837315
2518+361350271+361056804+361061107+361218340+361403825+361558802+361632515
2508+361665219+361797179+362041514+362198176+362140650+362001649+361940061
2498+361951524+362020213+362195769+362418080+362508852+362400930+362189962
2488+361965515+361765077+361669912+361757916+361933322+361984800+361901821
2478+361943431+362240628+362542459+362556329+362316236+362010013+361700210
2468+361409331+361243252+361283297+361507564+361832862+362098679+362093714
2458+361771154+361362275+361168516+361318710+361745701+362259162+362598480
2448+362564542+362190534+361733877+361474709+361531965+361841317+362253415
2438+362610635+362766545+362665483+362428069+362226969+362084237+361939791
2428+361859399+361989614+362344728+362762844+363052820+363171874+363263127
2418+363461338+363735730+364044029+364453359+364893258+365026753+364648803
2408+364036296+363699776+363923020+364614925+365452902+366120106+366517732
2398+366796065+367152202+367646227+368273506+369185104+370795167+373670559
2388+378326035+385152992+394573098+407147860+423328552+443103287+466087890
2378+491899956+520038751+549326350+578070943+605214198+630982307+656173834
2368+680809236+702682373+717417606+721923761+717548785+708615664+698157204
2358+685231449+666863299+641872933+611834429+581116686+556148343+542096080
2348+541267851+553527846+574893480+596375669+610243742+617075663+621586993
2338+626206394+630394953+632797020+632843233+631012755+628393943+625801427
2328+622822837+618057094+610548882+600736926+589948896+579245590+568991841
2318+559244632+549953358+540818174+531455114+521794374+512025323+502149613
2308+491956759+481505039+471275780+461733583+452997981+445022552+437880797
2298+431750649+426660059+422305271+418209860+414146854+410266143+406749812
2288+403591665+400777680+398416351+396623089+395389562+394506546+393654127
2278+392765605+392160320+392047795+392105351+391851479+391236746+390566624
2268+389999187+389429164+388814702+388291764+387902050+387498646+387008383
2258+386558465+386290482+386207894+386188157+386078220+385851607+385659894
2248+385648100+385792817+385982123+386146036+386258470+386302878+386285578
2238+386246676+386201426+386074520+385776600+385333814+384823121+384246779
2228+383614084+383028355+382568840+382217697+381941862+381711608+381468838
2218+381194808+380942169+380748711+380615788+380584167+380717060+380961515
2208+381129489+381120132+381077981+381204104+381516465+381926307+382389011
2198+382847263+383221091+383547081+383947024+384453234+384987575+385437402
2188+385720699+385917196+386257748+386809208+387347791+387734677+388158870
2178+388768248+389320671+389492496+389353766+389265853+389432323+389781058
2168+390209374+390720608+391278416+391695750+391818263+391749966+391751651
2158+391928862+392118740+392094550+391861799+391717894+391927839+392366865
2148+392681513+392809111+393052031+393600663+394285017+394888858+395482109
2138+396308291+397457786+398787471+400143271+401572542+403294709+405481054
2128+408066168+410837099+413736260+416920703+420459809+424211869+428065442
2118+432028290+436026068+439846365+443305681+446346550+449020361+451438945
2108+453664734+455611649+457089631+457992204+458476600+458885780+459389282
2098+459799636+459867662+459665479+459560265+459836913+460411330+460984693
2088+461403681+461591874+461169306+459582560+456674855+452776723+448278662
2078+443440951+438541653+433947314+430010310+426916729+424606878+422862839
2068+421440517+420123318+418837861+417788345+417273891+417301210+417537060
2058+417664448+417638964+417584297+417614744+417847496+418431630+419359807
2048+420327186+421017166+421506587+422151557+423100464+424179255+425256933
2038+426487150+428132986+430319512+433012909+436119999+439543632+443210005
2028+447094627+451182245+455421711+459819403+464530027+469665898+474992579
2018+479945010+483973959+486844236+488665839+489709459+490155706+489994621
2008+489188898+487875640+486340794+484822315+483362476+481826005+480083440
1998+478243213+476731533+476018868+476105187+476350154+476085872+475402360
1988+474991074+475293898+476138433+477123293+478079992+479099211+480272174
1978+481556548+482908857+484412564+486142884+488032302+490039751+492273393
1968+494718333+497025416+498872593+500382919+501889543+503523164+505310318
1958+507386726+509806243+512413141+515097843+517823944+520352135+522464286
1948+524456331+526867063+529786502+532816780+535559851+537921120+540088631
1938+542325341+544713327+547162330+549700268+552534201+555655522+558573457
1928+560810829+562666881+564953595+567856968+570685846+572953967+574907199
1918+576742672+578168243+578989071+579541403+580462118+582189339+584449397
1908+586440178+587837648+589084443+590410547+591411113+591996481+592947343
1898+594972603+597729574+600148068+601535128+602147875+602645270+603189238
1888+603339130+602928566+602493933+602521914+602854192+603147959+603479636
1878+604095873+604876323+605476675+605966728+606913378+608567789+610107208
1868+610203125+608652994+606521347+604730222+603525307+602729753+601883112
1858+600617000+599149850+597931035+596952734+596013605+595266130+595001186
1848+595362107+596395286+597548030+597228328+594554939+590960594+588281307
1838+586834314+585784166+584615355+583876425+584261956+585261739+585294835
1828+583713775+581566844+579734199+577948851+575892842+573959105+572540514
1818+571446499+570298750+569107133+568250503+568032193+568273971+568347924
1808+567843309+567164551+567270336+568790621+571273260+573326441+573912832
1798+573442275+573139482+573870951+575736631+577779041+578395338+577390140
1788+576340112+576450289+577516685+578914034+580677720+582904863+584966648
1778+586368692+587841740+590752092+595486184+600187662+602085295+601034244
1768+599148225+598105598+598611176+600608757+603056255+604601451+605317877
1758+606256824+607602605+609123190+611476457+615389782+619940886+622808155
1748+622949984+621636516+620605984+620814907+622456320+625069235+627563247
1738+629347934+631564967+635661761+640390739+642316171+641285519+639840572
1728+639321034+639761324+640839453+642242218+644076488+647068616+651755773
1718+657157009+660597972+660641537+658815933+657188299+657012171+658875745
1708+662484652+666288522+668586007+669990939+672970130+678319376+683183744
1698+684952484+684754213+683794204+682367610+681621820+682522437+684637596
1688+687369234+691601178+698080603+703582991+703792816+700737144+698649363
1678+699269933+702137021+705468047+707972950+710460945+713826751+716477335
1668+716231466+714513030+714562553+717339983+720739666+722278905+722524413
1658+723825545+727792545+735246902+745089185+751086801+750091891+747847539
1648+748161585+749795236+749126828+745402930+740989141+737902480+737313863
1638+739777367+744122377+746386285+744060218+740271572+738612648+739612371
1628+741822304+744175209+747018589+750239377+752424518+753556021+755907783
1618+760944247+766720123+769490874+769015021+767802284+767402973+768284033
1608+770433191+773104294+774870808+774714778+773102068+771576308+771260758
1598+772285814+774400492+777116364+779413488+780510091+780847243+781423344
1588+782533185+783847254+785189244+786430684+787088020+787038437+787451408
1578+789890722+793863258+796069701+795092844+793401908+792828935+792819608
1568+792318604+791566856+791099368+791082158+792481132+797277263+805596193
1558+811121447+808804585+803150260+798733884+797060638+797629338+798774019
1548+799787342+802133146+807482994+815344244+823321509+828507203+828463457
1538+824703755+821543802+820837786+821722818+822254933+821670347+821104475
1528+821797975+823821250+826404078+829403789+833602336+839215864+845237790
1518+850609240+854565228+856790867+858397139+861195148+866294252+874183603
1508+884360331+892254014+891690549+885994764+882179943+882508490+885758101
1498+889387829+891503229+892322552+893627956+896846759+901885810+906920469
1488+910298791+912805079+915874711+919366460+922522742+925514931+929100250
1478+933466501+938185129+942774082+946532280+948335259+948179952+948042756
1468+949869203+954132798+959070036+961441174+960818498+960037927+960626605
1458+961325400+960218869+957316098+953784574+950424665+948382977+948456449
1448+949383663+948978093+947270730+946396529+947860671+951428961+955785464
1438+959099040+959533733+957463283+955934875+956824661+958961483+959124433
1428+955191311+949149588+945104302+945224108+948263051+951571993+953643828
1418+954517849+954573930+953822363+952687490+952452693+953662422+954883583
1408+954841462+954181298+953592801+952817646+952435544+953488219+955324535
1398+956316736+956026158+954843688+953073263+951532941+951605029+953546227
1388+955178193+954147420+952173067+953384661+958539426+964345329+967790083
1378+968854733+969410977+971221478+974391600+977365015+979323843+981420891
1368+984599136+988033119+990303707+990920305+990393666+989595164+989195371
1358+989698602+991818395+995493974+999178219+1001903839+1004803421+1008655970
1348+1011654538+1012160116+1011633477+1012743438+1016490082+1021522394
1340+1025275056+1026320511+1026016635+1026946316+1029790477+1032697822
1331+1033877223+1033414729+1032054326+1030710651+1031121757+1034555138
1322+1039757139+1043744839+1045188040+1046211351+1049293078+1054404097
1314+1060019130+1064249449+1065924801+1065818654+1065769794+1066192452
1305+1065596494+1063254781+1061148828+1061845517+1065523202+1070245982
1297+1073633992+1073741823+1069955344+1063983843+1058728287+1055459060
1288+1053277288+1050630375+1045893635+1038415029+1030296898+1024741437
1280+1022645473+1022919503+1025082621+1028960324+1032399963+1032178283
1271+1027997667+1022945739+1019734157+1018499276+1017397740+1014774535
1263+1011120919+1008024389+1005381026+1001587988+996077296+989627838+982778526
1253+975618177+968838005+963811048+961329913+960436396+958618554+953712607
1243+946047943+937463769+928695282+919386438+909723833+900546347+892432790
1233+885771159+880862985+876963861+872415886+866930828+862358603+860013279
1223+858741753+856701208+853862221+851593258+850665262+850879961+851899180
1213+853499856+855433593+857370338+858888155+859746530+860330213+861382107
1203+863205004+865468491+867787699+870165576+872846487+876266329+880723082
1193+885523124+889454020+892343492+895040831+898062083+901405385+905013871
1183+908428056+910952757+912754232+914869632+918083440+922375678+927373150
1173+933215157+940920317+951180083+962854409+973356976+980520454+983989097
1163+984856679+984368070+983341389+982711192+983370934+985006992+986333397
1153+986696605+986519634+986595874+988144440+992261814+998290599+1003746894
1143+1006404758+1006388933+1005834975+1005886364+1005310683+1003306724
1134+1001679392+1002824494+1007017265+1012480118+1017360071+1020640371
1125+1023039249+1027229613+1034832417+1043699708+1049299096+1048873308
1117+1044302888+1039578544+1036347226+1034182543+1033038043+1033368756
1108+1036594659+1043086420+1049202457+1050627366+1046353963+1038944676
1100+1032379504+1030115174+1032814197+1037130805+1039732709+1041499885
1091+1044436834+1047953134+1050047775+1049454344+1047307352+1045727556
1083+1045307064+1044838673+1042969202+1039399227+1033639898+1025431507
1074+1017316024+1012937437+1012496486+1012301162+1009422762+1005077752
1065+1002277095+1001834158+1001599361+999529151+996044261+993094134+992796275
1055+996711285+1003968332+1009721884+1009088859+1004241400+1001595089
1047+1002395336+1001898724+997013657+989609906+982522909+977165118+974813657
1037+977276198+984029413+990735331+993936804+995099838+996805155+998354503
1027+997608893+994562909+990774324+987042061+984415125+984841214+988620292
1017+993015788+995161877+995363037+995464188+995556856+994931893+992732972
1007+987193397+978619572+970264117+963990064+958547128+952061325+943912926
997+934866800+926855356+921321137+917637675+914392998+911473800+909606555
987+908411629+906232385+902216524+897520221+894258936+893535349+894425195
977+894596750+892189207+887752011+883605694+880892350+878494314+875204146
967+871478021+867968520+864258461+860324738+857399522+856286913+856129921
957+855705938+855066775+855197050+856752837+859322487+861447816+861772813
947+861027504+862154675+867131206+874595010+881729785+887656997+893602202
937+900382495+907045690+912076137+915874109+920727706+927330667+933470714
927+937635745+941317041+945947875+950307146+952762527+953446218+953055873
917+951613934+949294847+947294739+946755404+947087200+946162454+943115988
907+940235060+940167666+941972270+942487777+941084229+939746271+939225589
897+938856906+939293285+942180892+946999046+950873319+951899157+951261618
887+952194609+957092915+964545767+969586262+969303387+966429740+964019549
877+962129198+960893414+960653202+960121629+958251435+957234984+960290897
867+967223248+974017983+976960348+976429677+975097074+974400205+973659830
857+971961251+970799722+972264105+976204869+981049018+984809924+985885466
847+985449268+986510368+988769763+988257566+984002516+980723058+982561661
837+988686784+995091774+998061458+996775009+992875764+989554847+990186308
827+994511641+998674085+1000212301+1000630025+1003338376+1009891453+1018106463
817+1023604158+1023387774+1019218591+1015521770+1013923200+1012820821
808+1010333127+1007313680+1006503263+1008881501+1013005915+1017210720
800+1021044255+1024807628+1028149305+1030020340+1030451544+1031153649
791+1034172314+1038232944+1036638947+1025043869+1008609637+995517683+989115039
781+987420853+986769655+985971093+986786143+989839528+992074433+990205143
771+985006691+979773400+976071765+973322016+971704551+973310221+979348394
761+987953810+995498006+999394001+999070147+994948140+989668515+988039196
751+992347621+998886437+1002705410+1003839320+1004295616+1004006843+1002107286
741+999639930+998457520+999818465+1004889228+1012619962+1018353416+1018876083
731+1016094140+1013413289+1011765016+1010362010+1009644983+1010535912
723+1011389293+1009568683+1005500110+1002021839+1000167652+997781772+994734524
713+994838083+1000139611+1007860958+1013296794+1014469094+1013352153+1012085380
703+1009790602+1005582668+1002223842+1003532736+1007889721+1008319841
694+1001749494+992738629+986387192+983306248+982408098+984833211+992127145
684+1000676419+1002587109+996246805+992454369+1001060026+1016655559+1023419184
674+1013084261+993274474+976324494+967367965+968169537+977625746+986388817
664+984864501+975207433+965178913+958721331+955385551+955164052+959516102
654+968080420+976240612+976761655+967767518+956286770+949543664+947922108
644+948827479+949827623+947478208+942039123+937157245+934864814+936796805
634+941318244+944065707+944980585+946776946+948513554+945539477+934679058
624+919443964+909726120+913747998+929246231+942676180+943038304+935151119
614+927388735+922495002+921634581+919609381+910949568+900417335+898096503
604+911492092+932599762+943173996+942742431
##END=
