##TITLE=<SNM>
##JCAMP-DX=4.24
##DATA TYPE=INFRARED SPECTRUM
##DATE=29/4/2025
##SAMPLING PROCEDURE=Instrument type and / or accessory
##ORIGIN=Admin
##XUNITS=1/CM
##YUNITS=ABSORBANCE
##RESOLUTION=4
##FIRSTX=4497.3318
##LASTX=599.83466
##DELTAX=-1.4281778
##MAXY=2.1088889
##MINY=0.38665131
##XFACTOR=1
##YFACTOR=1.9640558e-09
##NPOINTS=2730
##FIRSTY=0.39763162
##XYDATA=(X++(Y..Y))
4497+202454336+204193656+204734999+203984378+202858508+201994083+201237893
4487+200597753+200703136+201782392+203040412+203586383+203308033+202488371
4477+201308679+200165434+199877723+200947951+202698363+203593105+202741896
4467+200912656+199646549+199574564+200118896+200587253+200823677+200958512
4457+201215982+201747796+202151329+201651366+200237070+198953543+198734463
4447+199536857+200653274+201310728+201111950+200349994+199736515+199636625
4437+199863930+200224066+200736290+201219259+201149869+200265309+199141623
4427+198782048+199559739+200817410+201530324+201301031+200613261+200056896
4417+199571044+198803565+198031033+197995769+198742201+199398486+199407439
4407+199211484+199319506+199445252+199065375+198266956+197535302+197143559
4397+197176835+197789996+198977336+200298418+201204723+201478626+201132253
4387+200139715+198701202+197505228+197135881+197368891+197563890+197593540
4377+197807036+198194000+198230235+197645738+196930062+196863707+197680547
4367+198812912+199446375+199236976+198508736+197831785+197509871+197524605
4357+197759785+198150846+198701444+199391840+200004956+200174266+199862761
4347+199516509+199398486+199250481+198981933+199062916+199825828+200954157
4337+201879626+202194499+201688344+200495071+199205718+198514472+198731686
4327+199596900+200440233+200621090+200017504+199159574+198788588+199155325
4317+199752569+199870470+199357820+198699866+198487614+198981949+200024135
4307+201143739+201843664+201973188+201822330+201778052+201881386+201844650
4297+201603477+201602126+202215500+203129285+203749593+204065558+204507694
4287+205060372+205185390+204654092+203765950+202738755+201696811+201141053
4277+201509353+202390318+202993191+203224456+203566520+204057395+204081187
4267+203244394+202075475+201523101+201815501+202276438+202378057+202371593
4257+202662674+203226656+203881348+204611560+205382271+205923826+205950744
4247+205601260+205416366+205651425+205894753+205756853+205557089+205797170
4237+206379194+206865380+207118282+207201193+206951400+206175348+205166665
4227+204545098+204528346+204746000+204879864+205124042+205735609+206398480
4217+206485153+205951579+205461493+205435971+205490991+205125590+204463645
4207+204006304+204126072+204927859+206147625+207207823+207731595+207825931
4197+207686559+207369137+207085492+207204956+207767026+208380688+208806057
4187+209243732+209835968+210315811+210411421+210254417+210164952+210276025
4177+210465653+210534163+210476866+210574874+211029635+211592828+211867278
4167+211890145+212043826+212417816+212632800+212417665+212043583+211900099
4157+211858280+211467553+210737766+210279196+210522191+211176397+211692536
4147+211899386+211979671+212113808+212250873+212108998+211544409+211015690
4137+211276969+212473459+213952107+214979727+215242265+214785016+213987371
4127+213504538+213826073+214838185+215861617+216193120+215775080+215336388
4117+215632339+216533637+217162245+216978413+216382657+216081031+216226123
4107+216427799+216368530+216138600+215993447+215976134+215927486+215854743
4097+216024690+216522332+217012903+217178663+217100396+217017107+217035588
4087+217246718+217818939+218849882+220242418+221610236+222288007+221846933
4077+220727800+219870355+219681638+219820949+219879884+219758251+219492844
4067+219220216+219209063+219573433+220096021+220537869+220902011+221246230
4057+221464506+221367151+220896230+220286756+220009924+220424565+221467177
4047+222728050+223683290+223809825+222858393+221234440+219782514+219011924
4037+218804543+218984110+219748099+221213227+222857134+223836243+223806532
4027+223174010+222577237+222355668+222506284+222911578+223404713+223741300
4017+223868593+224113454+224713672+225325133+225386890+224868415+224295525
4007+224164029+224656603+225740866+227119261+228178867+228470767+228210793
3997+227864267+227407837+226511775+225297911+224368238+224132118+224551357
3987+225399379+226339278+226915445+226878178+226494370+226303210+226591802
3977+227191427+227676946+227769415+227611819+227538833+227644034+227803086
3967+227989118+228305478+228818597+229531693+230332190+230885839+230884899
3957+230426450+229875715+229449982+229232328+229471878+230379412+231512353
3947+231948511+231499486+231093812+231377017+231617220+230829226+229401896
3937+228635798+229240537+230873033+232711847+234009289+234328942+233727055
3927+232754607+232043590+231784542+231749096+231885752+232492418+233590839
3917+234498176+234366451+233181145+231867664+231281028+231385272+231815390
3907+233056871+236125376+240800611+245069733+247180449+246946756+244563852
3897+240585855+236851430+235487724+237108779+239940132+241172234+240434511
3887+240023573+241398598+243394235+244658597+245705351+246348845+244969206
3878+242095109+240520805+241651789+244600815+248179830+251252492+251892693
3868+249994488+248260524+248314771+248733145+247526519+244888057+242329394
3858+241440736+244204064+252172757+261563242+263100142+256194272+247557292
3848+241607800+239865871+241832298+245552444+249199559+252488207+255630624
3838+257577552+257151804+255179990+253285351+251952114+250798581+249744999
3828+249045696+248712584+249092857+251445474+256011609+259768537+260051894
3818+258507741+256921070+254492811+250805303+247504851+246443545+248565352
3808+253093750+257209252+259352045+261119315+263242230+263636204+261866021
3798+260317042+259524724+257743160+254718492+252391139+251986771+252943453
3788+254366519+255917410+257264151+258215128+259385154+261206716+262616156
3778+262424176+261455689+261525216+263488411+266968355+270696544+273290486
3768+274712035+275971314+277485575+279445826+282822892+288015905+293229312
3758+296457947+298608357+302174155+308590273+317392027+325467499+329382963
3748+330344137+331956239+335280439+337566867+337237625+336950201+339813510
3738+347118331+357293957+365622589+368206395+366259528+364060804+364756890
3728+368934104+375014819+380585601+384682363+388230104+391865277+395036433
3718+397443555+400103564+404942359+413483213+424622227+433770856+437783585
3708+438784575+440433215+444570097+450628537+455970133+458210524+458077419
3698+458187975+460172323+464114099+469503250+475693611+481158388+483387490
3688+481822731+479250457+477841199+477469803+477332358+477405527+479185816
3678+484997316+494573089+501742650+501747323+498732549+497681971+498091392
3668+496939423+494358135+492562399+492538030+493985435+496695457+500711707
3658+505191882+508289749+509495555+511281580+516886625+526819863+536146026
3648+538440254+534517991+529668059+527278235+527873172+529975663+531927144
3638+533440768+535068317+537110234+539832304+543734052+548375920+551351212
3628+550908196+549611133+551032864+555631578+561257744+565299516+567147329
3618+568647660+571003555+573378508+574549688+573665658+570623844+567115525
3608+566103185+568652820+572883779+576768714+579868796+582400708+584388363
3598+585874977+586725017+586237390+584908705+585390748+589640585+596301730
3588+601201433+601114153+596990927+592024703+588589036+587545134+588490527
3578+590443464+592620064+594639828+596842345+600269393+605320106+610753686
3568+614323429+614501631+611921527+608977615+607794053+608534599+610133317
3558+612549058+616522729+621083812+623859416+624403429+625228159+628441499
3548+632610064+634183533+631837896+627758614+624168356+621065482+617846133
3538+615211525+614504787+615791470+618026885+620961935+624673828+627384184
3528+627012970+625369458+626528985+630781066+633784096+632027691+626755803
3518+621758321+619464821+620017999+623036871+628277864+633749925+636018964
3508+634203320+630603957+627062073+624240583+623651170+626592958+631604947
3498+635637189+637190144+637062805+636564859+636351029+637266377+640098246
3488+642888174+641708800+636883267+633270612+633454095+635620498+637570947
3478+638600282+637825018+635482780+634997702+639245050+645915239+649817472
3468+649065273+646010895+642945956+640195176+637811969+636476851+636589077
3458+637851300+639501913+640531187+640212839+638796753+637458236+636736202
3448+635806044+633799998+631256797+629407346+628845549+629300158+630327914
3438+631584856+632739224+634278643+636996950+640072329+641387357+640353045
3428+639067697+639461490+640442814+639544157+636521037+633059210+629953423
3418+627496470+626916707+628599064+630918663+632745293+634726211+636861842
3408+637646270+636082451+633213195+631533447+632911599+636741968+640606267
3398+642554774+641784123+638338927+633840907+630820761+630124463+630466057
3388+630765407+631435728+633007680+634788910+635627418+635248192+634394268
3378+634300008+635911897+638776845+641058084+641443804+640361543+639041477
3368+638242421+638038120+638259477+638750624+639391508+640080341+641120964
3358+643545931+647849604+652125296+652734982+648401386+642462638+639381432
3348+640327857+642946745+644953276+646368816+647498359+647921042+648511609
3338+651031685+654657086+655772122+652778865+648802462+647713524+649489595
3328+651307667+651842394+652458635+654468202+656907067+657979617+657798623
3318+657783631+657908482+656796601+654549898+653051023+653405060+654580670
3308+654533146+652492746+649922961+648548330+648074177+647452898+647440273
3298+649504648+652971391+655604603+656364753+655697588+654571141+654196104
3288+655340335+657529499+659479584+660451682+660872788+662005304+664758390
3278+668425125+671209530+671899941+670463400+667804210+664940598+661906310
3268+658333593+655251720+654638877+656484323+658376990+658865710+658925252
3258+659711380+661193442+662410265+661818180+658924706+655795187+654952127
3248+656040336+656552848+655608305+655095004+656913622+660384068+662796895
3238+662858379+661988977+661422749+660808633+659857535+659068979+658583051
3228+657853431+656322995+653693849+650323187+647692281+647610160+650793334
3218+655683022+658220092+655430286+649627192+645828748+646164394+648942001
3208+651689442+653286582+653574764+652564003+650478142+648217054+647271054
3198+648246855+649768673+650113727+649458762+649110127+649394364+649753499
3188+649919440+649686248+648630936+647042293+645907713+645491524+645108535
3178+644413026+643795814+643557888+643670296+643939176+643669446+641881479
3168+638648899+635551791+634194762+634704664+635562473+634896644+632371895
3158+629362310+627122161+625933623+626054346+627686144+629729214+630222365
3148+628412304+625328974+622507606+620801821+619951052+619131967+618329816
3138+618631776+620421624+622053119+621512140+618965358+616174034+614130114
3128+612797545+612123279+612007290+612048927+612131655+612495221+612942911
3118+613015442+612922881+613289542+614089327+614611247+614339392+613384956
3108+612315380+611524943+610577244+608804026+606703113+605666495+606061805
3098+606553863+605820479+604119185+602580859+601687361+601067053+600292882
3088+599319570+598308990+597630961+597646135+598032704+597985483+597380532
3078+597018726+597430484+598165385+598371203+597457918+595304989+592378436
3068+589538495+587558730+586925616+587666586+588931297+589350703+588444034
3058+587099751+586201579+585513171+584326696+582606708+581151231+580860863
3048+581769353+582849733+582979378+581989860+580633559+579724948+579593603
3038+580035344+580557993+580877373+580986867+580618567+579395068+577678175
3028+576293711+575440758+574778388+574323415+574260656+573926103+572180137
3018+569115865+566378803+565497687+566523198+568227223+569165939+568709691
3008+567488741+566678639+566603558+566440227+565496594+564159473+563231318
2998+562957339+562941437+562513655+561076447+558511517+555401178+552788541
2988+551620942+552115428+553541772+554809458+555298177+555017643+554166146
2978+552983313+551982627+551670531+551759328+551280744+549923472+548543804
2968+547948988+547906744+547688240+547132088+546781328+546979621+547193147
2958+546686765+545614276+544714769+544235821+543928338+543545471+542739921
2948+541136468+538913375+536906722+535920785+536024088+536491808+536507831
2938+536044482+535760549+535795084+535105705+532778095+529839706+528449901
2928+529210718+530555609+531015316+530723371+530260022+529646330+528901171
2918+528239955+527615095+526732887+525457250+524040739+522861183+521926352
2908+520962022+520166365+520141723+520740544+520929732+520255769+519510368
2898+519458352+519701802+519330892+518164204+516607729+514677613+512270916
2888+510258315+509958115+511300699+512589082+512520132+511602234+510911459
2878+510384805+509301694+507780362+506762651+506790055+507499888+508158434
2868+508237642+507692232+506909564+506208076+505524038+504773660+504103643
2858+503500057+502640427+501503661+500639601+500403951+500362647+499877175
2848+498962463+498059042+497172372+495812824+493824167+491908618+491082765
2838+491610482+492596996+492855437+492118048+490995242+489945848+488873238
2828+487659146+486586900+486125129+486512609+487533810+488555133+488891780
2818+488366127+487481339+486853566+486481229+485816310+484621368+483358113
2808+482455208+481664528+480628699+479587438+478918118+478412586+477625153
2798+476630021+475866320+475473468+475192722+474758294+474158380+473576765
2788+473154962+472805994+472309383+471580370+470769903+470058492+469361920
2778+468410671+467256152+466359740+465865163+465284975+464327899+463366877
2768+462681595+462036281+461275190+460551609+459890665+459187903+458543985
2758+458120907+457866471+457662869+457507761+457365703+457005354+456201382
2748+455139970+454303617+453784731+453143120+452181400+451313515+450841214
2738+450446116+449692643+448631686+447712362+447225645+446980830+446592045
2728+445945912+445226094+444624025+444229960+444032517+443868609+443546923
2718+443071617+442580712+442085983+441421034+440441834+439211931+437971771
2708+436926019+436109968+435490874+435110405+435018451+435104972+435183907
2698+435201751+435111831+434673974+433747609+432685378+432022492+431805111
2688+431520025+430691987+429435166+428392812+428107452+428477604+428887602
2678+428773009+427985819+426771242+425527531+424547754+423963317+423835614
2668+424089412+424381509+424263790+423573046+422589415+421730088+421117610
2658+420597632+420140717+419883945+419745832+419440200+418964135+418638291
2648+418571982+418481394+418146780+417715083+417349484+416841615+415939983
2638+414939176+414439470+414496797+414530210+414153382+413589157+413142620
2628+412779327+412441618+412356857+412689559+413118221+413093427+412462801
2618+411626144+411081463+410952546+410944412+410669523+409990522+409083732
2608+408268258+407804181+407736566+407884693+408058070+408202434+408224709
2598+407891855+407144906+406322847+405826783+405718472+405786724+405802353
2588+405623696+405300887+405114036+405245472+405476570+405484035+405277428
2578+405057953+404891314+404758391+404631628+404394613+403994994+403654886
2568+403632490+403871660+404080392+404028801+403711030+403311714+402992426
2558+402725335+402466894+402382679+402643518+403107535+403429737+403401574
2548+403090783+402745092+402546709+402390570+402038779+401564140+401424965
2538+401942940+402797593+403223615+402836894+402116954+401817786+402051069
2528+402287751+402142264+401772690+401544748+401609055+401807256+401849773
2518+401625078+401347791+401304728+401495038+401675455+401737941+401844735
2508+402117622+402350814+402210395+401678490+401109288+400856674+401016758
2498+401494188+402106909+402605735+402790037+402688099+402521672+402469383
2488+402525981+402554478+402439247+402234521+402120839+402154980+402184964
2478+402114314+402067154+402144237+402239195+402261349+402314063+402482402
2468+402663092+402758414+402826151+402913097+402952761+402931396+402937618
2458+403003745+403123164+403363245+403691091+403845956+403720802+403643749
2448+403886440+404143394+403909565+403188654+402489958+402268390+402567102
2438+403042378+403234479+402975219+402564159+402412238+402563187+402699479
2428+402573172+402297857+402177437+402322773+402551443+402660998+402664792
2418+402719509+402943596+403316297+403643294+403713822+403619228+403744018
2408+404278684+404920721+405233303+405165233+405067695+405280524+405803294
2398+406353619+406697611+406888438+407137198+407481554+407686553+407481918
2388+406856846+406112689+405509558+404753292+403062104+400021049+396115204
2378+392120228+388299115+384483949+380582627+376654143+372812908+369344011
2368+366560850+364363705+362306978+360290826+358901264+358872009+360437042
2358+363347086+367249167+372032608+377964740+384870337+391074628+394247878
2348+393351831+389486773+385196059+382400911+380886074+379724120+379038291
2338+379291300+380082375+380601867+380770449+381203207+382228415+383534399
2328+384757140+385860978+386871315+387735315+388559863+389605099+390952387
2318+392456663+393993382+395503364+396912621+398245646+399682459+401315258
2308+402996159+404530995+405867631+407042574+408091786+409043643+409919509
2298+410720810+411417807+412009314+412587287+413210599+413750212+414066345
2288+414302875+414748288+415407411+415949998+416133177+416102829+416165740
2278+416348160+416338479+415908482+415199741+414490484+413921100+413578323
2268+413563938+413805020+414018001+413998092+413833760+413823593+414239600
2258+415071188+415952578+416476197+416597406+416605570+416752180+417031379
2248+417269275+417339408+417276953+417159568+416946405+416548243+415981894
2238+415345532+414742158+414297867+414108042+414081883+413975271+413663630
2228+413294996+413137431+413366435+413965408+414658247+415002633+414799364
2218+414359716+414148799+414288429+414599342+414938872+415314668+415826028
2208+416549214+417357405+417970459+418330839+418722415+419361903+420106363
2198+420736655+421331926+422110163+422972009+423528950+423683936+423846357
2188+424360933+425060752+425643459+426140646+426676344+427068012+427087677
2178+426911266+426919824+427227550+427681856+428116708+428420823+428580058
2168+428726212+428954822+429198636+429432343+429789263+430366568+431142196
2158+432072111+433075316+434035761+434930200+435805671+436644543+437405968
2148+438106303+438779173+439499173+440432912+441693192+443196164+444785687
2138+446384072+447926648+449297698+450501622+451830004+453649957+455964822
2128+458349122+460424573+462234391+464087666+466237742+468734086+471373550
2118+473776575+475646177+476940114+477807149+478510700+479410753+480850480
2108+483029387+486062006+490095584+495224017+501258634+507669350+513806330
2098+519152811+523345351+526068757+527120427+526565124+524647269+521511437
2088+517145066+511630397+505271666+498426462+491393496+484510356+478201791
2078+472862076+468729747+465809172+463813656+462264890+460800217+459401217
2068+458279231+457578896+457220459+456974552+456657478+456262715+455944762
2058+455890925+456135710+456483677+456727369+456918499+457265586+457804259
2048+458379621+458953770+459736438+461000543+462918125+465596313+469184295
2038+473873961+479748675+486646139+494236350+502211462+510334063+518336700
2028+525834594+532371799+537614006+541487955+544078681+545493613+545918421
2018+545610513+544693040+543120421+540882214+538042334+534661778+530863820
2008+526806146+522502898+517976169+513591650+509865251+506956148+504628598
1998+502621611+500887299+499592149+498918095+498739195+498632614+498385432
1988+498258882+498602812+499439135+500536358+501759948+503191845+504870803
1978+506590245+508107632+509401113+510596753+511846776+513346197+515203175
1968+517219297+519014426+520469418+521871908+523495936+525232859+526874610
1958+528564554+530563135+532785075+535003919+537215419+539431046+541509381
1948+543537156+546034713+549445556+553457648+557025935+559437608+561184485
1938+563193505+565697011+568360996+570879979+572993517+574499493+575529434
1928+576447028+577636720+579482287+582035928+584803641+587356250+589637610
1918+591258908+591534526+590735713+590190486+590942017+592903876+595079445
1908+596499355+597106491+597606501+598534656+599766653+600831555+601433047
1898+601682384+601888445+602176688+602532788+603113401+603998583+604720313
1888+604723166+604203673+603772554+603660267+603732191+603842535+603878649
1878+603723390+603338824+602935199+603110791+604412709+606360426+607282451
1868+605947029+603094160+600192249+597726071+595526710+593594166+592014991
1858+590618996+589105554+587298832+585280465+583435565+582180201+581605779
1848+581694152+582578485+583803805+583740621+581370645+577904509+575033370
1838+573279696+572248905+571537857+571369185+572202837+573537591+573804165
1828+572416728+570488372+568676430+566568052+564287844+562648642+561709683
1818+560711728+559382254+558398077+558467331+559436880+560349740+560415352
1808+559901504+559728765+560473316+562076830+564075471+565824289+566844459
1798+567236127+567728185+569286662+572223716+575084536+575636926+574229701
1788+573428703+574575362+576931135+579429543+582049645+584949796+587586771
1778+589662253+592021850+595930881+601583086+606815399+608435786+606253056
1768+602861879+600515270+600387810+602681613+606093184+608458608+609416443
1758+610342110+611541088+612502686+614116275+617993988+623851343+628941447
1748+631074711+630855661+630177268+630574762+632651883+635680708+638050563
1738+639483401+641934162+646863484+652150788+654017902+652822626+650829144
1728+648851807+647641539+648243639+650716797+654518215+660008545+667873160
1718+676517895+681492070+680989998+678356421+676767171+677088978+679379079
1708+683798802+689676065+694884769+698610074+703149367+710240115+717040497
1698+720010690+720264943+719164535+716942109+715506054+716875223+720932169
1688+726621034+734296401+743954567+750772732+750331294+746808590+745218429
1678+746683132+750469983+755162714+759275318+762597909+765730220+768299399
1668+769561682+770519578+772774415+776165107+778792553+779503115+779694488
1658+781769301+787600801+798147610+810775970+816593813+814202411+812062774
1648+812827052+813111653+809794949+805068775+802302943+802515741+805573397
1638+810822038+815663715+815281516+809141926+802861402+800201544+800877206
1628+802557500+803220780+802487579+800418045+796976855+793488747+791883291
1618+792054270+791212242+787347701+782451336+778871639+776597198+774541564
1608+772243512+770186299+768841834+768150331+767984996+768423278+769404420
1598+770645764+771907684+772828737+772654420+770932854+768367681+766253597
1588+765299829+765425711+766121949+766531461+766016642+765298554+766226709
1578+769738428+773618143+773574928+769913170+767089070+767003308+767879447
1568+767316678+765491383+763809451+763416205+766190474+774418230+786415479
1558+791406225+784653550+775496789+769771749+767699363+767689349+768367924
1548+769653029+772510693+777832533+785789891+795608475+803712838+803405658
1538+795651266+789471799+788661090+790687712+791450472+790946274+792543901
1528+797686749+804767725+811685249+818227674+824643185+829604554+832266354
1518+833910352+835215790+835648791+835861286+837885844+843285738+852547806
1508+864649754+874216392+874756764+870208124+867670507+868946872+872677155
1498+876596383+879000288+880116781+882026382+886677779+894053371+901153163
1488+904148970+903433977+902688637+904094465+907079286+910097733+912833824
1478+916248187+921005619+927108063+934027468+939397560+940557997+939273317
1468+939306214+941556862+944062553+945358402+946668999+949737762+954748051
1458+959830083+961368288+958081507+952866492+948676744+947531482+950038326
1448+953864690+955729558+955812164+956868448+960044277+964288226+968594327
1438+972430705+973969639+971659934+968415821+968139657+971215279+974619141
1428+975369094+974335572+974807601+978891617+986329725+995514831+1004075684
1418+1008891202+1008963066+1006937779+1005472894+1005088146+1004840569
1410+1004048857+1003221942+1003305338+1004513238+1006204153+1007609982
1401+1008609029+1009477338+1010235728+1011092020+1012188484+1012603701
1392+1010909509+1007023967+1002337245+997898524+993263758+988038727+983942208
1382+983153228+985879547+990850506+996778086+1002376211+1006218113+1008008326
1372+1009125487+1010808633+1013180187+1015757681+1017725549+1018855517
1364+1020712313+1025239952+1031464879+1035996889+1037634574+1038271633
1355+1039270317+1039989315+1039888439+1039844496+1041086568+1044012211
1347+1047795602+1050877233+1053038720+1055997017+1060077573+1062672912
1338+1062321849+1061540698+1062972019+1065900939+1067773273+1067242067
1330+1065331130+1064145262+1064646728+1065723709+1065205976+1062016551
1321+1058139081+1057258997+1060409942+1065552912+1069880013+1070636521
1312+1067172995+1062853541+1061895645+1064474960+1067605268+1070111263
1304+1072698589+1073741823+1070632273+1064678290+1059716799+1057716884
1295+1058059449+1058825183+1058279895+1056015347+1052418048+1047675789
1287+1041616561+1033965775+1025156920+1016646445+1009656876+1004378980
1278+1000609730+998223124+996452758+993796300+989436666+983686437+976770735
1268+968293702+958349903+948446769+940792039+936831599+935539149+933209657
1258+927065819+918747141+912008548+908040763+904681755+899630799+892939488
1248+885899420+878945783+871138525+861647696+851659164+843535136+837880199
1238+832802538+826501377+819556541+813939236+810687840+809206082+808192649
1228+806768551+804893122+803075475+801884326+801726518+802930716+805474949
1218+808387482+810258177+810875632+811501948+813145460+815419659+817440879
1208+819233216+821789527+825880037+831027863+835721686+838716462+840265713
1198+841961241+845375726+850823266+857130496+862565108+866118645+868085967
1188+869468792+870726038+871589674+872274076+874015733+877653880+882380236
1178+887241883+893286848+902325739+914031224+925795159+935153612+941262489
1168+944387699+945333456+945331938+945333213+945809794+947122151+949128986
1158+951305040+953599572+956056403+958043026+959560899+962115450+966441094
1148+971021296+973928366+974700170+973361774+969810846+965307000+962548633
1138+963006459+965532969+968219047+970564805+973503194+977582415+981743333
1128+984424859+985536435+986932553+990444210+995606057+1000335326+1003684017
1118+1006535368+1009363959+1011160849+1011411824+1010493866+1007883840
1110+1003706352+1000546182+1000637165+1002828939+1004473847+1004593053
1101+1003136179+1000056673+996393459+993623925+991777386+990279119+989219133
1091+988949038+989737958+990972929+991084790+989680601+988933743+990786351
1081+993523595+993481412+989899468+985214992+980928253+975683194+968431177
1071+961162288+956461485+954089688+951486641+947327241+943420335+942326359
1061+944056120+946180522+946896971+946452559+945218559+943418028+942176927
1051+942056143+941909382+940600787+938704236+937831374+939031991+942431666
1041+946982309+950289423+951044596+951016797+952164124+953390597+952509420
1031+950245358+949127833+949326125+949367884+949346883+949575341+948909147
1021+947714175+948847359+953539180+959180702+962792204+964056612+962677126
1011+956936427+947498888+938271841+931668235+926423357+920656681+914685339
1001+909473905+904234308+897305859+888492513+879319971+871226776+864275142
991+857806461+851922643+847470084+844810590+843373139+842140172+840271540
981+837905813+835994452+834761909+833312319+830732215+826977958+822511378
971+817749272+813207795+809482731+806843814+805003163+803270732+801195554
961+799281219+798726402+800294591+803696207+808042792+812520115+816672717
951+820283430+823278023+826027770+829488565+834701214+841815147+849325119
941+855008157+858670158+862854018+869206527+875529174+878688677+879652278
931+882483358+889423945+899204717+908695000+914623126+914981169+910771028
921+905523783+902216123+901213433+900840217+899495387+897515865+896491690
911+897014582+897929505+897728300+896183964+894432778+894033706+896128792
901+900729326+906503529+911576942+914333245+913696003+910421058+907823716
891+908944701+913411523+918332105+921845462+924374703+926668688+928314810
881+928734702+928654644+928969836+929387239+929450605+929515852+929824549
871+929592086+928484576+928136730+930272664+934111167+937179869+938522028
861+939052507+939448666+939348033+938445188+937068068+936287282+938089512
851+943516537+950563038+955488293+956457964+954176664+949842037+945005761
841+942206729+943352659+947063337+949770477+950154800+950436367+952939205
831+957677700+962950073+966420943+967025045+966519816+968065062+973899111
821+983270249+991751651+994484465+992309139+991319803+994453328+998037699
811+998156359+995046748+991980231+992978550+997696833+1001370487+1001470392
801+999192066+995184526+989549195+984420671+980898695+976165298+967209924
791+957121669+952096570+952532121+953492141+951670973+947282994+942073017
781+938270627+937222599+937625556+936997115+934079727+929456553+924704765
771+921264060+920108297+921815964+925689124+929478342+931815968+934503017
761+939823885+946207288+950250639+951664479+952357075+952507175+951269169
751+949221547+947117842+944764982+943105264+943592163+945210972+946807688
741+949921730+954739190+957912470+958253518+959247771+962222577+963755138
731+962307369+960259564+958693560+956925866+955302869+953999069+952151742
721+950777657+952673238+957887525+962735818+963442677+960283964+957755573
711+959520658+965572785+972870262+976819231+974316574+967281545+961183531
701+958781265+957650023+955190400+953642969+957311707+965285149+970323844
691+968832557+965115687+962341480+959970897+958618177+959178092+957582530
681+948277611+934440561+925144200+923578925+925008607+923850962+919468324
671+913130443+903753599+892880310+889304861+894912758+901448871+903182880
661+901068735+899927478+902446705+906277135+907559570+906073198+904430415
651+904973578+908413069+912192698+911493971+905763955+901331911+903087709
641+909372422+915039801+915496534+912504490+909801721+906172496+900419051
631+893879296+889375389+888351699+889311355+890428577+891646613+894690431
621+898664042+899423342+897880645+896920443+896503101+896516757+898096842
611+899899619+896815379+887072299+877286126+875828889+882177270+884312294
601+874493892+862028985
##END=
