##TITLE=<SNM>
##JCAMP-DX=4.24
##DATA TYPE=INFRARED SPECTRUM
##DATE=29/4/2025
##SAMPLING PROCEDURE=Instrument type and / or accessory
##ORIGIN=Admin
##XUNITS=1/CM
##YUNITS=ABSORBANCE
##RESOLUTION=4
##FIRSTX=4497.3318
##LASTX=599.83466
##DELTAX=-1.4281778
##MAXY=2.1344683
##MINY=0.38094997
##XFACTOR=1
##YFACTOR=1.9878785e-09
##NPOINTS=2730
##FIRSTY=0.39502186
##XYDATA=(X++(Y..Y))
4497+198715289+198808089+200107823+201839506+202359265+201190082+199661105
4487+198970573+198760969+198228962+197570183+197500815+198053855+198558502
4477+198536913+198249621+198413544+199449373+200990133+202197921+202569048
4467+202342924+202099273+202121866+202292715+202368680+202069859+201248866
4457+200289841+199893092+200257518+200897827+201321922+201418246+201223379
4447+200851337+200567808+200519609+200532457+200405025+200315687+200683621
4437+201587580+202464614+202477927+201311098+199582142+198336800+198155292
4427+198749575+199328148+199349946+198811118+197802994+196343625+194852804
4417+194125436+194518197+195664232+196967983+197881207+198082385+197945823
4407+198255783+199075712+199623535+199409059+198706713+197915284+197176432
4397+196607515+196427101+196687108+197008042+196904507+196540261+196652941
4387+197340580+197565685+196454596+194573517+193262570+193104853+193582349
4377+194022725+194341905+194698551+194920178+194713333+194168418+193648644
4367+193302358+192995652+192586324+192061738+191636445+191842615+193111000
4357+195045646+196593872+197218770+197397640+197709759+198019914+197893651
4347+197354298+196843999+196637754+196617335+196589540+196567171+196613437
4337+196570485+196169808+195422156+194807408+194882308+195592150+196289249
4327+196614636+196855978+197236056+197543962+197672878+197764120+197702832
4317+197181814+196301198+195544670+195254035+195503652+196237857+197137348
4307+197588728+197229474+196415947+195831063+195782369+196089840+196393669
4297+196437071+196358482+196670511+197642399+198928775+200054451+200807590
4287+200969399+200361278+199399390+198924367+199210100+199621422+199511245
4277+198987949+198462358+198010633+197639296+197620841+198044575+198524680
4267+198737792+198758930+198683700+198456496+198167675+198079657+198318570
4257+198791268+199365748+199886510+200050748+199685812+199226262+199347352
4247+199979956+200299466+199897814+199362134+199475804+200306047+201158434
4237+201273632+200590476+199703143+199066912+198687254+198657404+199332255
4227+200665991+201907885+202343433+202095240+201916431+202286479+202920866
4217+203258531+203237108+203214470+203265368+203040428+202290601+201195839
4207+200276843+200132934+200895144+201874738+202233962+202025438+202106125
4197+203008554+204284960+205044022+204898389+204179641+203351002+202661834
4187+202382952+202775758+203611564+204149942+203922048+203320269+203108057
4177+203529887+204258170+205046645+205847834+206379676+206343680+206047483
4167+206104168+206537677+206732543+206247326+205329515+204612461+204473725
4157+204793265+205283489+205775782+206199607+206590689+207029145+207341054
4147+207119532+206251149+205145098+204318228+203929305+203763403+203642717
4137+203752729+204366067+205389063+206488638+207472415+208223860+208503086
4127+208165826+207447153+206736741+206114182+205405614+204721768+204435795
4117+204503949+204492435+204430128+204885661+205940050+206827982+206943061
4107+206645230+206712034+207364052+208230741+208993865+209582947+209900328
4097+209812535+209339236+208599485+207784579+207241432+207176322+207369105
4087+207622050+208204355+209381814+210746493+211374269+210724694+209294680
4077+208137926+207725630+207646157+207460256+207303664+207460871+207862492
4067+208259091+208520387+208560895+208268566+207717444+207240563+207070583
4057+207053612+206930213+206750624+206766260+207007797+207192633+207092067
4047+206892763+207008681+207503418+207874860+207587643+206755121+206078216
4037+206057842+206462822+206774611+206968293+207428428+208186859+208816884
4027+209139093+209456594+209933505+210256883+210149795+209842354+209765774
4017+209982574+210179090+210125538+209878709+209578854+209350870+209449653
4007+210113499+211135731+211957458+212319366+212396650+212209100+211468988
3997+210212792+209089934+208743468+209177053+209867705+210264724+210157186
3987+209791576+209639257+209907464+210331349+210542331+210533336+210643003
3977+211150963+211943531+212505732+212333893+211544143+210903024+211000068
3967+211662131+212448402+213254583+214020781+214344773+213973376+213375269
3957+213250640+213664855+214059145+214076041+214075457+214552098+215183982
3947+215126248+214410663+214095786+214720309+215470584+215370558+214601917
3937+214095846+214555321+216136305+218364870+220059673+220085339+218623242
3927+217088718+216699301+217390628+218203645+218676374+219256235+220210418
3917+220764493+219895915+217790045+215708568+214569834+214299347+214590568
3907+215854455+218905932+223669632+228478039+231229480+231077101+228530211
3897+224858890+221634090+220170209+220990093+223276706+225185956+226027083
3887+226780432+227681543+227602955+226584382+226213359+226529481+225787660
3878+224001841+223253094+224464015+226704408+229114810+231271293+232013698
3868+231017433+230034106+230244744+230412520+229100613+227127348+226087651
3858+226855048+230393135+237545845+244710758+244384876+237385025+229914185
3848+225164052+223533535+224410523+227054097+230812237+235136731+239192569
3838+241410729+240725038+238121044+235313757+232966576+231048706+229971230
3828+230152978+231098990+232437328+235055610+239020175+241406111+240530757
3818+239221338+239361289+238730170+235350263+231049381+228792317+230043476
3808+233812696+237175347+239028196+241360430+244679320+245940883+243973915
3798+241634305+240457596+239363538+237844201+237003089+237504752+238819852
3788+240482213+242599311+244978201+247208969+249723461+253164160+256692803
3778+258656878+259132995+259922745+262645146+267774038+274205076+279717583
3768+283371619+286340820+289829524+294443499+300994833+309662352+318554091
3758+325397950+330820685+337543708+347710310+361232875+374104727+381489438
3748+384685138+388330539+393692556+397092927+396560140+395744544+398446137
3738+405720147+415668464+424093052+427638066+426676388+423916446+421562518
3728+420535055+420770370+421424652+421475505+420463243+418725188+417217650
3718+416809837+417861767+420772619+425992601+432263765+436196053+436150087
3708+433638744+430676739+428846093+429176278+431391589+434033843+436002926
3698+437147807+438044030+440296372+445689422+454189480+462872800+467269571
3688+465810997+461785879+458824114+458060541+459040749+460907586+463508282
3678+467677714+472784807+474928966+472684030+470002257+469217935+467740441
3668+463104997+457365360+453758879+453567491+455952632+459322209+462951718
3658+466733127+469790720+471388360+472849363+476169226+481416465+485598430
3648+484897283+479693581+473775540+470025135+468785984+468555407+468019172
3638+467292389+467216799+468418200+471306264+476309552+483314245+490060026
3628+492703660+490948723+488204673+487256907+489363167+494426813+500351511
3618+504303498+506266314+508481955+511709918+514173827+514197274+512530701
3608+511078694+510589714+510709470+511602095+513853297+516977575+519474647
3598+520715926+521609331+523216896+525356078+527033865+528139857+529527878
3588+531098443+531317206+529885828+528431122+527999831+528507941+529963606
3578+532249710+534135647+534086173+532206413+530425001+530700794+533371593
3568+536451555+537056453+535119843+533489311+533732241+534389911+533534287
3558+531716414+531041773+532187343+533618242+533850858+533549159+534227458
3548+535811815+536886383+536584084+534987134+532613057+530694737+530639447
3538+532508472+535034928+537137710+538432900+538580662+537265322+534898921
3528+532684839+531706699+531934458+532257566+531785557+530842259+530209476
3518+530087141+530471416+531401821+532202455+531733925+530011161+528559693
3508+528601071+529829578+531322004+532770293+534340977+536051447+537660092
3498+538833667+539410141+539281929+538284060+536826715+536079033+536908212
3488+539045595+541309390+542373164+541805146+540609383+539953032+539451818
3478+537924611+535747589+534793017+535932231+538082147+539486480+539015730
3468+536663842+533425325+530551294+528914884+528845981+530007683+531377054
3458+531818360+531055326+530022075+530002586+531384011+533346946+534643097
3448+534461094+532743547+530033109+526874530+523410473+520135435+518502804
3438+519512906+522079901+524102565+524964186+525762781+527315355+528973293
3428+529411240+528009126+525384083+522920054+521804227+522199297+523231108
3418+523898073+523850279+523445434+523361239+523807522+524115638+523628397
3408+522626090+521582345+520369791+519079697+518569308+519278911+520337528
3398+520668072+520473595+520713588+521243106+520652540+518440557+516098743
3388+515421823+516822977+519407542+521865395+523414910+524380277+525398595
3378+526292959+526653847+526703621+526689168+526438262+526039534+526066640
3368+526813122+527962951+529220122+530840940+533050344+535013100+535493924
3358+534853165+534702345+535493624+536315067+536567173+536245204+535389939
3348+534382535+533870588+533752391+533327577+532773651+533191809+534976459
3338+537023890+537771033+536846085+535354019+534441544+534071241+533379449
3328+532101589+531353967+532526583+535424961+538095400+538762485+537491221
3318+535610322+534022187+532879735+532628648+533941410+536126528+537109105
3308+536029319+534242330+532917575+531803667+530780672+530595670+531685530
3298+533325118+533986746+532619713+529898721+527980761+528713871+532030527
3288+536215100+539769170+542474510+544470009+545165579+544056229+542208012
3278+541418652+542078181+543206421+544269355+545498641+546581005+546583704
3268+545209175+543115989+541209483+540271103+540658856+541881965+543125824
3258+544222760+545321196+546054486+545935629+544855963+542757859+539834475
3248+537051775+535465739+535217051+535851814+537135191+538952044+540868385
3238+542242734+542681040+542304741+541567913+540652919+539095068+536501928
3228+533658121+532085577+532191961+532809212+533028636+533164104+533311325
3218+532763037+531449136+530254991+529570336+528960580+528277963+527780228
3208+527308699+526584944+526171344+526916867+528290796+528462305+526582365
3198+524043196+522734093+523020260+524033002+524747222+524420036+522880175
3188+520681385+518801805+518090643+518722947+519878112+520166679+518794728
3178+516325002+514292084+513845442+514375320+513979590+511927242+509749741
3168+509187300+510207957+511718373+512908500+513111492+511818820+509591905
3158+507659193+506346971+504953312+503104856+501352708+500430968+500365753
3148+500359666+499749341+498889638+498396791+498036173+497290109+496504318
3138+496370349+496624014+496308881+495166129+494045955+493805513+494239413
3128+494427862+493811900+492485676+490837932+489487601+489102605+489668644
3118+490291683+490156425+489337410+488333724+487334536+486393607+485765621
3108+485491866+485066123+484215446+483650066+484299611+486006243+487447216
3098+487380532+485855243+484152959+483504254+484003338+484885499+485410100
3088+485184260+484130261+482555049+480969732+479662608+478648997+477902064
3078+477286642+476514073+475594492+475116187+475598090+476610052+476965633
3068+475999876+474372222+473298254+473250159+473739259+474127942+474168151
3058+473797128+472952148+471772755+470611773+469648086+468776899+467983371
3048+467446477+467206755+467100821+466994737+466763231+466179891+465173506
3038+464053032+463263492+463008388+463144846+463276865+462970218+462127367
3028+461116305+460372610+459922820+459425384+458746785+458297295+458415612
3018+458552849+457781089+456247015+455245758+455516544+456263866+456256131
3008+455271874+454095360+453618344+454183093+455356549+456182909+455950203
2998+454766943+453233828+451767459+450426002+449185232+448196748+447692027
2988+447614428+447566873+447319565+447057774+446943985+446909683+446946593
2978+446979906+446542289+445344996+443981591+443292378+443290639+443269170
2968+442723100+441794255+440958000+440572974+440670782+440922708+440843011
2958+440272204+439599212+439309776+439412232+439509320+439320211+438849911
2948+438188853+437449656+436750488+436076387+435377788+434825992+434578743
2938+434340850+433680691+432758262+432201218+432282595+432613889+432608102
2928+432032828+431118494+430207639+429428324+428834490+428664420+429114121
2918+429953794+430616501+430604238+429785823+428409975+426953230+425962737
2908+425789969+426223569+426510096+426132567+425388603+424786163+424342100
2898+423902234+423574238+423420840+423215149+422831863+422483329+422378204
2888+422429717+422359255+421961006+421271643+420542671+420017290+419671934
2878+419216956+418473652+417695896+417271801+417190394+417141041+416988902
2868+416746870+416298369+415581061+414878325+414597254+414814788+415187310
2858+415275763+414950016+414458218+414079849+413851641+413609879+413056584
2848+411960427+410656391+410006427+410400897+411174545+411429020+411061835
2838+410587847+410287197+409949547+409314095+408433343+407583835+407006583
2828+406790098+406812946+406744012+406316710+405656911+405180254+405113600
2818+405246459+405224391+404980980+404741108+404595565+404278004+403510982
2808+402442891+401537612+401045214+400784173+400501273+400230727+400144763
2798+400225150+400257173+400016371+399348087+398258197+397100483+396480293
2788+396690871+397296548+397542658+397169806+396542540+396014730+395497656
2778+394706466+393627850+392634809+392111767+392018906+391929134+391452358
2768+390554995+389605131+389116750+389180586+389253238+388874809+388338544
2758+388210123+388517849+388825455+388808574+388481268+388061522+387732237
2748+387445440+387042904+386547777+386077747+385561332+384887410+384194029
2738+383635636+383051697+382276819+381574263+381307465+381351841+381248576
2728+380836536+380386295+380149811+380046816+379862804+379590938+379358142
2718+379061600+378439281+377560359+376863409+376547408+376270685+375695291
2708+375002899+374555957+374346728+374178458+374138069+374362920+374513110
2698+374068836+373063891+372013370+371263319+370802944+370477437+370073822
2688+369426556+368638815+368038085+367844658+367943965+367964804+367626853
2678+367066721+366680767+366608655+366612073+366461014+366127111+365647636
2668+365120187+364742358+364627579+364709376+364895637+365086995+365072812
2658+364717651+364184055+363687189+363178090+362537871+361937560+361722875
2648+361960048+362263277+362167838+361646505+361094499+360795468+360628127
2638+360345977+359908390+359456111+359136211+358983412+358886683+358742670
2628+358660784+358827255+359120529+359120019+358630290+357947403+357427450
2618+357055888+356693590+356495276+356708432+357173995+357400224+357117235
2608+356477855+355750142+355093102+354631977+354501786+354709576+355035592
2598+355160176+354932867+354502926+354166385+354070166+354064949+353900396
2588+353575159+353365331+353449106+353685681+353829424+353771975+353545355
2578+353288212+353161050+353116493+352921207+352581758+352485539+352865947
2568+353379004+353519059+353269532+352969901+352690600+352220150+351621938
2558+351300330+351467071+351916772+352311572+352405961+352120093+351677829
2548+351534475+351893504+352378496+352430188+352012451+351678009+351883909
2538+352489047+353012689+353124409+352801211+352305155+352054908+352218681
2528+352477114+352450548+352182580+351932303+351744873+351528208+351325876
2518+351242610+351275353+351412440+351721965+352175744+352578190+352818512
2508+352981205+353100542+353049749+352769938+352386022+352029362+351734529
2498+351546019+351548058+351727153+351930594+352044324+352106811+352164410
2488+352178562+352186028+352333820+352622596+352846067+352871554+352752547
2478+352591892+352538491+352757674+353135143+353235380+352819531+352181171
2468+351767331+351705984+351839593+351987804+352065672+352086661+352104562
2458+352122132+352108969+352089840+352083933+351985405+351683796+351318470
2448+351230707+351555554+351997219+352173045+352088160+352062074+352266985
2438+352578789+352819501+352923306+352882528+352686282+352357747+352034759
2428+351947415+352202610+352656028+353113345+353536630+353976196+354445656
2418+354871879+355087195+355010885+354861145+354933377+355193518+355363078
2408+355344338+355339751+355596414+356136337+356736887+357197562+357554042
2398+357924975+358296897+358615088+358895349+359104967+359147755+359064939
2388+359032796+359085568+358987280+358394435+357036968+354803156+351842231
2378+348584524+345461536+342563818+339728916+336957161+334496190+332433827
2368+330459108+328315728+326400557+325480167+325780547+326848698+328458092
2358+331076209+335105136+340269288+345989255+351589226+355998530+358052917
2348+357243887+354151513+350414721+347789587+346798045+346833606+347221750
2338+347600658+347861099+348138242+348692257+349625541+350719449+351673091
2328+352495764+353444129+354606880+355813229+356930284+357991390+358987250
2318+359806384+360476138+361214165+362119234+363025142+363783618+364456100
2308+365140996+365879773+366727272+367645833+368425419+368955806+369421938
2298+370035682+370776918+371533565+372287394+373048749+373743419+374241185
2288+374474191+374519287+374538206+374604831+374618954+374455121+374173421
2278+373958975+373857269+373726958+373461569+373087158+372639467+372116065
2268+371562859+371092470+370795238+370670384+370651314+370703127+370876315
2258+371216514+371645495+372001136+372215792+372434136+372903086+373709447
2248+374645849+375334583+375489360+375142205+374650107+374378122+374344869
2238+374256656+373863386+373189434+372459053+371906746+371645465+371633682
2228+371754607+371931393+372142331+372344274+372475784+372589004+372877720
2218+373498510+374440339+375600301+376878162+378209004+379634775+381294872
2208+383230042+385269377+387202449+389008268+390841073+392799361+394779598
2198+396604817+398254449+399902642+401736646+403775681+405874865+407877739
2188+409719299+411416696+413040212+414611736+415953582+416813585+417237409
2178+417599857+418202536+419036422+419901042+420568487+420887727+420846829
2168+420505281+419891567+419050905+418119720+417240858+416425741+415558962
2158+414508621+413193491+411626794+409963879+408403239+407024033+405828060
2148+404802185+403858138+403134832+403464867+405866169+410411571+416180352
2138+422273890+428291089+434043198+439499426+444884800+450435597+456123931
2128+461653169+466700924+471270792+475665164+480001397+484045016+487551231
2118+490452487+492776641+494625127+496158302+497625421+499561161+502744628
2108+507745307+514681097+523441656+533685346+544411120+554093749+561645591
2098+566708277+568971233+568325317+565553831+561679353+557007598+551418272
2088+544762833+536772264+527368007+516907173+505869745+494795197+484332653
2078+474829659+466232963+458505654+451659426+445646155+440591954+436677417
2068+433716882+431364543+429518845+428131484+427011130+426008343+425078718
2058+424229509+423507704+422869973+422253291+421883498+422125199+423066698
2048+424604490+426716027+429506252+433313267+438656184+445802672+454674202
2038+465213325+477420341+491123050+505907945+520913101+534804651+546558517
2028+555965893+563038710+567618593+569764191+569960527+568925298+567270778
2018+565178311+562561903+559520082+556263934+552765515+548779016+544048913
2008+538472120+532238856+525791866+519553085+513667276+507987818+502361042
1998+496944453+492164247+488380799+485600738+483408515+481273860+479072372
1988+477114234+475696558+474954063+474916403+475333481+475737876+475985124
1978+476421182+477351197+478648337+479959270+481135544+482454153+484353012
1968+486872182+489484152+491551762+492871390+493797867+494949495+496691718
1958+498828381+500941387+502991156+505296630+507942962+510592052+512978123
1948+515262128+517798778+520794305+524102804+527157759+529419576+531030919
1938+532584212+534391351+536400882+538558414+540877800+543295054+545697915
1928+548097599+550703032+553695440+556838608+559616091+561928940+564020747
1918+565569423+565891392+565359475+565398454+566812682+568982387+570751266
1908+571648929+572017553+572379760+573046425+574073799+575372888+576872390
1898+578513537+580063412+581155851+581757271+582395691+583495026+584598259
1888+584833454+584162651+583409212+583169819+583285498+583214675+582678921
1878+582031805+581900535+582422077+583251376+584288044+585621435+586544764
1868+585613819+582574636+579046533+576606851+575401972+574600139+573549018
1858+572258984+570990299+569751958+568319560+566708997+565365052+564744442
1848+565087879+566492452+568254675+568344207+565610861+561754313+558921900
1838+557463356+556481438+555406810+554749799+555285494+556556938+556700861
1828+554789139+552098550+549820422+547613236+544995869+542508632+540823888
1818+539795496+538931835+538391103+538825032+540166698+541239647+541052367
1808+539971502+539070241+539106402+540355598+542562783+544850146+546276667
1798+546792813+547393993+549260080+552497818+555198361+554976539+552452662
1788+550459382+550587534+552357912+554580809+556787395+559084593+561385569
1778+563581721+566053366+569479703+574015929+578375670+580576679+580363253
1768+578996400+577629307+577364788+578969654+581543485+582968087+582910517
1758+582983918+583822632+584964005+586862955+590655577+595981763+600373287
1748+602026307+601902953+601852640+602634863+604078715+605819349+607426794
1738+609031600+612008776+617314993+622462415+623351562+620735753+617728054
1728+615593069+614656368+615045861+616378052+618483172+622292465+628874803
1718+637168211+642817146+642498355+638294772+634101922+632151040+632990234
1708+636253458+640797300+644910152+648231185+652481964+658569325+664139821
1698+666833228+667068243+664794853+660627490+657702486+658065713+660872819
1688+664722831+670275997+678286355+684756073+684662463+680681841+677770989
1678+678151487+681977691+687456196+691934674+695146265+698497522+701060559
1668+700361211+697690532+696720548+698336688+700115881+700118580+699697724
1658+701070933+705347858+713082423+722653211+727324965+725351475+723605444
1648+725035563+726814997+725075562+720867361+717393649+715920713+716701377
1638+719688448+723293070+723854252+720314335+716514817+715466694+717109460
1628+719813062+722669162+726350124+730773191+733886914+735108644+737139464
1618+742334200+749040852+752399665+750820885+746883260+742915531+739802947
1608+737543589+736170859+736279161+738252831+741526969+745196717+748856210
1598+752409260+755655513+758376025+760298483+760966107+760309457+759352006
1588+759387627+760418958+761319020+761429901+761187929+761548997+763617837
1578+767912872+772448858+773327031+771008664+769933916+771877662+774691725
1568+775784763+775725755+776238902+778213052+783298346+794388606+810705205
1558+820062027+815251026+806656519+801395398+800105064+801471318+803802158
1548+806297550+809912727+815893405+823786285+831727381+836719065+834442196
1538+826290493+819610647+818074444+820392091+822643234+822797112+822881487
1528+825153078+829470182+834653164+840824121+847891481+853112723+854909907
1518+856317418+859690983+863251589+864870728+865816245+868869520+875308115
1508+883970926+890468289+890546667+887267972+885844689+887966840+892075374
1498+894848599+894949645+895166729+898289028+903573597+908101188+909620300
1488+908702908+907284482+906128957+905729630+907296356+911605603+917884983
1478+924329814+929702775+934674370+940697686+946019614+946007201+940472446
1468+933856885+929562210+928423956+929299670+930277689+930718935+931746368
1458+934459924+936865664+935039996+929762384+925164450+923629746+924382406
1448+925047452+924829048+924717388+924687943+923734870+922446096+922986289
1438+926171674+929799744+931220268+931162459+931682862+933149322+934726722
1428+935845607+936581176+936855770+936362172+935706781+936437013+939019718
1418+941369868+941460300+940565396+940942176+943110982+946113225+948661029
1408+949756526+949201761+947923302+947276606+947543943+947469043+946005702
1398+944370732+944679687+946343622+946614678+945211604+944486230+945038236
1388+944786370+942289719+939486630+939227868+941752225+945244407+948657791
1378+952835168+958340779+963488441+966030548+966402650+967318303+970276109
1368+974236702+977450272+979629333+981787645+984422823+986988078+988783163
1358+989543798+990032358+991766576+995067160+997984188+998435328+997017922
1348+996595687+999096896+1003570756+1007760607+1010547324+1011731214+1011095552
1338+1009611822+1009595031+1012493888+1018074399+1025260496+1032408094
1330+1038150039+1043196954+1048750599+1052907587+1052681747+1049990499
1321+1050519298+1056595865+1064968850+1071167393+1073741823+1073732108
1312+1072607706+1071576735+1070747496+1069089378+1066493359+1064016557
1304+1061715581+1059733516+1059848055+1062240422+1063217782+1060247682
1295+1057014562+1058339497+1063080335+1065881685+1063698606+1057610046
1287+1049400293+1040002813+1030841367+1023593623+1018454717+1014388161
1278+1010999483+1008659169+1006917215+1004295890+999709470+993844650+988325127
1268+983684915+979545558+975707899+971714444+966474732+959888496+953509809
1258+948665047+944654141+939394819+932159009+924550077+918518546+914459605
1248+910667283+904593294+895227117+884085345+873400350+863981041+855447281
1238+847567533+840451839+834152670+828761539+824453610+821404832+819698860
1228+818773672+817355547+814814519+811981446+809764665+808200098+807352209
1218+807471545+808142768+808777710+809502965+810515226+811671531+813351477
1208+816356718+820647495+825321289+829691104+833542555+836922057+840346055
1198+844526431+849290117+853395173+855927985+857151754+857673057+857893320
1188+858563163+860908516+865393769+870628864+874776557+878100469+882538528
1178+888787923+895619069+902216279+909230387+917065998+924920260+932016944
1168+938459556+944416127+949391920+952529391+953675921+954393259+956595528
1158+960244047+963117418+963326587+962285481+963539174+968530618+974698097
1148+978468351+979378367+979346044+979141253+977874007+975608352+974484430
1138+976402390+981243914+987351125+992826092+995897178+995034777+990911851
1128+987357542+987544282+990413636+992822194+994280618+996746087+1000036896
1118+1001281893+999753786+997996961+998193896+999488308+999543298+998480244
1108+997985447+997082508+993353452+988242911+986276317+988770210+992541244
1098+995115134+997222473+999452927+1001739390+1005067080+1009175134+1010932079
1088+1008745043+1005120691+1001370586+994972530+985299616+976612818+972738279
1078+972738819+973222222+973033622+973318651+973680498+971979623+968173568
1068+964681386+962713473+961653897+961437592+962448714+963431231+962030196
1058+957985948+953299501+950199511+950727170+955518501+961691197+963679319
1048+959079466+952637274+951323193+957107895+965414496+969748570+968161814
1038+963632184+959200722+956266843+955824038+957388786+958020310+956126577
1028+953383157+950941856+948233576+946400112+947948008+952410894+956276617
1018+957736661+958673122+961019494+963654852+963815327+959973650+952114892
1008+941006461+929542780+922404658+921478991+922354165+917750114+906417823
998+894829049+888812390+887844325+886835602+881815792+873377981+864859034
988+859007527+856179791+854609167+852724550+850798974+849564771+848331707
978+845570236+840666585+834732562+829974753+827705620+826682205+824288338
968+819878405+815679079+813517049+812419933+810277153+806814355+803847373
958+802950671+804169222+806837982+810348035+814007528+817393147+821068172
948+826084503+832473144+838762298+843614257+847295578+850770669+854514657
938+858933047+864604649+871638907+879919781+889383226+898580593+904768221
928+907310628+908708725+911465158+915045014+916382182+913513908+908096630
918+903733172+902553839+903501455+903778208+901979465+899169600+897377873
908+897622723+899194007+900804750+901981144+902917366+903700249+904463823
898+905936340+908864282+912686828+915486799+915972660+915198232+915345154
888+917141858+919121765+919473478+918491560+919001529+923793099+932041231
878+938970904+940571153+937985209+934761264+932213759+930009872+928807811
868+929944147+933496777+937711634+940316349+940714657+940593581+941699873
858+943255145+943242552+941785747+940318148+939303967+939275243+941126578
848+944687603+949292433+954559731+958957311+959959558+957295655+953525881
838+951432455+952400160+956054795+961101710+966791663+972626259+976446047
828+975583286+971368548+969485430+973812608+981791303+987517476+989232444
818+991217448+996998372+1003444403+1004436275+998873575+991342182+987032754
808+988331184+993385954+997662279+999138274+1000284444+1002012365+1000397124
798+993953792+987778757+985767967+985862357+985673398+986477210+988922829
788+990293040+988196855+983264419+976344761+967387086+957281803+947989566
778+940405041+934455487+931493063+932952686+936066650+935653050+931365091
768+926811414+923415420+921475093+923728574+932293337+943601161+950606274
758+950471166+946870502+945150976+947301612+950851544+953544351+956841997
748+962294896+968198575+972093442+974331392+976557288+978034841+975638756
738+968296562+960076316+957469743+963757997+976445447+989776115+997782575
728+996119660+986839177+979319358+980435664+987162585+990825197+989243238
718+989005225+994591553+1002491150+1006264163+1004660556+1001239856+998094649
708+993802433+987584041+979247396+968033003+956501198+949440974+949583938
698+955364563+960806068+959492946+951366430+943590007+942752013+947622861
688+950729808+946983362+939622998+936357375+941767996+953545490+962798987
678+960831734+948926148+937489932+933271896+931043782+919849418+898685117
668+883485844+891442111+915343115+935408320+944662656+948341159+951075524
658+952431463+949496025+942749854+938714121+938010995+934577222+926296767
648+917922283+914940249+917677673+922350267+926309780+930191335+935123471
638+940596040+944212236+941891770+932211960+919804561+912452653+912061901
628+910295001+900678157+890696767+891962514+905090969+916059314+909722485
618+892285082+882703800+888466554+902073495+911484888+910320547+902735003
608+895886826+891803239+887437022+881150986+881788987+895072579+910690910
##END=
