##TITLE=<SNM>
##JCAMP-DX=4.24
##DATA TYPE=INFRARED SPECTRUM
##DATE=29/4/2025
##SAMPLING PROCEDURE=Instrument type and / or accessory
##ORIGIN=Admin
##XUNITS=1/CM
##YUNITS=ABSORBANCE
##RESOLUTION=4
##FIRSTX=4497.3318
##LASTX=599.83466
##DELTAX=-1.4281778
##MAXY=2.104919
##MINY=0.37722057
##XFACTOR=1
##YFACTOR=1.9603585e-09
##NPOINTS=2730
##FIRSTY=0.39425826
##XYDATA=(X++(Y..Y))
4497+201115384+201752596+201788276+201093599+200280706+199904506+199972810
4487+199997940+199675571+199590134+200467788+201743490+202015918+200929564
4477+199451122+198458035+198133066+198435459+199256454+200183532+200636794
4467+200313513+199405119+198443319+197956383+198087033+198421366+198468099
4457+198393242+198747840+199386587+199500272+198906539+198392512+198504129
4447+198783459+198594918+198071603+197786283+197979050+198483453+199016270
4437+199223951+198870265+198292814+198191322+198725340+199284959+199285567
4427+198773213+198279877+198307880+198821922+199299082+199381479+199115938
4417+198583273+197834885+197077710+196495424+196063385+195647232+195034770
4407+194099269+193194478+192924284+193370614+194112739+194924901+195831775
4397+196708974+197319353+197501692+197158511+196382789+195566188+195081046
4387+195019795+195328497+195721192+195515411+194315859+192857622+192424275
4377+193397082+194905351+195872259+195997193+195705929+195480734+195474486
4367+195748602+196456004+197429784+198024080+197859391+197444135+197602621
4357+198506364+199570279+200070578+199722076+198871406+198241886+198296919
4347+198715230+198709469+198077015+197621108+198174737+199495407+200507087
4337+200397948+199216016+197616486+196338109+195886200+196424915+197689032
4327+198984558+199637018+199622089+199486209+199599894+199802816+199756844
4317+199334869+198680675+198018546+197383113+196652709+195958929+195827260
4307+196643694+198089587+199369029+199967079+200042727+200088076+200270977
4297+200222146+199603664+198754134+198378617+198649936+199073188+199191509
4287+199007285+198739782+198472599+198154548+197874685+197884263+198286551
4277+198993998+199868993+200609293+200856987+200797667+201101610+201873668
4267+202404965+202307897+201994756+201790830+201558521+201294028+201217651
4257+201238113+201067481+200832025+200956715+201529454+202232782+202778049
4247+203068021+203103321+203083239+203396061+204116491+204695949+204561468
4237+203904325+203495211+203765192+204344756+204514006+204000481+203297837
4227+203163645+203774815+204470815+204486641+203815862+203098882+202857011
4217+203085747+203409606+203456430+203223269+203108262+203389326+203819039
4207+204088975+204450323+205311863+206417676+207039671+206905965+206424989
4197+206079284+205987674+205961875+205760564+205345779+204876068+204459946
4187+204244116+204611849+205673378+206684449+206759702+206150234+206017349
4177+206974893+208535747+209902907+210721181+211087956+211298252+211609431
4167+212040848+212404689+212443349+211839080+210463955+208907752+208279373
4157+209045882+210455684+211437963+211602286+211093079+210131598+209140426
4147+208735554+209045699+209353626+208894845+207819026+206914737+206671573
4137+207023921+207644243+208209593+208651225+209170010+209828430+210416660
4127+210858885+211293676+211680518+211781554+211568689+211316054+211279598
4117+211484391+211832938+212270299+212715671+212878003+212428678+211509916
4107+210823585+211027663+212160613+213676088+214890189+215413078+215326226
4097+215004450+214743925+214576789+214411310+214201698+213988104+213937510
4087+214269365+214951698+215613857+215962405+216088631+216178478+216197587
4077+216070677+215936393+216045714+216486343+216977414+216956282+216144941
4067+215036756+214473640+214730882+215374084+216026954+216765978+217529477
4057+217791051+217309938+216742019+216966711+217992940+218951943+219184024
4047+218948036+218838730+218911732+218832011+218628449+218698305+219131819
4037+219563463+219709148+219704436+219847217+220175606+220419849+220337315
4027+220022320+219839996+220020131+220377739+220551001+220495178+220596563
4017+221180354+221987256+222433221+222383190+222243388+222204348+221970701
4007+221475981+221174258+221278319+221439100+221450396+221586671+222052384
3997+222598457+222808190+222584547+222343800+222585444+223218749+223648219
3987+223611201+223444506+223422903+223403413+223263398+223197952+223400677
3977+223751474+224015131+224201057+224500364+224840611+224783966+224091858
3967+223177732+222779062+223326625+224619719+225858432+226180436+225529526
3957+224747085+224568836+224928998+225488647+226314355+227506412+228528764
3947+228679983+228220108+228198004+228989855+229652805+229142625+227641152
3937+226208409+225884611+227232053+229858480+232207918+232758856+231731593
3927+230702142+230679612+231201574+231306866+231134303+231782704+233502090
3917+234823976+234096340+231506596+228705919+227013547+226628970+227250645
3907+229110776+232907658+238382833+243519327+246276526+246352599+244303197
3897+240866356+237527389+236034505+236952659+238753925+239036509+237734903
3887+237057206+238060874+239574495+240843461+242545152+243810363+242386711
3878+239089687+237303456+238540589+241684934+245304175+248207591+248726117
3868+247074276+245884393+246403786+247012220+246004477+243933959+242204221
3858+242058079+245356517+253660449+262773503+263060982+254792350+245395496
3848+239142942+237178963+238963324+243010652+248077412+253889748+259651308
3838+262416184+260112977+255238573+251432464+249598573+248579581+247582191
3828+246860240+246790507+248030680+251878307+257918133+261796834+260768903
3818+258051641+256205482+253818585+249837632+246070030+244690405+246643727
3808+250873864+254313320+255666736+257297355+260479205+262329864+260766562
3798+257768267+254992095+252295524+249826717+248306787+247823576+248054836
3788+249121382+251100442+253138274+254422321+255689449+258053192+260653759
3778+261383722+260155300+259168781+260367466+263946223+268395960+271958905
3768+274615023+277203246+279235484+280086641+281067383+283882519+288069223
3758+291905327+295495850+300834841+309728082+321715576+331906593+335334723
3748+334696340+335503075+339003174+341675862+341535118+341436180+344542777
3738+351833464+361929191+371550996+377354819+378292569+376359177+374856017
3728+375853269+379076409+382961252+386829312+390887767+394623991+397354813
3718+399591616+402667048+408126261+417206401+428603431+437261703+439900611
3708+439329423+439851325+443394507+449233447+454393627+456115825+455378535
3698+455270263+457151084+460538897+465182375+471507126+478502641+482342332
3688+480435758+475462174+471309463+469560478+470331761+473380589+478798907
3678+487150210+496860128+502095621+500595592+497732295+497242015+497208387
3668+494986027+491914121+490257020+490205940+490820302+491873652+494019483
3658+497450471+501085842+504014205+507716740+514914691+525997303+535583200
3648+536642449+530774168+524358050+520677893+519971829+521822093+526158815
3638+532208735+537563841+539986144+540321876+541838415+546528321+552102099
3628+553291481+549304234+545053801+544937654+550035291+557727870+562919397
3618+563439627+562836514+564092117+566107845+567416658+569184889+572298966
3608+574278938+572271967+567500210+564062381+564855647+569407879+574910206
3598+579756576+584650256+589411370+591747019+590693426+588598524+588463222
3588+590460950+591737411+590716473+589161624+589061835+590054496+590349242
3578+589302338+587733259+586670605+587131666+590237656+596540242+604500871
3568+609494583+607838546+602548021+598883370+598114550+598811006+600347430
3558+603055236+605854865+606374304+603903474+600665588+600064725+603685045
3548+609911861+615485397+618059360+617488658+615354351+613696246+613472648
3538+613851555+613502324+612129113+610294234+608792654+608190879+608707520
3528+610701782+614513289+618944266+620933724+618736539+614299724+610720086
3518+609422280+610375051+612728821+615092686+616714974+617986814+619132655
3508+619620169+619520562+619874597+620788632+621177998+621043729+621600384
3498+622605998+622123835+619974143+618648304+619809105+622606241+625707852
3488+628567257+630274496+629940771+628769389+628954130+630561580+631461749
3478+630215510+627539569+625206900+624265683+624332453+624862837+625809709
3468+626967287+627866483+628102547+627225182+624807439+621535256+619553764
3458+620706356+624369425+628027873+630313840+631935398+633142050+632433188
3448+629055196+624915194+622345913+621483993+621001162+620476494+620931474
3438+622479391+622866203+620548067+618126859+619582284+624897012+629808631
3428+630683565+628041677+625137455+624600016+626232216+627534704+627076805
3418+626110535+625967024+625853978+624645928+623394824+624060693+627094379
3408+631334839+634652629+634963125+631960756+627511475+624115848+623055991
3398+624040322+625781736+626706655+626377856+625678663+625108448+624231873
3388+623133463+622668389+622804968+622901351+623464816+625590610+628917705
3378+631956803+634007071+635002104+634581117+633167712+632651982+634225500
3368+636338768+636236364+633456255+630606579+630426339+633169536+637283693
3358+641425641+644606791+645518393+643839431+641285413+639726307+639244692
3348+639095647+639237152+639830474+640607382+641204232+641707556+642275277
3338+642530193+642145570+641532119+641317156+641393837+641133206+640431946
3328+640341764+642318574+646081554+648908243+648406501+645552751+643350032
3318+643198676+644338255+646009738+648492547+651663055+653804538+653091116
3308+649594848+645503556+643370404+643866065+645464333+646572108+646733801
3298+645401577+642339979+639749050+640154166+642016227+641462492+638511446
3288+636865564+638004413+640107464+641853743+643810303+646435650+649059964
3278+650971525+652153731+652698284+652173068+650439438+648525749+647251294
3268+646888137+647913758+650019849+651295034+650412621+649066410+649947364
3258+652546806+653396747+651035314+648297043+648326475+650525423+651877289
3248+650918803+648763333+646998325+646113236+645435144+644260965+643123272
3238+643266662+644859274+646481136+646732342+646139080+646618627+649041660
3228+652340965+654953725+655991325+655084101+652510746+649378061+646649884
3218+644586967+643484179+643554658+643970111+643657670+642510125+640951141
3208+639640443+639637524+641181854+642602861+642197745+640842473+640784643
3198+642045173+642012153+639261901+635832342+634324742+634910950+636184918
3188+637103027+637025737+635503665+633037213+630805245+629711943+629918636
3178+630588519+630171545+628107473+625868877+624819054+624235826+622729685
3168+620267186+617739986+615851594+615245197+616466565+618975340+621164437
3158+621974730+621842407+621593755+621220261+620289868+618742499+616785148
3148+614669753+612603127+610599865+608853282+607858310+607616529+607393722
3138+606698846+605929540+605596605+605333238+604491567+603263145+602262518
3128+601636784+601315768+601570926+602606945+603857684+604342340+603670572
3118+602193134+600162082+597322136+593644229+590099252+588220164+588712786
3108+590571928+591913274+591812086+590795040+589499545+587984952+586541992
3098+585941798+586424568+587423129+588550849+589727460+590409991+589951119
3088+588507552+586755375+585189701+584145898+583947415+584759896+586298935
3078+587451952+586823847+584322916+581551381+579930188+579151821+578248003
3068+577362367+577593505+579395547+581683096+582801086+582289067+581238940
3058+580754285+580688123+579971113+577940426+575243384+573051368+571747177
3048+570806569+569787394+568957338+568740612+568797043+568230112+566812632
3038+565329539+564502888+564148792+563745014+563327919+563294960+563546652
3028+563304020+562095544+560706098+560446014+561473337+562560984+562621976
3018+561709705+560296482+558493772+556455787+554826932+554127861+554066808
3008+554097699+554103233+553848682+552728867+550899887+549628229+549710079
2998+550405441+550471298+549644040+548672844+548243587+548219202+547970185
2988+547232013+546154218+544729684+542947527+541139648+539654547+538587759
2978+537944025+537592239+537295365+537131482+537259061+537152462+536062504
2968+534302421+533136147+533356462+534489412+535334488+535110464+534068364
2958+532948001+532084987+531342801+530604204+529898018+529193474+528451775
2948+527831149+527505207+527362487+527325697+527764379+528743419+529085475
2938+527550876+524906312+523189708+522951151+522850206+521955571+520863850
2928+520349884+520109746+519297203+517832474+516599552+516376623+517025100
2918+517748495+517786745+516939358+515826050+515436076+515979352+516421623
2908+515610114+513622784+511519611+510050808+509144254+508479996+507945781
2898+507482257+507115725+507145552+507647751+507940855+507264861+505841787
2888+504524826+503695166+503116255+502484105+501719238+500964769+500378288
2878+499847842+499231746+498826965+498897231+498883366+498028531+496644040
2868+495716810+495467733+495300353+494855954+494308695+493868826+493494937
2858+493020832+492316349+491469722+490924379+491086680+491606970+491507181
2848+490331330+488717039+487591447+487319231+487717323+488251873+488111676
2838+486780637+484749828+483135416+482472010+482343123+482143727+481611640
2828+480614783+479156864+477750239+477059225+476994432+476822948+476250149
2818+475797754+475966957+476425251+476277088+475142496+473662291+472609063
2808+471884573+470925570+469749718+468940824+468800901+469023313+469126447
2798+468939852+468618684+468241115+467615745+466630776+465538751+464777381
2788+464600454+464758712+464541560+463453427+461852939+460590799+460121893
2778+460269570+460624122+460819201+460545465+459664389+458440711+457477208
2768+457143909+457033630+456284451+454620235+452795146+451722398+451371494
2758+450936065+449997129+448989235+448470282+448422273+448351034+447769539
2748+446640116+445520058+445043581+445138962+445073561+444413864+443521843
2738+442881575+442434592+441884475+441200880+440503906+439853818+439339913
2728+438982198+438570485+437971446+437398191+437040719+436720099+436174634
2718+435403077+434579893+433828951+433177950+432651671+432295446+432068534
2708+431810882+431376152+430735489+429975820+429301894+428955247+428923231
2698+428802827+428199136+427174063+426086629+425144896+424368840+423840888
2688+423639698+423568003+423299254+422784741+422217810+421706884+421268262
2678+420989722+420951017+421023776+420883943+420317560+419473943+418652857
2668+417878625+416980097+416072144+415562739+415622394+415916045+415883420
2658+415201467+414070250+413084734+412681655+412707682+412651767+412204784
2648+411469135+410760304+410338648+410230528+410218062+410049710+409650492
2638+409092014+408491455+407989256+407649085+407367262+407051780+406809361
2628+406755818+406777436+406628938+406162343+405436789+404684053+404078873
2618+403535749+402935494+402457588+402346914+402474889+402506875+402383856
2608+402311827+402392187+402507605+402505294+402389512+402329918+402447859
2598+402624025+402609066+402263848+401656600+401028038+400627452+400471749
2588+400358916+400167121+399910199+399545400+399105136+398881873+399004587
2578+399047549+398581259+397829374+397322554+397231977+397407262+397713926
2568+398022476+398117340+397856678+397341800+396828534+396514542+396453093
2558+396589247+396797581+396954654+397062622+397234288+397499176+397724507
2548+397768047+397600029+397270926+396886090+396609223+396572189+396737988
2538+396900046+396889982+396763163+396688945+396706823+396709711+396608098
2528+396395506+396132047+395947398+395968012+396213441+396629229+397109476
2518+397413161+397296162+396857510+396516214+396539078+396822514+397135289
2508+397303307+397198897+396828047+396405449+396154790+396102554+396124324
2498+396085862+395941225+395772873+395684303+395639791+395547359+395486337
2488+395665179+396140135+396708130+397070922+397049183+396721174+396374983
2478+396219218+396165036+396023015+395850315+395896986+396210127+396520106
2468+396615821+396629320+396769791+396929691+396793112+396312227+395880385
2458+395938459+396482981+397112151+397525720+397727365+397744362+397518544
2448+397152924+396929782+397011784+397385553+398030169+398829302+399415723
2438+399460510+399054147+398506523+397940748+397400026+397079679+397081838
2428+397231977+397405164+397668471+397947802+397997939+397805689+397608816
2418+397540770+397580966+397731197+398019496+398446838+398950375+399327518
2408+399365129+399145666+399010334+399212010+399797032+400692185+401661009
2398+402298297+402325418+401902211+401535710+401633644+402153508+402676656
2388+402796300+402405991+401616100+400482694+398944476+396985879+394668808
2378+391998582+388991622+385858967+382837261+379921150+377069529+374466863
2368+372276428+370505156+369346332+369213128+370152732+371567719+372838920
2358+374076768+376080790+379598067+384653167+390307276+394935976+397078098
2348+396240380+393226639+389837975+387528018+386310420+385741452+385874383
2338+386557035+387088362+387009066+386519303+386076545+386051340+386629490
2328+387666847+388721595+389449399+389926453+390498948+391439982+392831101
2318+394551962+396252329+397534416+398274929+398683480+399087076+399726401
2308+400620003+401562709+402365431+403054955+403801488+404784238+406062159
2298+407402501+408422436+409072312+409669252+410364918+410988159+411417873
2288+411676041+411709943+411485463+411217230+411158883+411221000+411085577
2278+410689674+410311223+410123928+409968042+409668553+409314578+409089612
2268+408985323+408807423+408460989+408160497+408230915+408741080+409498589
2258+410285044+410882958+411092448+411003544+411056236+411611491+412570829
2248+413463762+413818223+413483282+412708503+411954460+411554969+411430217
2238+411153562+410467960+409657638+409190344+409125946+409137439+408977661
2228+408653483+408238182+407807860+407577451+407827988+408537701+409253008
2218+409562865+409609415+409866033+410477781+411099229+411395403+411451409
2208+411575340+411907180+412403784+413057795+413906003+414895867+415906346
2198+416823420+417545569+418051568+418446985+418794970+419015224+419126050
2188+419388536+420001439+420821157+421516701+421878338+421923094+421806369
2178+421673956+421617068+421748691+422153655+422734603+423312449+423857641
2168+424361482+424631721+424577053+424510071+424837958+425625173+426637719
2158+427590246+428264355+428618360+428853725+429269422+430043502+431152432
2148+432450086+433800522+435100730+436215711+437116853+438117572+439655547
2138+441752487+443956269+445893826+447626757+449415026+451422727+453731163
2128+456395004+459363563+462483903+465646750+468788891+471709258+474101430
2118+475872246+477252054+478520428+479801632+481219659+483083271+485766844
2108+489495923+494384829+500612953+508339100+517282935+526471560+534658950
2098+541114594+545848405+549029191+550453177+549729478+546788223+541961251
2088+535611234+527910688+519031342+509397953+499672588+490530330+482432818
2078+475574307+470016461+465779285+462764085+460693081+459183352+457877124
2068+456587710+455380025+454420262+453734538+453213154+452779214+452430135
2058+452191729+452096379+452130889+452228094+452369750+452654006+453248728
2048+454303294+455848018+457800413+460164977+463152813+467027288+471986126
2038+478306863+486391484+496405209+507875028+519806730+531283755+541842489
2028+551227166+559109898+565283445+569803144+572755831+574176473+574103744
2018+572459869+569193646+564761027+559983615+555292858+550526696+545411972
2008+539899307+534114640+528243805+522505900+517205159+512684000+509029809
1998+505928867+503141035+500951725+499706034+499124630+498590840+497954586
1988+497514747+497373851+497320399+497295528+497639712+498757490+500600730
1978+502608158+504253857+505532751+506751504+508072661+509537815+511283426
1968+513320376+515237471+516583742+517504283+518589801+520215312+522360504
1958+524902177+527700651+530431260+532686762+534378981+535863291+537572476
1948+539690486+542345935+545816540+549984515+553813717+556263141+557577609
1938+558764315+560275685+561891953+563454099+565215581+567502704+570215314
1928+572933700+575623202+578666740+582003625+585064797+587681571+589945464
1918+591259020+590958923+589763034+589193367+589986754+591693932+593264653
1908+593935387+593767855+593266234+592769539+592608879+593297065+594951643
1898+596994917+598732014+599888133+600725243+601833869+603316658+604225828
1888+603736612+602553676+601903314+601998177+602375868+602762558+602932947
1878+602561946+601667736+600629528+599913491+600212736+602084284+604594762
1868+605155368+602436434+598135104+594464859+592075515+590499321+589106773
1858+587498898+585727200+584188830+582997685+581879633+580854195+580472856
1848+581305527+583323505+585232876+584753086+581350891+577324847+574642399
1838+573142035+571728934+570222307+569760759+571269454+573646940+574196176
1828+571998383+568893123+566160203+563389884+560520749+558408273+557368119
1818+556814870+556272019+556015523+556694831+558405050+560047648+560199794
1808+558940603+557799808+557997927+559671538+562200989+564412586+565133366
1798+564576164+564611860+567082750+571938971+576443893+577386204+575281086
1788+573306344+573289864+574999049+577583715+580483620+583054481+584661019
1778+585747693+587824778+592092724+598191779+603519095+605064944+603114161
1768+600282242+598533591+598879174+601426564+604642133+606258096+606281143
1758+606666131+608202129+610474961+613753408+618605676+623935729+627128615
1748+627151176+625680852+624833344+625677264+628348341+632179307+635647541
1738+638048682+641130713+646621486+652019462+652642521+649545653+646552709
1728+645015677+645068764+646787375+649523518+652506733+656558012+663408678
1718+672547561+679344288+680116027+677123448+674027432+672380942+672628803
1708+675191517+679844997+685121111+690366212+697237553+706450806+714187412
1698+716943501+716571284+714751728+711936958+710249786+711484714+715090197
1688+720016471+727312144+737852757+746513977+746814135+742142655+738846999
1678+739607184+744180335+750148648+755134699+760034825+766562955+772150415
1668+772100065+767923577+765250433+766507982+769676910+771605862+772306575
1658+774168880+779180592+788299468+799477917+804938954+803114047+802217830
1648+805522243+809022280+806928959+800673319+795881252+795430529+799431032
1638+806305414+812201546+811536711+804159492+796566762+792811688+792635704
1628+793785376+794388550+794184472+793024522+790452019+787719828+786997345
1618+788318198+788708476+785665121+780956060+777185357+774786222+773006984
1608+771193206+769186295+767235330+765730102+764748143+763948066+763214759
1598+763003080+763550673+764331716+764683806+764393438+763577186+762684740
1588+762462601+763172010+764056794+764107875+763292109+762924392+764790953
1578+769443521+774239662+774613704+771229449+769123904+770029121+771077302
1568+769345739+766295148+764592956+765365424+770185038+781597665+797406913
1558+803800956+795561148+784639318+777162127+773114070+771504249+771125707
1548+771192598+772454647+776487502+784064117+794566480+804506960+806352602
1538+799190711+792184737+790737765+793372659+795569114+796041243+797940277
1528+803171573+810257391+817266467+824634199+832776164+839229072+842054423
1518+842709407+842497849+841845602+842472857+846294336+853391342+862727189
1508+872817869+879176643+877230725+871622589+868919040+871190777+877535139
1498+884534668+888095090+888178825+888641771+891673086+896195765+899903104
1488+901505871+901492676+901455582+903098605+907194459+912957782+918939474
1478+924893497+932041584+941088461+949931504+953596276+949823019+943030548
1468+938442925+938114186+940948781+943223012+942687155+942016056+945612599
1458+954347583+961230721+958306614+949171927+941140393+938149821+941142339
1448+947030566+949938679+947969106+945290185+945575627+948661488+953082797
1438+957788696+961156654+962311192+963657585+967487152+972464324+975925139
1428+978337409+982332805+987997676+992295723+993053172+991372993+989543100
1418+988352685+987602533+987853374+989268543+990587876+990107538+987805395
1408+985851937+986304971+988718517+990720989+991566977+992767000+994869078
1398+996993413+999096160+1001150076+1001047611+997540945+993141893+990607457
1388+989814069+988998730+987520501+986443313+986997961+989431757+992988835
1378+996989095+1001546739+1006362887+1009587456+1009921059+1009184164
1370+1010193974+1013413921+1017533369+1021987576+1026881925+1031254889
1361+1033682422+1034220955+1033428480+1031198093+1028307918+1026935802
1352+1028637751+1033102295+1039045494+1044773669+1048644100+1050441642
1344+1051170145+1051036485+1049237970+1046389876+1044769413+1045018855
1335+1045552037+1045772412+1047164351+1050882028+1055863943+1060086221
1327+1062723548+1063910801+1063277527+1060863493+1059220652+1061471350
1318+1066851205+1070489221+1069004729+1064662534+1061626780+1061151246
1310+1062626130+1065909746+1070303507+1073459543+1073741823+1072266452
1301+1070637475+1068399791+1064389376+1059092830+1054078320+1049779057
1293+1045571496+1041262260+1036777405+1031927326+1027282541+1023418312
1284+1019194514+1012821146+1004842395+998177565+994950077+994612460+994695405
1274+992787128+988467555+983464660+979248403+975021321+968847470+960363267
1264+951409611+943955407+938159429+932802742+926988764+920911297+915333627
1254+910570384+906085103+901142532+895544429+889490678+883041358+876207111
1244+869148232+861637900+853026604+843423012+834170597+826483369+820333294
1234+815231280+811220742+808501991+806840541+805884487+805411568+804911042
1224+803772558+802415584+802356659+804367705+807263839+809348891+810515286
1214+811899685+814031803+816426803+818707237+821181046+824222942+827647028
1204+830913555+833883452+837121338+841097092+845401463+849428663+853280668
1194+857184363+860584307+862664919+863602609+864439718+865880610+868092389
1184+871365788+875900811+881176135+886528869+892178842+898852916+906541421
1174+914554712+922257690+928882142+933650311+937027938+940703595+945268780
1164+949086732+951120825+953674113+959728411+968499941+975612637+977697445
1154+975395120+971632505+968440348+965976146+964187726+963860021+965244846
1144+967012165+967647994+967391072+968013219+970701018+974323162+976657048
1134+977592244+979420069+983397708+986982333+986848733+983746757+981427588
1124+982717123+987282795+992543706+996323652+998010641+998475716+999605017
1114+1002274391+1005046777+1005999426+1004542724+1001252237+998292435+998986763
1104+1003711695+1007223408+1004577446+998541634+995501623+997185937+1000466572
1094+1002292452+1002138907+1001059956+999862669+997745571+993097867+987201005
1084+984607461+987160323+991084389+992164313+989611694+984122563+976559205
1074+968681155+962530108+958348938+954721929+951210459+949289533+949799425
1064+950979198+950810512+949629339+948652671+948197691+948609800+951153358
1054+955793217+958699203+955762691+948075584+940736189+938337480+942238134
1044+949717514+956068504+959056765+959759607+958332458+953415610+946188165
1034+940113495+936611877+934672830+934093798+935983163+939887830+942759701
1024+942441543+940948112+942140108+946786474+951365402+952621918+951773133
1014+952143709+953828327+952723106+945939696+936358360+929094977+925239931
1004+921346574+913821466+902733381+891406860+882961758+877627692+873223532
994+868272630+863561684+860191414+857831624+855459185+852860837+850911574
984+850013776+848491946+843867411+836257533+828796153+824087457+822089303
974+821477616+821126378+820219337+818520915+816616287+814733672+811794180
964+807058484+801912200+798596173+797864021+798847135+800610319+802983792
954+806180510+810457942+815982769+822516919+829140702+834384465+837369929
944+839134573+841858676+846750289+853502199+861101374+868268373+874160248
934+879723568+886950768+895898343+903972444+908882057+910943453+911919878
924+912705238+912705238+911073890+907994292+904918769+903735894+905055956
914+906982111+906139954+901161687+894609659+890103642+888924112+890062960
904+892046763+893840048+895229130+896774979+898511529+900204356+902696287
894+907011847+912473917+916726053+918381238+918328759+918266612+919419629
884+921672455+923396964+923330985+922840310+924216986+926849388+927590114
874+925290586+922712791+922856607+925719174+929307812+932792283+937057309
864+942435523+947500201+950184960+949071834+944124276+937974202+934869854
854+936176781+939033511+940861883+942533549+945699254+950309255+955628909
844+960721012+964124119+964799596+963131214+960395192+957566983+955863088
834+957066213+961078149+964885398+966324222+966258000+966280926+966875586
824+967741276+968139217+967840883+968701526+973856081+984226548+996105709
814+1003200040+1002273905+996813172+992719264+991035802+989470007+989788772
804+995670614+1004494076+1008615591+1004649263+996058581+986815470+979451690
794+976120339+976447801+976650237+974065571+970743707+969254532+968231222
784+964587126+957446336+948677724+940412863+932884714+924820464+916085177
774+910199261+911807562+921379959+933565603+941131332+940872404+935096250
764+928699348+925685181+928008729+935502764+945857238+955885527+961900603
754+962457744+961617594+962515270+961741464+955726509+948345641+945818259
744+947986437+949696778+949012118+948572341+950497766+954560722+959174068
734+963189044+967831397+974578260+980759895+980551438+973125024+964601173
724+959846747+958561712+959211101+961249085+962743125+960994596+956236765
714+951393922+948693657+948944194+951937016+955281867+955566457+952449461
704+949245142+949156664+951901138+953760098+951475043+945965175+940495929
694+936335860+932704047+929943154+929781947+933105393+937627220+938136564
684+933677614+929660388+928874784+929016836+928071181+927665518+931284561
674+936890508+935399144+921244718+901859603+894996410+908397158+924672878
664+929899614+928705794+927949804+926657654+919815562+908291470+899431036
654+897983455+900685241+899672269+891632587+883366691+885819217+901151228
644+917428590+922056287+917605608+912363182+907625723+902330697+898713114
634+898328126+898851335+899697566+902268306+901398238+891929400+882309754
624+880917267+883257841+882473515+878906890+876827981+878508828+879268709
614+872192135+859701286+851691583+853973902+863254654+872218830+875527499
604+872689803+869096665+870128853+870682893
##END=
