##TITLE=<SNM>
##JCAMP-DX=4.24
##DATA TYPE=INFRARED SPECTRUM
##DATE=29/4/2025
##SAMPLING PROCEDURE=Instrument type and / or accessory
##ORIGIN=Admin
##XUNITS=1/CM
##YUNITS=ABSORBANCE
##RESOLUTION=4
##FIRSTX=4497.3318
##LASTX=599.83466
##DELTAX=-1.4281778
##MAXY=2.2394731
##MINY=0.52462459
##XFACTOR=1
##YFACTOR=2.0856719e-09
##NPOINTS=2730
##FIRSTY=0.54378259
##XYDATA=(X++(Y..Y))
4497+260722984+261442068+261200554+260297999+259161560+258199877+257726222
4487+257705560+257891804+258398466+259582545+261171204+262126572+261752512
4477+260396593+258820966+257525032+256849045+257070468+258152037+259627955
4467+260725156+260691834+259479206+258050613+257426009+257600564+257981282
4457+258510235+259550537+260780855+261167775+260369158+259273129+258719256
4447+258561705+258364487+258170041+258222711+258649725+259575315+260794287
4437+261392428+260567662+258818908+257640488+257944045+259169276+260111383
4427+260255475+259791394+258845800+257597078+256634966+256314090+256248932
4417+256022993+255835349+255848495+255765990+255659679+256116701+256949325
4407+256946067+255678655+254449509+254695281+256384507+258379376+259646560
4397+259909136+259600092+259321998+259206656+258936278+258389007+257896748
4387+257736796+257627771+257085815+256193119+255506900+255231207+254892642
4377+254037869+252995853+252568009+253122425+254358002+255804285+257051178
4367+257573872+257023771+255853268+255157161+255619098+256725044+257218732
4357+256504049+255386958+255038819+255619584+256319149+256384107+255701546
4347+254613547+253582362+252948613+252864736+253256657+253716908+253748287
4337+253262630+252536373+251838009+251537452+252055088+253192042+254243117
4327+255056823+256069176+257202585+257702817+257198270+256295572+255925399
4317+256313833+256778685+256615733+255956921+255367096+255100862+255173022
4307+255527019+255871443+255869014+255527791+255127240+254953342+255051165
4297+254965745+254216340+253320929+253544296+255309311+257572158+258922075
4287+258845571+257903893+257040490+256697438+256536714+256119587+255446372
4277+254691280+254019808+253734541+254047214+254713485+255270216+255561256
4267+255826718+256322178+256804806+256572665+255439227+254306475+254101456
4257+254584483+254939281+255024130+255259671+255843551+256696009+257611110
4247+258113485+257748485+256747449+255944689+255921998+256573894+257438755
4237+258026979+257894291+256924662+255681856+255107006+255549339+256293857
4227+256445321+256041369+255729238+255729496+255858926+256218439+256958328
4217+257517831+257036717+255572773+254262579+254199307+255538479+257507514
4207+258930591+259076940+258284640+257462446+257075498+257040861+257249510
4197+257557040+257547152+256989535+256399710+256564549+257499969+258263206
4187+258027836+257084786+256283626+255831291+255461861+255450001+256349441
4177+257861254+258928534+258826624+257653148+256207665+255551654+256068404
4167+257033831+257580417+257664208+257601393+257321384+256733275+256319606
4157+256670946+257615511+258414327+258777784+259021841+259200255+258931020
4147+258243516+257790952+258052271+258874235+259813856+260488644+260635164
4137+260285424+259900134+259912222+260139847+260065744+259623926+259245323
4127+259222746+259397959+259428537+259238407+259169362+259481864+259793194
4117+259606350+259162875+259033901+259345575+259903420+260409625+260372902
4107+259510871+258175585+256970902+256309689+256431804+257254969+258233227
4097+258829396+259040274+259220803+259519301+259635043+259223089+258487859
4087+258020406+258044640+258274380+258444420+258544101+258599942+258574365
4077+258514894+258540814+258549645+258170327+257330444+256669288+256881024
4067+257795582+258570507+258648182+258172985+257635744+257398060+257464647
4057+257618368+257772405+258100853+258724914+259299764+259173792+258092394
4047+256570522+255555855+255766419+257005510+258084278+257983111+257046291
4037+256332352+256171257+256269966+256700896+257737625+259058507+259954347
4027+260232698+260413140+260952810+261581415+261671265+261126022+260456122
4017+260073975+260018362+260193117+260387220+260335779+260119414+260130102
4007+260416712+260509591+260078547+259439568+259290962+260028507+261296291
3997+262261661+262377717+261767259+260905485+260201776+259896419+260090607
3987+260774311+261834160+262957339+263621095+263477432+262833252+262429672
3977+262592053+262926417+263011951+262960768+263005493+262993033+262679473
3967+262247629+262147862+262561045+263272641+263908277+264069086+263493979
3957+262480226+261894403+262279636+263205368+263980894+264585150+265279085
3947+265850762+265930952+265590072+265214127+265170602+265599503+266225164
3937+266589965+266690988+267035784+267824855+268453517+268246897+267393696
3927+266639005+266428498+266624373+266813617+266823677+266917985+267419502
3917+268161849+268578375+268434284+268050737+267732633+267425904+267094055
3907+267144095+268113837+269832327+271294471+272015298+272541907+272985926
3897+272683884+271527269+270293064+269775600+270000710+270124310+269716471
3887+269565407+270394888+271646783+272455316+273068574+273736988+273642166
3878+272375097+270839936+270042891+270386000+271914903+274106075+275554873
3868+275409125+274481964+273906800+273869391+273681090+272761502+271262292
3858+269935466+269966416+272638873+277332863+280279442+279536638+276996584
3848+275001800+274600420+275354426+276009294+276017696+276267955+277709151
3838+279587508+280218113+279562502+278968819+279102165+279549470+279865630
3828+280025668+280029669+280071936+280833601+282505194+283774292+283515689
3818+282636110+282178345+281697232+280606033+279441645+279159092+280486690
3808+283243396+285740641+286742676+287340760+288766038+289989154+289633099
3798+288618746+288403981+289100374+290143305+291309493+292546241+293809824
3788+295359360+297473315+299875594+302183451+304823415+308512254+312786917
3778+316249988+318648524+321286344+325528571+331899698+339804986+347656833
3768+354228064+359448007+363540855+366771729+369843166+373201213+376142191
3758+377738738+378452334+379641242+382450131+387511636+394098957+399769577
3748+403132882+405481663+408487456+411562722+413119688+413555591+414749415
3738+418462659+425239968+433574385+440588978+444490267+445941094+446866198
3728+448615009+451428728+454988451+458847959+462011017+462728157+460080020
3718+455655008+452470316+452536846+455671726+459457417+460728858+458802834
3708+455655694+453237325+452152527+451979258+452321309+453408679+455426211
3698+457943832+460384263+462555317+464543441+466266332+467047688+466040594
3688+463915751+462669115+463364793+465859751+469678421+473953198+477199218
3678+478149442+476531061+473298129+470580347+470102635+471557234+472527177
3668+471477730+469878839+469305247+469398612+468920900+467696269+466920658
3658+467452211+468395891+468423411+468266289+469976834+474469948+479702779
3648+481436501+478181335+472374998+466829865+463026485+461437711+462040710
3638+464002057+465434108+464697363+462360128+461067452+463133167+467718960
3628+470341834+468631517+465099258+462528853+461971637+463546778+466797486
3618+470731897+474745127+478880585+482597402+484462184+483723610+481297840
3608+478989068+478256124+479265962+480789720+481353681+480988281+481350366
3598+483664053+487365210+490887581+493340101+495008893+496343150+497077894
3588+496185399+493202583+489799096+488762224+491402502+496298111+500545224
3578+502324557+501819981+500218004+498850711+498636718+499658730+501631365
3568+504483922+507545328+508975150+507742574+505179743+503634579+504283075
3558+506302807+507864260+508016639+507544585+507793329+508946000+509919543
3548+509778767+508720690+507762007+507648781+508141011+508659418+509181713
3538+509862501+510438408+510808438+511330390+511820676+511314386+509442631
3528+507168325+505571549+504639616+503890239+503390579+503564792+504276445
3518+504475577+503359143+501384336+499756067+499427475+500322372+501233386
3508+500906452+499382322+497776630+496636533+495884471+496081889+497948156
3498+500797169+502856568+503313590+502973109+502702874+502436869+501953841
3488+501313519+500542252+499978748+500360552+501691608+502906522+503280325
3478+503134862+502679440+501293914+498441015+494701678+491477434+489792809
3468+489684841+490447820+491101460+491061736+490490002+489673067+488476500
3458+486919848+485530778+484402913+482817797+480658089+479260532+479857672
3448+481766578+482883984+482160328+480639513+479537883+478914079+478756127
3438+479586923+481268061+482772244+483454175+483132900+481495486+478826315
3428+476329071+474777106+473911645+473472913+473586740+473937251+473645354
3418+472356765+471027367+471217468+473461453+476510428+478528274+478820200
3408+477907328+476458158+474870499+473658328+473336596+473779328+474386185
3398+474653762+474421079+473860604+473176244+472526662+472150116+472108592
3388+472134284+472169121+472687557+473878466+475177543+476177635+477049669
3378+477736802+477923132+477948023+478601777+479893967+480875626+480872940
3368+480469988+480919236+482567395+484330953+485041749+484868680+484860620
3358+485446873+486179674+486725688+487195798+487547424+487732896+488307145
3348+489577273+490506063+490061844+489181294+489676725+491838948+494318902
3338+495671163+495341314+493790892+491919709+490166954+488596356+487422423
3328+486714199+486128862+485456932+484846274+484437607+484439664+485136857
3318+485997402+485557813+483306083+480715474+479396221+479435516+480124935
3308+481001598+481733485+481986744+481712394+481050010+480182377+479550171
3298+479545827+479996848+480524858+481022689+481356310+481268461+480995997
3288+481268804+482400670+483858728+484774543+484804093+484625308+485259686
3278+486536043+486866692+485321529+483212404+482606719+483797342+485177266
3268+485558556+485535236+485976769+486442878+486212653+485791582+485888691
3258+485768148+484270024+481873003+480166774+479854186+480543662+481821963
3248+483339520+484345985+484275454+483521391+482824027+482285786+481620315
3238+480993654+481025375+481919757+483047451+483630274+483449088+482608662
3228+481139974+479267333+477687476+477162781+477828652+478832631+478858409
3218+477508434+475726729+474434968+473615461+472952534+472419637+472037033
3208+471794633+471791546+471931265+471804549+471172286+470188741+469106972
3198+468101135+467258337+466551085+465897789+465262954+464717282+464395950
3188+464272806+463971078+463058292+461663707+460569793+460460081+461174392
3178+461852780+461723178+460657756+459168149+458010333+457435427+456863835
3168+455910411+455211532+455261087+455216019+454102614+452448682+451367085
3158+450809811+450041030+449109211+448510184+447975430+446960791+445859675
3148+445414656+445421372+445161968+444592206+444159704+444058737+444223662
3138+444367467+443897671+442548954+441003533+440216348+440372527+440885791
3128+441092783+440754674+440125698+439647185+439491520+439368120+438818991
3118+437781947+436704950+435970406+435524016+435216743+435024012+434760179
3108+434120371+433112563+432086807+431444170+431492782+432239357+433119421
3098+433313353+432538799+431328229+430440791+430108370+429917325+429362966
3088+428415658+427511931+427108236+427277847+427646820+427756903+427519218
3078+427133871+426696539+426222370+425818161+425521777+425218534+424902117
3068+424777716+424913062+424973077+424596502+423930374+423441716+423155592
3058+422536703+421395949+420379568+420136710+420494309+420805782+420698185
3048+420222302+419611958+419080005+418688884+418381040+418126866+417935021
3038+417705567+417216509+416390229+415518653+415044884+415041883+415074205
3028+414685828+413912618+413179474+412698246+412224078+411585499+411095327
3018+411104214+411529343+412144688+412803928+413077564+412343877+410605983
3008+408696734+407468759+407130080+407367364+407769230+408015145+407904690
2998+407479905+407072495+406956324+406994705+406847527+406409910+405809083
2988+405093172+404202162+403206785+402347383+401795625+401503099+401339232
2978+401264043+401233950+401135755+401021357+401182966+401734639+402270508
2968+402223697+401504499+400505921+399538437+398629852+397844924+397386788
2958+397321287+397411879+397247041+396592372+395680415+394969733+394663947
2948+394698098+394936897+395124999+395011915+394746024+394708586+394878683
2938+394846047+394394570+393677087+392908706+392166731+391489743+391036894
2928+390974851+391150349+391169125+390898976+390571985+390353676+390099645
2918+389593383+388828575+387971573+387189303+386679498+386717907+387312932
2908+387886782+387785015+387130747+386658350+386682070+386775520+386496312
2898+385924806+385372762+384921970+384417566+383765784+383132292+382855598
2888+383097827+383511610+383462770+382766177+381943641+381537945+381442180
2878+381209611+380852699+380844668+381253507+381402542+380737814+379640528
2868+378937334+378890323+379079767+379094685+378965483+378923931+378993004
2858+378952537+378644951+378181842+377785949+377480162+377055062+376386677
2848+375656333+375159188+375015526+375115435+375205399+375053020+374699365
2838+374455908+374483858+374555932+374412298+374107569+373814672+373577730
2828+373426066+373422437+373418979+373074498+372319206+371540022+371119523
2818+371012613+370915933+370653842+370302303+369992201+369640004+369064240
2808+368396740+367988301+367840838+367655852+367461234+367585378+368036055
2798+368436607+368479788+368080523+367274505+366261724+365433329+365154920
2788+365431700+365758920+365489799+364550035+363592439+363247243+363440431
2778+363605585+363357783+362779933+362176077+361749005+361496460+361277151
2768+360963192+360583445+360289319+360176835+360211843+360270257+360125252
2758+359523482+358519760+357620291+357310704+357521868+357782986+357790274
2748+357588083+357304388+357003174+356754859+356597365+356405977+355957957
2738+355184004+354315771+353712829+353494892+353446366+353358631+353277355
2728+353270182+353206453+352964796+352610227+352208475+351723447+351224015
2718+350959438+351076580+351349073+351316780+350763650+349988524+349470231
2708+349350060+349373665+349219715+348800359+348361113+348272178+348582737
2698+348876206+348746175+348265176+347781805+347437124+347117878+346769653
2688+346549430+346625905+346871620+346876078+346402881+345716862+345232806
2678+344993835+344768868+344483515+344227827+344008203+343789409+343602479
2668+343413092+343116165+342781258+342645426+342775628+342959071+342973360
2658+342805721+342573323+342322693+342019907+341737412+341651335+341743128
2648+341718465+341375984+340850661+340363575+339956850+339616056+339455990
2638+339587706+339860056+339920728+339615399+339186269+338952186+338945413
2628+339025317+339164150+339373485+339498600+339352080+338969647+338545747
2618+338187920+337881505+337628474+337501273+337550141+337689689+337749274
2608+337711408+337782368+338065977+338304690+338173745+337723068+337310056
2598+337167423+337182398+337062598+336674821+336224773+336053075+336238519
2588+336496465+336505582+336252979+336007064+335994776+336167388+336321052
2578+336383296+336432336+336453512+336317909+336059934+335896067+335841597
2568+335621659+335138517+334717104+334653860+334790035+334785663+334608993
2558+334509283+334643372+334922009+335157664+335255145+335266833+335285980
2548+335295583+335167210+334838875+334451041+334261196+334428236+334860509
2538+335262518+335398950+335331305+335299098+335362141+335329248+335076617
2528+334720333+334428293+334314666+334530517+335140003+335878577+336333913
2518+336391155+336284329+336262010+336380952+336562766+336738065+336939484
2508+337216263+337472609+337529508+337343779+337023046+336667905+336334941
2498+336091055+335994347+336063192+336276242+336545019+336736007+336796936
2488+336805138+336820084+336770215+336605119+336473002+336559537+336810910
2478+337021246+337136787+337271247+337486041+337716752+337848755+337792513
2468+337567145+337305341+337130386+337106209+337280792+337594952+337810460
2458+337777424+337702349+337878819+338228015+338366019+338104786+337685202
2448+337497158+337682515+338043486+338307577+338424890+338526371+338647428
2438+338668519+338544433+338438951+338582584+339042664+339589507+339824962
2428+339619142+339351565+339460391+339867629+340154583+340170815+340135693
2418+340245175+340485746+340783416+341123096+341524076+341975954+342415657
2408+342753480+342910545+342870622+342762167+342814294+343115193+343502427
2398+343792696+344005860+344277724+344660643+345080970+345433596+345658649
2388+345685226+345322884+344328364+342585354+340097112+336842204+332827402
2378+328284476+323624066+319072452+314429017+309360225+303975787+298931915
2368+294901538+292080846+290156708+288628406+287324013+286733331+287690728
2358+290673058+295478503+301684677+309261545+317953303+325994252+330715362
2348+330653748+326774750+322043094+319220601+318670358+319147298+319827116
2338+320593381+321406230+322142946+322809388+323627438+324878218+326694702
2328+328937030+331169212+332922253+334233018+335763778+338082781+340987093
2318+343780093+346015761+347774975+349399500+351122134+352922643+354722438
2308+356587048+358523332+360220617+361340166+361961369+362420477+362843605
2298+363141875+363335864+363617816+364139967+364880427+365692847+366404329
2288+366867695+367015272+366940283+366856178+366886299+366962946+367004870
2278+367068313+367212290+367332404+367275048+367069285+366881955+366758812
2268+366622466+366549991+366760641+367213719+367513247+367377700+366939883
2258+366448653+365974685+365554643+365326647+365335106+365410495+365411152
2248+365446218+365726398+366276984+366890614+367328860+367508074+367498443
2238+367431284+367451061+367652108+367971926+368244819+368424432+368609304
2228+368789747+368779916+368521998+368232759+368079037+367922057+367566716
2218+367067113+366595431+366204967+365894123+365717653+365693790+365736000
2208+365736743+365624374+365368399+365048438+364876741+365018288+365368885
2198+365618001+365628918+365650466+365982029+366545362+367018902+367287136
2188+367502044+367804001+368223385+368759711+369362824+369922127+370397611
2178+370868036+371399589+371966465+372489674+372882595+373128767+373351448
2168+373666094+373971366+374098710+374121229+374243801+374458366+374606086
2158+374712340+374975002+375444055+375926626+376223238+376328577+376379103
2148+376479413+376632620+376820664+377072867+377383483+377604849+377556237
2138+377268998+377014281+377055977+377452042+378081304+378760692+379320252
2128+379647386+379741209+379747496+379909277+380418997+381274684+382256715
2118+383041185+383438593+383596315+383869294+384452688+385262136+386134741
2108+386941674+387549159+387917675+388253039+388846550+389698979+390467389
2098+390906521+391211421+391731000+392497152+393268019+393863359+394214699
2088+394274770+394117819+393986645+394087297+394413317+394812639+395176096
2078+395552528+396055617+396643870+397097091+397295080+397432884+397828892
2068+398520826+399165492+399408063+399287549+399169807+399338104+399774492
2058+400291214+400762953+401220804+401773648+402476213+403275287+404051555
2048+404695707+405191824+405680824+406381875+407340843+408296954+408958710
2038+409385953+409895387+410647278+411560693+412543896+413558363+414549796
2028+415518853+416561955+417727029+418949517+420200754+421587023+423214949
2018+424988280+426628837+427949491+429036718+430131833+431442170+433043432
2008+434820593+436545627+438114425+439614949+441146024+442741685+444419994
1998+446118193+447689306+449090921+450417919+451735372+453080174+454512082
1988+455934559+457115294+458101898+459297007+460930906+462774740+464481798
1978+465938084+467232131+468510946+469920220+471597415+473655813+476076269
1968+478601005+480880027+482798707+484561179+486453224+488617047+491022870
1958+493617309+496420482+499326252+501939838+503936936+505518965+507228282
1948+509407594+512050273+515001710+518021106+520724085+522830695+524545727
1938+526387646+528620457+531073262+533487430+535791629+538012894+540208382
1928+542552991+545274202+548363272+551389812+553810782+555612177+557347557
1918+559381978+561457723+563234770+564880929+566786463+568991267+571140915
1908+572991808+574723701+576528926+578185544+579427379+580453563+581632526
1898+582960153+584184326+585222856+586235266+587439606+588871314+590266614
1888+591369273+592198154+592709303+592702901+592399059+592449185+593078876
1878+593841284+594296305+594406845+594389984+594599176+595292368+596198295
1868+596660975+596536603+596407259+596751397+597409266+597738829+597178126
1858+595856615+594563110+593888437+593624204+593298927+592918895+592709989
1848+592610594+592482735+592270400+591641452+590316569+588870000+588111136
1838+587902972+587245618+585672219+583943012+582881163+582291538+581482662
1828+580458078+579776718+579376910+578452407+576598713+574421859+572755638
1818+571774550+570998939+570030197+569085918+568693368+568966918+569345064
1808+569227265+568694340+568290759+568351402+568792306+569304312+569531508
1798+569324660+569036135+569309456+570386909+571634231+572172701+572106057
1788+572175330+572664188+573389387+574264793+575393973+576720799+578012017
1778+579170061+580365942+581962146+584246112+586829234+588597079+589042555
1768+588839021+588891834+589666987+591113842+592668493+593631806+594130837
1758+595017160+596657717+598665447+600794290+603231264+605777005+607619610
1748+608455578+608860073+609301892+609782576+610313501+611172617+612611699
1738+614637432+617250676+620444455+623548328+625420083+626089498+626364419
1728+626646543+627057668+627721710+628716001+630069862+631906294+634368302
1718+637138897+639174575+639807296+639618451+639395485+639431207+639850963
1708+640882006+642542110+644314413+645788874+647412285+649802047+652420891
1698+654082253+654734178+654939255+655097921+655581920+656551520+657837880
1688+659452945+661981426+665716647+669215585+670634890+670472452+669937869
1678+669685009+670399520+672518419+675371375+677969815+680122321+681716239
1668+682331241+682242877+682335242+683131029+684487863+685824234+686799949
1658+687736855+689332659+692139434+695539662+696925531+695623282+694297656
1648+694698093+696735715+698659310+699033513+698410738+698132443+699127478
1638+701408986+703914775+704884946+703793718+702124125+701225914+701402813
1628+702242496+703231757+704272002+705298015+705931078+706177422+706778363
1618+708305865+710307650+711683688+712160029+712259309+712430778+713006228
1608+714113060+715400848+716382451+717018429+717575417+718204479+719076284
1598+720560805+722799217+725331984+727495465+728986330+729977020+731040356
1588+732967209+736026157+739268577+741296940+741908055+742336841+743915670
1578+747061267+750916059+753496266+753989296+753633098+753341658+752959797
1568+752473454+752484828+753123321+753756956+754010444+754413225+755831215
1558+757825342+758563915+757638555+755810753+753831774+752183900+751082956
1548+750730530+751269457+752439675+753831774+755812754+759391138+763771140
1538+766247094+766733323+767185600+768455613+769884921+771080231+773105164
1528+777099475+782560360+787533472+791036982+793900970+796816113+799486398
1518+802170058+805718378+809934742+813798793+817017608+820491968+825798816
1508+834164327+843564081+847842973+846113137+843611520+843890672+847665731
1498+853671772+859657980+863999859+866917288+870157936+875329438+881907443
1488+887087575+889272775+889742028+890084623+891016271+893329329+897820786
1478+903892500+909661342+914505396+920135120+926281366+928570819+926037537
1468+923421665+924990034+930879876+937367231+941526495+943937633+945608026
1458+945751603+942787363+936593049+928655467+921399475+917323773+916958773
1448+918088353+918761197+919677298+921569115+923523860+925021184+926684375
1438+927967477+926411225+921737097+917505645+916327196+917746330+919794183
1428+921127411+922240644+924333308+927215071+929192222+929775159+930875075
1418+933632409+935900143+935376991+932343249+928707479+926574292+926866132
1408+928248914+928071673+925329656+922417771+922724415+927077096+933130920
1398+937251832+937685077+935889626+934430426+934138585+933809251+932685958
1388+931830328+932121368+932260487+931177318+930821062+933922706+940275458
1378+946742350+950730431+952435632+953249938+953596362+953501540+954057328
1368+956896967+962239024+968261812+972745152+975049580+975899037+975899951
1358+975352623+975099763+976542617+980572250+986404822+991376392+993223798
1348+992558727+991901887+993359144+997457479+1002928823+1007109578+1007904965
1338+1006285384+1005090132+1005850082+1008444064+1012547315+1017740879
1330+1022890205+1026849993+1029509819+1031485941+1033260415+1034822726
1321+1035487453+1034971332+1035261686+1038862876+1044432643+1047320637
1312+1045642528+1041873298+1038110928+1035149202+1034376335+1036031810
1304+1037917282+1038641567+1039422093+1040767667+1041441883+1042042481
1295+1044804159+1049406042+1052359765+1051070204+1046784854+1042239556
1287+1038255876+1033748644+1028153957+1022648548+1018706249+1016712637
1278+1016902625+1018928244+1019656301+1015735493+1009107877+1005192785
1270+1006651871+1011817657+1016443088+1016137645+1010456080+1004007249
1261+1000264311+997680160+993836170+990219548+989483947+990726525+990787339
1251+987972391+983371880+979015884+975442587+971663298+966649090+960149618
1241+952903228+946684222+942624239+938919024+932350736+922842043+913638563
1231+906785294+901324696+895707260+889638347+883517193+878109521+874496214
1221+872630746+870875019+868134717+865114178+862786259+861293394+860588599
1211+860775958+861760361+863199671+864733974+866073032+867081898+867898490
1201+868962283+870787513+873447681+876517203+879471269+881839255+883284452
1191+884284059+886426620+890944997+896987904+902365912+906087816+908759244
1181+910812813+912667821+915846283+921049049+926195403+929005149+930228637
1171+931863307+934610411+939014418+945947420+954509663+962229650+968202141
1161+973500873+978752737+983480363+986554000+986970555+985622810+985270384
1151+987145797+989186277+989476745+989856149+993956427+1002168187+1009392287
1141+1010070618+1005596880+1002467686+1004235988+1008003617+1008485559
1133+1004733934+1001149319+1002679050+1010559990+1020980727+1027349425
1124+1027045925+1025081120+1027959054+1035836221+1042153136+1040867004
1115+1033518190+1026261169+1023197362+1024205485+1025422800+1024649247
1107+1025755564+1030905690+1034420802+1031370485+1027423271+1030769429
1098+1039843564+1046784168+1050106435+1055854530+1066148608+1073741823
1090+1069848793+1056296805+1043037915+1036373948+1035975682+1039667065
1081+1045408416+1049729089+1049932565+1046769307+1042577464+1037005067
1073+1028323597+1018422754+1011488666+1009276031+1010837427+1015185192
1064+1021005761+1025381533+1026349190+1025291341+1024433196+1024741726
1055+1026250423+1027594968+1027543185+1026232248+1023490346+1018331875
1047+1011622411+1007070712+1006574367+1007809400+1007540765+1005327559
1038+1002881384+1001671385+1001814276+1002235289+1001721454+1000345587
1030+999906284+1001069415+1001577649+1000132623+998565168+998257782+997684733
1020+994078056+987561094+982294941+982295970+987434893+993954713+998772074
1010+1002368463+1006419130+1010288155+1010936650+1006781387+1000095471
1001+993776156+987467815+979133855+969105439+959824513+953026457+948079007
991+942737008+935754623+928430500+922616790+918392196+915278092+913572205
981+912590317+909864876+904443086+898417269+894277781+892887968+893548295
971+894822538+895086600+893796982+892540972+893043148+893901864+891369725
961+884114476+874693574+865825717+858571954+854320839+854737737+858820755
951+863166063+866354127+870395820+876874716+884598818+891367268+895744983
941+897942186+900193858+904539509+909950896+913604327+915112110+916931338
931+920562935+925070681+929458856+934215804+939890053+945718452+950440420
921+953385113+953853223+951138813+946406100+942836689+942773474+945851741
911+950571079+956223323+961894143+965134905+963936337+959782675+956670914
901+956907770+958747631+958313758+954050583+948904230+947633931+951748899
891+957992253+962068927+962503429+960503644+958344279+957887200+958667727
881+958813418+957743967+956344552+955524530+955987611+958249743+961370591
871+963100255+963501149+966057979+973197144+983020712+990124783+989933424
861+984470082+980719828+982466753+987198838+990951949+993744949+997760636
851+1001678244+1001232310+996275373+991546603+990244926+991920977+995071775
841+998083227+999002986+996772861+992774435+989988408+991092782+995621505
831+998321225+995787601+992514145+994542165+1002574683+1015261782+1032451654
821+1049836543+1055151736+1040928505+1019004376+1006207080+1008062145
813+1017441837+1022582818+1021040055+1020630473+1024881187+1028596804
804+1026612223+1021332581+1019717115+1024856381+1034021737+1041688341
795+1044240369+1042202519+1039069782+1037590920+1034753224+1027205162
787+1020066912+1019508038+1023241259+1022979254+1015797565+1007105920
778+1000507568+995322463+991955499+991427604+992757059+993605373+991008420
768+983477277+974434350+970243421+973329175+979719364+983816556+983784663
758+981791051+981441255+985894988+995424201+1006187076+1013788635+1018327760
748+1022439470+1025166283+1022575845+1013839161+1003389275+997869233+1001152977
738+1012074403+1025901999+1032425247+1021770513+1001387890+989539045+994997129
728+1011923854+1027231340+1033265559+1032465714+1030408430+1030664376
720+1033559800+1036609775+1037064281+1033821919+1028602863+1026005452
711+1024596206+1016005271+999614444+986152763+984295412+993596571+1005680442
701+1010447163+1006542702+1003089661+1008090838+1018918985+1026548665
693+1025040425+1015668849+1004317607+994631558+989512753+989150040+989001776
683+985970663+984685447+988400720+989717830+981989041+969227982+960279592
673+959136694+957744595+945690960+930640220+930117525+943818119+962180039
663+979278232+989864493+991982363+988421525+984446990+985514899+990324945
653+992314098+988260116+979702789+972469773+972884614+980717542+992823361
643+1004705699+1004940611+985603948+962792525+950460425+947271446+946948399
633+947104092+950786844+956055569+959041700+962993830+977703804+1006358430
623+1026064780+1002016723+953164375+920144951+914264825+926352125+940292604
613+944137337+941350339+947313227+966847765+983946873+984656068+974802322
603+979828418+1005408835+1027992548
##END=
