##TITLE=<SNM>
##JCAMP-DX=4.24
##DATA TYPE=INFRARED SPECTRUM
##DATE=29/4/2025
##SAMPLING PROCEDURE=Instrument type and / or accessory
##ORIGIN=Admin
##XUNITS=1/CM
##YUNITS=ABSORBANCE
##RESOLUTION=4
##FIRSTX=4497.3318
##LASTX=599.83466
##DELTAX=-1.4281778
##MAXY=2.110544
##MINY=0.37866804
##XFACTOR=1
##YFACTOR=1.9655972e-09
##NPOINTS=2730
##FIRSTY=0.39228016
##XYDATA=(X++(Y..Y))
4497+199573012+199929712+200241109+199921009+198913830+197860437+197311453
4487+197104386+196811972+196590031+197217494+199072743+201306464+202613911
4477+202659685+202097313+201477795+200818522+200068505+199462814+199356726
4467+199781367+200206100+200082605+199568600+199201301+199045618+198774567
4457+198529216+199016264+200468887+201940629+202118509+200771156+199036035
4447+198246946+198636533+199172918+198725079+197384412+196258454+196033951
4437+196355748+196580070+196562573+196677227+197316820+198362980+199244649
4427+199590311+199500689+199157513+198685203+198332869+198263427+198302681
4417+198208101+197902769+197303417+196301878+195035368+193846655+192994962
4407+192647828+192948248+193803110+194798144+195526859+195848550+195877176
4397+195961780+196475194+197243967+197549086+197181196+196878775+197191582
4387+197599454+197339320+196569426+196078678+196216516+196579251+196520756
4377+195769662+194670101+193850445+193621606+193843319+194303561+194892982
4367+195443180+195755865+195801169+195687500+195570662+195731545+196463610
4357+197620090+198570381+198937543+198963212+198934541+198834563+198614245
4347+198242685+197552846+196591380+195925042+196060272+196826922+197641316
4337+197998745+197706543+197116970+196927915+197309527+197666849+197617300
4327+197542809+197849672+198315220+198500257+198368560+198179976+198052069
4317+197948392+197985978+198391879+199111845+199764553+200105515+200310065
4307+200546486+200522575+199918356+199025331+198510840+198759997+199642074
4297+200559313+200784332+200298845+199995000+200423916+200926642+200684824
4287+199936292+199488893+199653961+200153821+200648071+201038477+201392539
4277+201647639+201492941+200704307+199507421+198405298+197686848+197330769
4267+197369568+197990102+199072060+199933503+200014816+199678069+199730696
4257+200276770+200761331+201022723+201428063+202061864+202615791+202963334
4247+203185017+203259553+203205759+203193129+203292682+203467393+203782217
4237+204286155+204768882+204823086+204178035+203064373+202202006+202200384
4227+202992596+203957656+204447145+204240896+203731136+203533196+203760110
4217+203938324+203791784+203713927+204154701+204863113+205194569+204973447
4207+204626450+204618232+205048574+205669123+206094917+206216273+206379735
4197+206807590+207098139+206768199+206006356+205447213+205408504+205673248
4187+205934837+206155807+206448070+206875698+207404714+207830295+207897402
4177+207706619+207665363+207903861+208233983+208644508+209193856+209552498
4167+209314758+208664310+208316251+208771338+209772892+210628922+211017659
4157+211113862+211005257+210650603+210319572+210351488+210608044+210704231
4147+210581101+210497301+210624009+210819553+210790730+210482381+210192894
4137+210256074+210748413+211419103+211780549+211509028+210884674+210507550
4127+210547062+210612289+210386588+210118888+210294206+210978011+211798137
4117+212471783+212927158+213053608+212917742+213012292+213660011+214415941
4107+214641021+214394275+214243717+214477059+214921244+215349191+215752575
4097+216261274+216901155+217362791+217128387+216091582+214957436+214677273
4087+215479796+216708158+217601304+217936278+217860468+217490046+216948794
4077+216554052+216535842+216669237+216589864+216335886+216160038+216052039
4067+215904437+215886546+216292083+217197693+218322453+219039508+218781557
4057+217798758+217173494+217646547+218712282+219274958+219004014+218544212
4047+218521590+218926794+219401212+219630809+219500841+219219374+219195843
4037+219532605+219882074+220071659+220464702+221305085+222087594+222051372
4027+221110117+219980369+219501281+219921540+220729021+221168460+220993688
4017+220599386+220362480+220200384+219924982+219634721+219571284+219889260
4007+220601903+221457902+221980854+222007327+222024490+222550383+223356257
3997+223751787+223559397+223343960+223603548+224138584+224430467+224391182
3987+224411423+224704216+224927324+224661550+224075252+223791360+224169999
3977+224992642+225792421+226300150+226558237+226644978+226394487+225660709
3967+224838339+224664052+225452687+226846814+228207131+229028622+229192704
3957+228952342+228551095+228055830+227710182+227981855+228914588+229841379
3947+230154580+230002687+229802837+229530119+228933238+228096358+227369887
3937+227114893+227784703+229674521+232189558+233867594+233835299+232874713
3927+232431316+233069498+234065397+234367742+233945633+233754455+234436168
3917+235424031+235374375+233661452+231221164+229592495+229445576+230449374
3907+232525532+236351792+241965995+247424941+250218670+249595058+246285776
3897+241657101+237762006+236555250+238348031+240896152+241241238+239753531
3887+239442089+241330042+243275868+243885698+244489387+245222331+244094235
3878+241487105+240423341+242213257+245596043+249350905+252575416+253282100
3868+251204759+249327722+249541718+249984296+248142193+244683308+242092825
3858+242295723+246808531+256264398+265571724+265297656+256852713+247872158
3848+242107199+240303819+242037150+246107244+250926370+255460238+259174283
3838+261077019+260454165+258198641+255538322+252796917+250192121+248577190
3828+248454196+249265649+250993871+255159182+261723374+266082925+265086420
3818+262258864+260511296+258067793+253475491+248956451+247223923+249163002
3808+253367826+256865752+258738073+261127387+264578069+266090991+264414350
3798+261942586+259733942+256686022+252768594+249576090+248074358+248155975
3788+249816377+252918622+255999397+257581700+258532386+260511114+262778162
3778+263196996+261861621+260867996+261809069+264992870+269532030+273810616
3768+276980377+279246606+280636352+281586280+283836740+288512085+293843366
3758+296938743+298161131+300795705+307512578+318130231+328147713+332738696
3748+334056362+337040510+342273027+345029806+343163641+341197497+344025174
3738+353409189+366424525+376334236+378946097+376224767+372460141+370675213
3728+372035970+375946454+380454774+384067325+386821739+389246107+391821216
3718+395254249+400472938+408656337+420481035+433422927+441515172+442510798
3708+440547263+439812453+441736173+446146547+451565465+455391375+456440492
3698+456409956+457721861+461292413+466885299+474526749+483572379+490231667
3688+490279761+484994966+478942763+475323814+474779833+476074240+478544276
3678+483713325+492189168+499406204+501416135+501248899+501488003+500078122
3668+495803478+491864672+491208917+493293960+495778703+497964453+501173908
3658+505593500+508993026+510530995+513619245+522047905+535036071+544856477
3648+543922136+535663958+527657529+523081769+521432996+521297690+522471469
3638+525795033+530836509+535326635+538301959+542142182+549476875+558521898
3628+563217135+561597898+557506896+554622786+555051021+559036799+563908764
3618+566482235+567127225+567572502+567516706+566693593+567056873+569758857
3608+572547992+573180792+572722476+573076963+574557438+576742642+579589999
3598+582845940+585399883+586129719+585226127+584645969+587035495+593249658
3588+600086857+602637524+600611643+597297661+594659418+593062438+592494471
3578+592926102+594158406+595813911+597772777+600470091+604349735+608878554
3568+612223042+612551753+610405910+608206333+607308260+607037891+605918028
3558+603494054+601478968+602779986+608642816+616749556+622804761+624288633
3548+621900137+618073075+615266049+614441602+614704025+614835085+614175721
3538+612416387+610131842+608987417+609993020+612420147+615345558+618973150
3528+623421853+627404660+629280559+628986659+627984757+627098024+625426447
3518+622235884+618706784+616653975+617119812+620459265+625222428+627609225
3508+625879487+623485291+623657895+624876007+624927497+625064683+626430473
3498+627338917+626829475+626486572+627466581+629358855+632405683+637038028
3488+640947390+640661314+636480310+632061203+629463837+627783284+626592827
3478+627784073+632297427+637085515+637891708+635038589+633193378+634935185
3468+637758586+638284524+636843773+635943334+636484798+637438607+637630982
3458+636617981+634785263+632698855+629979829+625963969+621745546+620144018
3448+623083196+629406464+635166253+636741157+634441572+632016930+632170066
3438+633891192+634450426+632730574+629656879+626489119+624381909+624586353
3428+627162735+630290528+632088919+632281658+631545878+630344505+628836071
3418+627325817+626493365+627190815+629651967+632587748+633742484+631937239
3408+628293272+624921978+623052629+623091262+625313036+629214817+633067837
3398+635302650+635621294+634381227+632473124+631547334+632537714+634607989
3388+636569038+638139636+639394380+640290270+640808264+640971589+640512787
3378+638834479+635884142+632417206+629566271+628215643+628397405+629896074
3368+632911183+637020501+640782974+643530868+645646933+646969602+646907802
3358+645764954+644234687+642707573+642311482+643949581+645743727+644782034
3348+641533916+639267747+639223171+640008318+641147649+643796142+648338789
3338+653102982+655845418+656298337+655899577+655289702+653319617+649467810
3328+645838156+644494381+644398254+643158066+640901116+640204514+642036929
3318+644154510+644296911+643252676+643549972+646150007+649392909+650904072
3308+650308510+649646903+650642862+652050257+651064850+647745835+645576885
3298+646662724+649165601+650334832+649879487+649325772+650094241+652810538
3288+656838224+660315834+661994324+662270515+661719104+660406806+658966055
3278+658566931+659523773+661013345+661766713+660724904+658007940+655465399
3268+655479287+658805580+663463458+665988775+664336970+659711842+655122920
3258+652649154+652563762+653906263+655672633+657685596+659759753+660800168
3248+660087191+658401544+656653673+654801365+652632840+650509376+649325833
3238+650038870+652522279+655287761+657391697+659324969+661235377+662196646
3228+661903777+661184554+660467939+659546697+658496580+657627192+656988024
3218+656710560+657325469+658591675+658713820+656264738+652546963+650561776
3208+651765757+654195736+654118106+650409246+646334498+645488278+647212376
3198+647843720+645826936+643009782+641428510+641473207+642377588+643067154
3188+643349288+644333421+646387019+647684701+646663634+644460843+643136960
3178+642916263+642385230+640383547+636771663+632480705+629579128+629653847
3168+631555279+632343276+630839512+628178830+624867880+620605548+616868729
3158+615991155+617711492+619278027+619045988+617930977+617166996+616711106
3148+616156481+615655590+615427797+615515311+616136406+617135944+617240865
3138+615063424+611039377+607434225+606022464+606240129+606191672+605332413
3128+604962036+605965576+607591303+608812509+609550957+609934009+609697664
3118+608734819+607173136+604714653+601050794+597278496+595623052+597037967
3108+599825283+601417592+601083665+599876894+598677946+597671737+597077327
3098+597066896+597276252+597094976+596278656+595229508+594764218+595194757
3088+595620384+594829232+592980564+591515796+591218258+591475647+591680880
3078+591892056+591716359+590237642+587770548+586096060+586187881+587202398
3068+588177980+589099888+589585738+588372963+585257603+582042356+580685542
3058+581410405+582793055+583159429+582134844+581035601+581280316+582642649
3048+583591303+583044926+581061377+578339682+575949125+575024002+575779250
3038+576856296+576379422+573827481+570572509+568446741+568197903+569406918
3028+570856038+571023123+569543679+568067874+568503992+570667363+572364836
3018+571711780+569012707+566213444+564673473+563809665+562263144+559994611
3008+558272090+557931188+558590067+559214618+558924418+557791213+556983929
2998+557453283+558608261+558910530+557630375+555503575+553739329+552828761
2988+552442374+552164728+551880107+551540843+551107150+550652413+550175902
2978+549538008+548749343+547873891+546798180+545586193+544560395+543838442
2968+543322450+542860131+542189184+541339507+540913032+541142887+541201473
2958+540368171+539086318+538053727+537216240+536249574+535288972+534729678
2948+534705055+535060087+535601794+536075697+536038216+535170345+533672707
2938+532043705+530694714+529873421+529493462+529180276+528834765+528726448
2928+528925494+529123388+528851080+527701863+525924153+524750980+525115595
2918+526106217+525959935+524424209+522670030+521233707+519643156+517901955
2908+516764383+516345488+515742042+514441873+513079297+512368383+512261885
2898+512485069+512974316+513398184+513010280+511417727+509167449+507453783
2888+507263500+508421905+509445277+508947904+507193482+505558688+504863239
2878+505027504+505733506+506526537+506708420+505976097+504903812+504239658
2868+504019445+503652071+502625454+501015132+499423155+498404241+497906140
2858+497408433+496666073+495976628+495573016+495197515+494565958+493868568
2848+493404733+493001304+492213367+491021272+490056819+489981677+490577603
2838+490717123+489649629+488002433+486898521+486505735+486145699+485468019
2828+484796617+484490163+484472363+484354737+483872040+483192026+482580180
2818+481772957+480241143+478225329+476798254+476592901+477071716+477304361
2808+476952997+476214549+475280754+474314572+473679225+473671099+474020036
2798+474007330+473238649+472056137+471023516+470301958+469741359+469255418
2788+468824485+468334025+467674267+466972693+466572811+466673577+466972511
2778+466838540+465975945+464725143+463623626+462862890+462220083+461284529
2768+459890871+458574721+458181662+458799664+459515400+459322813+457891402
2758+455596395+453254599+451666262+451100963+451285211+451792045+452200600
2748+452145713+451560947+450705296+449854831+449153438+448687693+448410684
2738+447985694+447001288+445487517+444044128+443273142+443181776+443247336
2728+442946705+442129930+440981835+439783797+438795510+438252954+438177841
2718+438170927+437728198+436772751+435610010+434537422+433775776+433479329
2708+433536975+433602536+433433783+433007489+432397068+431730548+431117732
2698+430510586+429809769+429140277+428788398+428750584+428541895+427686123
2688+426299956+424949904+424071995+423801597+424112720+424740123+425196741
2678+425206565+424922279+424550719+424043794+423280874+422321880+421421865
2668+420887709+420806168+420895745+420798890+420440916+419958887+419432282
2658+418840783+418127655+417236252+416258397+415457602+414979151+414715666
2648+414538089+414400510+414197673+413798640+413268093+412909451+413026623
2638+413528242+413772986+413156591+411934901+410988491+410676670+410475531
2628+409907139+409257176+409005972+409020134+408756770+407964891+406826045
2618+405702362+405040117+405155985+405809557+406260989+405992622+405211569
2608+404542168+404372596+404568944+404739758+404656064+404367684+404057713
2598+403884805+403839229+403735005+403458754+403100719+402751509+402410213
2588+402156553+402154097+402442326+402860705+403129861+402999619+402467434
2578+401848189+401536338+401702634+402125987+402259958+401689959+400635778
2568+399777489+399483407+399441833+399212433+398922263+399051534+399621503
2558+400111992+400247419+400304944+400485068+400506628+400057076+399300463
2548+398725036+398644011+398964322+399386037+399696827+399843019+399894570
2538+399989938+400107474+399955824+399397348+398784441+398475258+398291283
2528+397878604+397353848+397182579+397540674+398090326+398372126+398271299
2518+398030770+397913507+398042566+398498971+399265318+400044552+400426815
2508+400303276+399903273+399434919+398934059+398443296+398076832+397845490
2498+397615392+397353272+397277675+397634102+398411911+399379366+400257608
2488+400772023+400719654+400183163+399572105+399260708+399244940+399255857
2478+399115336+398897458+398802392+398905403+399038768+399031823+399017177
2468+399236904+399634026+399955703+400130278+400215943+400149018+399850054
2458+399407143+398975724+398700110+398783137+399336852+400064232+400344122
2448+399835165+398915470+398331886+398396021+398744383+398951040+399066484
2438+399350225+399774578+400111325+400338360+400626195+400957848+401053854
2428+400748401+400191744+399580505+398971054+398476198+398356206+398717334
2418+399279297+399589814+399470702+399253127+399491049+400334327+401307817
2408+401865959+401967362+401892068+401780021+401630190+401519872+401588192
2398+401931125+402546701+403229687+403658225+403811846+404081244+404686692
2388+405233068+405122356+404204238+402746900+400947417+398767065+396172185
2378+393302631+390400358+387709684+385425200+383580959+381980856+380366198
2368+378660234+377065953+375992940+375747801+376153869+376730722+377437845
2358+378827652+381285680+384820177+389552470+395160791+400019656+402219021
2348+401166962+397898527+394350778+391903485+390378464+389172754+388559240
2338+388969674+389924636+390479109+390331128+390033165+390324457+391441227
2328+392935772+394112007+394630607+394676275+394703931+395148995+396187074
2318+397596713+398908405+399761357+400191805+400612913+401402791+402502155
2308+403604339+404661917+405845460+407066605+408009285+408628136+409176150
2298+409778171+410386288+411059722+411866096+412586774+412905903+412833338
2288+412654336+412565002+412568550+412601936+412604938+412535648+412380026
2278+412124001+411763389+411358685+411003835+410734528+410521714+410344714
2268+410244766+410296589+410501306+410737954+410880022+410960380+411200667
2258+411836833+412820936+413758794+414350566+414769885+415261740+415573045
2248+415299857+414656140+414331189+414593794+414957500+414775495+413912203
2238+412750857+411724422+411001591+410569565+410416035+410504369+410654897
2228+410629728+410384104+410134265+410118527+410356600+410685221+410937789
2218+411025668+410979666+411035432+411518462+412460596+413456677+414065521
2208+414223084+414177325+414248496+414707176+415588571+416572613+417302510
2198+417800551+418350415+419097323+419966620+420824393+421559172+422123410
2188+422579997+423032279+423494901+423885897+424146137+424319803+424452470
2178+424460263+424300517+424249481+424663464+425421047+425991531+426138208
2168+426183694+426515862+427152422+427813514+428201994+428249876+428237200
2158+428577556+429405976+430487509+431512034+432321562+432919641+433446307
2148+434074255+434801665+435478223+436146198+437134607+438647347+440451773
2138+442143636+443581385+444950480+446547157+448587958+451082768+453766588
2128+456218794+458198401+459947001+462097301+465083603+468550417+471524861
2118+473349938+474284491+475054658+476117088+477526029+479215042+481234040
2108+483886838+487659742+492834765+499173559+506054272+512863027+519235541
2098+525037420+530125473+534080624+536294090+536344306+534171960+530021705
2088+524372052+517747667+510451546+502583728+494375433+486382559+479291701
2078+473567239+469244532+466016336+463546027+461675101+460292148+459157456
2068+458054150+457030081+456269223+455772274+455364326+454939912+454495697
2058+454005571+453481210+453111470+453150133+453650933+454435534+455293489
2048+456101562+456853777+457759796+459217255+461503650+464614976+468567216
2038+473635074+480077636+487829375+496606365+506107188+516002161+525853377
2028+535037162+542767643+548481037+552251576+554593736+555938420+556506388
2018+556427546+555609588+553612211+550053757+545191618+539820218+534564776
2008+529556778+524813508+520504477+516702947+513233222+509882972+506548765
1998+503310138+500634172+499143993+498803759+498706237+498103215+497251628
1988+496820088+497038754+497742027+498701324+499727638+500809232+502109674
1978+503557642+504721657+505409009+506073467+507370725+509547468+512311313
1968+515033311+517140036+518604136+519955735+521614515+523412300+524986173
1958+526415461+528081822+530073498+532173006+534280883+536450015+538684222
1948+541076114+543974112+547622688+551590938+554863437+556830126+557949868
1938+559062574+560543838+562380619+564491226+566708148+568839618+570862345
1928+572905451+575237665+578176358+581541101+584557241+586879327+588865484
1918+590355481+590561381+589671737+589006794+589436484+590760124+592343215
1908+593744666+594854947+595777947+596635629+597474450+598321822+599248400
1898+600350432+601536038+602398693+602822258+603483441+604797195+605727048
1888+604973680+603005475+601329289+600562700+600338909+600232594+600039733
1878+599623628+598968692+598361485+598492909+600148050+603294038+606233882
1868+606436992+603341282+599047655+595615532+593351122+591497117+589529760
1858+587494903+585583403+583947245+582726403+581900683+581263516+580855295
1848+581314946+583180413+585420321+585433239+582170384+577709915+574236065
1838+572095741+570526053+569135883+568745068+570381832+573212511+574453063
1828+572830308+570011698+567245670+564124791+560829732+558635674+558033683
1818+558123260+557894557+557383962+557383417+558331646+559669538+560343215
1808+559891024+558835327+558319153+559429858+562181998+565035419+566289921
1798+566142728+566445361+568793161+573104922+576892503+577137520+574589703
1788+572893928+574031197+577031447+580013624+582495517+584845198+586764460
1778+588059656+589958541+594219539+600995726+607397594+609613667+607567347
1768+603930658+600668531+599050445+600023601+603072855+606045753+607626600
1758+608351524+608749314+609367255+611845812+617411831+624524492+629480151
1748+630624334+629809166+629420837+630670669+633605298+637044214+639122859
1738+639783315+641713797+646942129+652805808+654131328+651303257+647934025
1728+645817475+645701698+647730248+650921600+654544582+659668964+667579690
1718+676623501+681774324+680555848+676190111+672568281+671684399+674120987
1708+679353079+685619399+690823593+695311233+701898441+711468917+719588212
1698+722114802+720749315+717310096+712931137+710395632+711454786+715202946
1688+720565128+728997123+741443764+751451269+751291038+745867177+743065791
1678+745616338+752570344+760057809+764090165+765656638+768265285+771763394
1668+772787373+771317632+770894553+773034877+775459397+775540725+774434387
1658+775244339+779992643+789563120+801923944+808695037+807618234+807118799
1648+810669671+814639013+813867754+809055588+804082524+801430271+802903165
1638+809183131+816942905+818285649+810946650+802430415+798013309+797571004
1628+798804642+800138774+801723018+803074253+801925400+798211931+795278151
1618+794604353+792603822+785709372+777376476+772459935+771471496+772089498
1608+772137227+771066186+769255786+767079256+764930623+763398900+762909593
1598+763346258+764212613+764956095+765157325+764970590+765051373+765399613
1588+765054890+763602616+761950447+760913126+760290515+760171038+761823754
1578+766106100+770937491+772024119+769508627+767863129+768841076+769998905
1568+768683452+766043693+764491472+765212999+769449556+778818561+791007752
1558+795216290+788046135+778833298+772042799+767586393+765315009+765438549
1548+767950280+772780216+779769459+788251731+797288506+804879679+806092758
1538+800205487+794448548+793566607+796611555+798997867+798280584+797462930
1528+799831472+805127426+811376158+818616847+827598554+835904704+840725664
1518+843023370+843505460+841379630+838508014+838962813+845211424+857244507
1508+872567010+883108884+881014106+872868127+867890877+868418029+872941571
1498+878091667+880758172+881245053+882533275+886596985+893312464+900756990
1488+906036508+907493634+905726598+902791787+901065506+902062072+906193162
1478+913443858+923359967+934429477+944133258+949598965+949480035+945921399
1468+942129634+939254015+936789649+935029163+936042468+941396098+950212297
1458+958611785+960743012+956038495+950307696+946998991+946143492+946884488
1448+948393589+949997785+951581362+953371384+955204102+957214336+960678300
1438+966194649+970734081+970529091+968019422+967766945+970032507+972277024
1428+973452865+974845340+977450590+980840807+983816070+985283566+985323715
1418+985816722+988427127+992272203+995268450+996477344+996431676+995392657
1408+992941937+989645483+987181056+986703818+988319114+991606107+995581272
1398+999276789+1002799763+1005758288+1005428363+1000806086+996004109+994951140
1388+996382188+996283574+994931430+996141355+1000034827+1003457186+1005140104
1378+1006367193+1008549303+1012666626+1018842035+1025043523+1028620413
1370+1029626318+1030410132+1032040346+1033154205+1033138073+1033974892
1361+1036848267+1039340773+1038999690+1037444921+1037522914+1038706033
1352+1038295932+1036338704+1035912592+1038389087+1041679840+1043972209
1344+1046717617+1051621846+1056831862+1059117074+1058208205+1056041378
1335+1053879160+1052537265+1053152113+1056162310+1060686520+1064810696
1327+1066157321+1064324543+1062145707+1062612211+1065570250+1068715570
1318+1070777962+1072157215+1073236626+1073741823+1073386063+1071879933
1310+1069061142+1065442162+1061518002+1057140075+1052840990+1050986014
1301+1053118150+1057100047+1059595222+1060048625+1059365609+1057163363
1293+1053195658+1048829497+1045333875+1042614424+1039634794+1034735416
1284+1026800977+1017180951+1008677634+1002611573+998216543+993884466+988684578
1274+982995322+977917518+974308970+971821498+968867825+963621663+955479929
1264+945962761+937568125+931541971+927201949+923178448+918552470+913052012
1254+907208225+901964246+897485522+892768756+886599715+878772985+870345054
1244+862404731+854989862+847586516+840038463+832674659+825880642+819968445
1234+815320453+812217283+810337139+808673204+806339291+803452028+800906880
1224+799465401+799497484+801193138+804154573+806944739+808129313+807819221
1214+807251072+807505429+809049220+811685887+815065247+819360571+824808388
1204+830696872+835757088+839445752+841973616+843546458+844713808+846806402
1194+850686168+855597190+860066938+863419613+865857779+867813066+869871940
1184+872702679+876547754+881327049+887170593+893883949+900616651+907179600
1174+914523693+922727894+930209537+935863192+940082950+943416400+946098794
1164+948903637+952303314+955130900+956015995+955503521+955228240+956052081
1154+958123994+961478246+965240536+968121977+969981441+970487851+968075157
1144+962299964+955526870+950954020+950792879+955670242+963456094+970306756
1134+974821020+978767923+982520935+983840875+982579399+981878855+983163074
1124+984021605+982537916+980539447+980373757+981780788+984471491+990228915
1114+998544891+1004824856+1006509776+1005406166+1003029922+999153735+995538515
1104+995694077+999916685+1004077917+1003874080+999079259+992878257+988667050
1094+986867204+985313830+983055060+982430023+986247928+992911067+996919285
1084+995242553+989427939+981710497+973870365+968047381+964881137+962953141
1074+961345366+960893054+961696032+961667467+959043901+954801279+951963929
1064+952579080+954849069+953919034+947197006+937596084+930035842+927403360
1054+929577101+933836886+936394710+935240521+932140929+930731594+932710837
1044+936769939+940737705+943756816+946099219+948275689+950944135+954526423
1034+957711467+957335208+951618479+943046812+936342735+933726689+933977832
1024+935694349+938890977+943296378+947277122+949325443+950502861+953014168
1014+956254887+956588086+951621208+942272642+930801946+919768278+911204617
1004+905386424+900845111+896224714+891406422+886509289+881388061+876273323
994+871595310+867332795+863209165+859009542+854776139+851292828+849493588
984+848833496+847066460+842419135+835944489+830770741+828689548+828323478
974+827249950+825046977+822787055+820615740+817620523+813279046+807890603
964+802283162+797764350+795647375+796409112+799494451+803739196+807593793
954+809823087+810837787+812446835+815835960+820559216+825562847+830248259
944+834464560+838554410+843566593+850538611+859250981+868183139+876084769
934+883072920+889775177+896186202+901763866+906270852+909589625+911076225
924+910504134+908860152+906943012+904250368+900605128+897778088+897562970
914+898939616+898847128+895985640+892317535+890081570+889354826+889481823
904+891170623+895207710+900282299+904386341+907227875+909030876+908778399
894+906222637+903940579+905184467+910644716+917915668+923671515+926253173
884+926199257+924720116+923206164+923221750+924664017+925557421+925386758
874+926251051+928822824+930610298+930048093+929039155+929802408+931518076
864+931102698+926949957+922248291+921773540+926331834+933327384+941026328
854+948061905+950327407+945456109+938603021+936936235+941792250+948876285
844+953573463+954521995+952875709+950399638+948741465+949000128+951204011
834+954630434+958160322+960809360+963246192+966496008+968877771+967946826
824+965080729+963740957+964987574+967900613+971348808+973813538+975380436
814+979144971+985861116+991314512+993369141+995526507+999945068+1002797580
804+1000802265+997514544+997270012+997657491+993705372+985956151+978871691
794+974990228+972818488+969970161+966023864+961490921+957245509+954398274
784+952617955+950238861+945662797+937957667+927896064+918449915+912936356
774+912546936+915703901+919048570+919801149+918459133+917936591+920210280
764+925446375+932225291+938215966+942724589+947020703+950447186+950162263
754+946989590+946221788+950908231+958491277+963494727+961708708+953723869
744+945573948+944244850+951690164+963139209+971583151+973951330+971953589
734+968542874+964374424+957218218+947153825+940356775+942462894+949648818
724+951168289+942772562+931408424+925499381+927830564+935723278+943753177
714+948006898+949859812+952723543+955772676+955920475+955100030+958209871
704+964638546+968677633+967986066+965100440+961755649+957495439+952985482
694+950739509+951867559+955039564+958709792+962106012+964100963+964136199
684+963193913+961975801+958947107+952788982+945238140+937917578+931206103
674+924003622+914087695+900864397+887645890+882749242+892468912+908522343
664+916351013+910928669+899211258+891298166+891166863+896464091+903968962
654+910858863+913817630+911877384+906571483+902095307+900450476+897354766
644+892543934+889103623+888825734+893375962+902433055+911743595+916651766
634+916495780+914627401+914849008+916509608+913958879+903406150+889764927
624+884283754+893089765+909099772+914141854+896854360+868276537+848192570
614+845058409+854566418+866492095+871401783+869087217+865693969+862847461
604+858484514+853900141+857110779+874268547
##END=
