##TITLE=<SNM>
##JCAMP-DX=4.24
##DATA TYPE=INFRARED SPECTRUM
##DATE=29/4/2025
##SAMPLING PROCEDURE=Instrument type and / or accessory
##ORIGIN=Admin
##XUNITS=1/CM
##YUNITS=ABSORBANCE
##RESOLUTION=4
##FIRSTX=4497.3318
##LASTX=599.83466
##DELTAX=-1.4281778
##MAXY=2.1686442
##MINY=0.55050892
##XFACTOR=1
##YFACTOR=2.0197073e-09
##NPOINTS=2730
##FIRSTY=0.56911737
##XYDATA=(X++(Y..Y))
4497+281782103+281370712+280326446+279047830+277984972+277311077+277169362
4487+277670999+278417700+278637885+278134507+277367001+276375119+274956205
4477+273907099+274500724+276682629+279029769+280348787+280228911+278733237
4467+276624963+275117839+274867286+275693491+277135100+278669463+279716709
4457+279975997+279441957+278167767+276497355+275186985+274785569+275191825
4447+276058312+277142330+278121847+278769566+279415573+280440361+281454643
4437+281749581+281207070+280225812+279169122+278228472+277504968+276973317
4427+276491453+275947585+275416998+275086941+274872953+274321736+273313121
4417+272731478+273762729+276341977+278809141+279644701+279157554+278618762
4407+278330316+277671560+276613956+275890067+275734896+275516599+274857666
4397+274412897+274877822+275755347+276134452+276261352+276973849+278123942
4387+278921491+279142001+278904758+278114440+276966648+276149356+276108748
4377+276704881+277516654+277996128+277619856+276445386+275314238+274915862
4367+274852767+274269619+273193806+272568663+273000977+274064897+274921204
4357+275268997+275420657+275677053+276094848+276661558+277265422+277816137
4347+278676191+280236377+281797537+282002111+280658392+278862852+277398874
4337+276310636+275702699+275838097+276545164+277197605+277391850+277352245
4327+277445885+277469170+276844618+275474279+273994040+273227655+273565326
4317+274694024+275756675+275969601+275384682+274885465+275140534+275838334
4307+276339498+276595865+276745164+276472920+275604307+274782913+274952280
4297+276431751+278524945+279956579+280079760+279517919+279208786+279420354
4287+279889381+280069106+279243610+277342270+275518281+275098716+276116067
4277+277333328+277658605+277278289+277173612+277712315+278174791+277696438
4267+276337137+275096827+274864040+275368805+275622457+275496236+275847925
4257+276853294+277534479+277274660+276594980+276231988+276450491+277138582
4247+277887083+278234817+278118984+277733475+277095761+276249105+275551452
4237+275331326+275618089+276325008+277236501+277875721+277919398+277673803
4227+277704554+278172961+278741589+278919868+278565376+278200938+278461908
4217+279065714+279011177+278082685+277292101+277367975+277713496+277492307
4207+277017408+277213512+278194504+279204271+279635847+279452079+278885871
4197+278230774+277718838+277365230+277093724+276988073+277212331+277712315
4187+278079911+277822836+276992647+276333242+276366708+276705884+276787247
4177+276703907+276767593+276921820+277154134+277904554+279504167+281402997
4167+282332109+281565488+279850071+278446857+277620446+276993090+276883927
4157+277843848+279170421+279463441+278534418+277496822+277244528+277820800
4147+278822657+279700064+280023688+279810290+279288438+278483216+277540440
4137+277147140+277918955+279487316+280751117+281060634+280802025+280693835
4127+280760207+280296227+278917596+277373317+276865718+277644587+278796539
4117+279391285+279319513+278970185+278589103+278139878+277575323+277045089
4107+276772167+276780017+276973111+277473803+278402649+279313050+279531288
4097+279157761+278959118+279192289+279363958+279124324+278621271+278080796
4087+277721287+277920460+278943389+280581987+282200753+283066238+282831090
4077+281910153+281142322+280975612+281186944+281335269+281232745+280997450
4067+280823539+280702600+280381426+279745335+279143772+279049099+279434431
4057+279774906+279749585+279606985+279637382+279695962+279539610+279145336
4047+278537074+277926422+277989370+279234550+281047029+282091796+281727034
4037+280386502+278790283+277534597+277150800+277746608+278730758+279481945
4027+280007250+280440509+280442574+279776706+278945396+278638505+279016046
4017+279723083+280156342+279808814+278790785+277820446+277426437+277567620
4007+278070202+278876309+279804594+280543504+280904105+280880260+280615040
3997+280363867+280344094+280493511+280483595+280217962+280085485+280341822
3987+280567910+280283920+279749496+279537279+279680734+279866627+280153332
3977+280834871+281747131+282329807+282382662+282163332+281760146+281104341
3967+280556725+280656858+281317532+281918800+282062816+281763068+281127861
3957+280332083+279725592+279709360+280548845+282144268+283759286+284225273
3947+283042540+281277692+280632274+281638706+283161914+283746419+283238762
3937+282761915+283459302+285456583+287788997+289069148+288405168+286267205
3927+284410842+284365866+285785400+286789736+286437103+285779557+285991509
3917+286679363+286530153+285143023+283499349+282781864+283415890+285322069
3907+288606997+293350709+298561412+302079570+302429576+300077419+296311512
3897+292125686+288442323+286360786+286496097+287927140+288698306+288532835
3887+288988316+290437272+291377569+291551539+292662766+294508033+294643639
3878+293042402+292276932+293297500+295011766+297018845+299271872+300076829
3868+298818398+297805740+298445225+298976610+297103720+293341030+290081541
3858+289441672+292983291+301234212+309904285+310642516+303617887+295444582
3848+290225409+288909107+290588460+293737812+297314963+300900820+303864899
3838+305016881+303905536+301573831+299204350+297250687+295852726+295194442
3828+295213123+295668869+297198658+301363708+307825611+312124880+311232717
3818+308018410+305112469+301668504+297115642+293295169+292192057+294403445
3808+298583457+301977430+303716810+305637892+308176680+309050517+307568182
3798+305476523+303241792+300503949+298398213+298388533+300106104+301998797
3788+303339771+304552842+306073866+308070026+310941733+314819282+318577575
3778+320673956+321306211+322413070+325969504+332606381+340610172+346826008
3768+349990677+351113059+350853417+349912146+350364056+353845856+359062313
3758+363052419+365606848+369679262+377970407+390467476+403059838+410874460
3748+414902843+419032391+423667235+425310702+423404317+422347952+425392154
3738+432552270+441715717+450094187+455493232+457344874+457094203+456883018
3728+457812071+459178543+459050227+456752666+453945146+451984577+450100237
3718+447184114+444318958+444264627+448426727+454195669+456294736+453504185
3708+449612175+447691831+448470079+451254905+454258116+455836392+456260768
3698+456675110+457672953+459824462+463921960+470055134+476761599+480968644
3688+479923582+474651584+468972769+465657031+465250628+466987263+470622434
3678+476759208+483827957+486817976+484763413+482600484+482446316+481175638
3668+476485518+470701259+466403289+464039357+463232246+464010996+466644989
3658+470507457+473501697+474197313+474225555+476348732+480890379+483718498
3648+480598481+474136607+469394341+467649708+467048470+466033333+465199071
3638+465865028+468207093+471418183+474940177+479197952+484835037+490305117
3628+491299626+487083934+482035338+480118210+483077892+489816199+495886897
3618+497132461+494828880+493137309+494136333+497504601+501954998+505303199
3608+504722471+499819721+494105080+491560773+493392583+497655877+501473193
3598+503708809+504743366+504989078+504738053+504852971+506575500+510249567
3588+513922985+514375692+511530721+508397011+506759121+506162398+505972403
3578+506159742+506009528+504612807+503186514+504524626+509997303+518318195
3568+525917472+528275325+523952418+516422080+510094927+506946696+506400615
3558+506936308+507434876+507325742+506553484+505847923+506614101+509766050
3548+514205056+517005051+516268089+513364155+510944445+510044639+510025988
3538+510146159+510353389+510726768+510974665+510836079+510400548+509773959
3528+508915705+508069492+507667722+507405836+506260258+504038158+502002217
3518+501291815+501594663+501908724+501889778+501765121+501575008+501361935
3508+501594368+502637069+504108986+505115093+505265011+505216612+505435116
3498+505081509+503113975+500226803+498463962+498834450+500417448+501826092
3488+502606259+502892462+502563821+501436304+499910204+498643982+497645017
3478+496476597+495215864+494332968+493811175+493292893+492650103+491770069
3468+490692220+490346846+491665687+493781545+494966787+495195619+495542203
3458+495582752+493975052+490902784+487717399+485016651+482778379+481625570
3448+482518737+485299578+488452088+490637623+491833165+492597838+492823306
3438+491753749+489129348+485675998+482488104+480184287+478505464+476915118
3428+475519104+474889653+475246388+476310072+477476545+477876426+477116918
3418+476002149+475562988+475629419+475296410+474467284+473938851+474157944
3408+474661293+474825082+474777568+475091541+475760184+476284604+476608404
3398+477141766+478068487+479056415+479343060+478212887+475767208+472937230
3388+470680837+469484558+469337059+469789176+470325105+470886592+471939740
3378+473971402+476725418+479038944+480072999+480474532+481295602+482374425
3368+483048528+483613703+484673875+485902233+486622669+486740243+486505803
3358+486370994+487054540+488752693+490458606+491075338+490914146+491003035
3348+491519870+491840425+491539702+490693548+489603716+488503232+487357889
3338+486129649+485260033+485376633+486426889+487565798+487977218+487374150
3328+485836541+483803728+482173186+481881435+483075649+484794016+485796051
3318+485574567+484340837+482646374+481425305+481555038+482754445+483609335
3308+483178437+481952115+481046141+481056883+481594583+481618458+480689996
3298+479945538+480960941+483666263+486437366+488100340+488584123+487960662
3288+486448698+485228485+485766746+488120792+490666899+491788101+491386832
3278+490271474+488774384+486953847+485611574+485786135+487345022+488992975
3268+489455775+488322474+486375746+485317226+486463838+489268495+491558619
3258+491799787+490541416+489130794+488171611+487732568+487848223+488222813
3248+488251203+487839340+487574592+487855926+488474635+488996074+489071712
3238+488490748+487281868+485866229+484903534+484850649+485522567+485982977
3228+485416503+484192660+483264493+482753235+482092826+481295720+480957872
3218+481146156+481337449+481362652+481393108+481124671+479979122+478019055
3208+475970572+474443203+473453593+472770607+472517635+473079652+474339293
3198+475362162+475274159+474159626+472644180+471074196+469529563+468152703
3188+467087957+466389773+466159347+466482439+467131604+467602254+467427103
3178+466306727+464278105+462034727+460564434+460108717+459905382+459192295
3168+458015966+456835770+455869150+455097896+454560874+454333075+454203106
3158+453577255+452077509+450254670+449117031+448885129+448983580+449177146
3148+449673648+450221086+450217456+449595501+448677781+447501776+446061289
3138+444816139+444272448+444258961+444023813+443066666+441808472+441105153
3128+441023790+440724395+439900492+439480189+440167631+441161284+441226062
3118+440422906+439793395+439735877+439570406+438633622+437135144+435727238
3108+434773012+434356693+434537540+435164483+435834601+436329952+436640000
3098+436467505+435390334+433675597+432258660+431725091+431824103+432018849
3088+432069993+432059487+432227466+432719807+433257979+433290324+432643903
3078+431681680+430769302+430009822+429424993+428976447+428578071+428352042
3068+428516657+428916863+429130822+429025525+428765026+428277112+427256250
3058+425855633+424855605+424758866+425075259+424950337+424163176+423067147
3048+421955153+420952174+420226929+419906965+419912985+419996178+419939280
3038+419807363+419851719+420057798+420105135+419867301+419550672+419251307
3028+418782369+418062848+417249658+416327394+415081653+413764908+413173202
3018+413587750+414219090+414235617+413779723+413454771+413374293+413155554
3008+412477143+411479122+410779050+410885586+411494261+411733541+411200917
2998+410384274+409901111+409721770+409423379+408897218+408498458+408583008
2988+409069240+409390857+408910793+407602724+406201399+405460335+405483826
2978+405895512+406228077+406032209+405118208+403825986+402774727+402308061
2968+402303988+402493718+402708119+402751413+402441070+401999666+401990104
2958+402576941+403244757+403398158+402801228+401511811+399978038+398990995
2948+398904172+399100955+398790995+398118516+397902403+398452557+399195598
2938+399322262+398408762+396654036+394825591+393757982+393724693+394444154
2928+395487829+396316985+396345523+395557595+394673311+394262275+394090193
2918+393662718+393017567+392525521+392220962+391880134+391587881+391622292
2908+391829049+391722424+391250564+390870397+390805796+390792457+390553827
2898+390056410+389345418+388498644+387696432+387150941+387016014+387312074
2888+387775376+387939902+387624188+387163395+386922611+386805745+386496641
2878+386030684+385836409+386149615+386584615+386556136+386061287+385628117
2868+385499270+385372547+385013835+384652702+384625640+384932884+385284072
2858+385456124+385448982+385300450+384971220+384490359+383974173+383476136
2848+383110902+383157707+383591733+383776357+383123651+381875520+380869118
2838+380699249+381210684+381597669+381117870+379937586+379023644+379008859
2828+379496360+379645039+379163292+378520738+378295506+378490784+378580440
2818+378181296+377469360+376833446+376383277+375995348+375645017+375479133
2808+375592486+375823296+375828254+375397474+374686571+374156751+374221528
2798+374788238+375195704+374826013+373724643+372424070+371407988+370919395
2788+370904462+370983022+370820059+370548878+370505407+370663707+370658956
2778+370288173+369735186+369281653+368987659+368795805+368756436+368851729
2768+368783941+368324889+367686201+367175238+366740829+366170194+365448726
2758+364692463+364002690+363558571+363593926+364066111+364545525+364658259
2748+364477059+364262274+364044685+363718465+363340186+363106189+363112770
2738+363211899+363108609+362665523+362055402+361537888+361219930+361052452
2728+360888132+360626867+360436931+360568965+360852689+360770853+360134408
2718+359296222+358658536+358328362+358229468+358244637+358220674+358034987
2708+357733940+357480850+357325176+357164693+356938162+356668987+356349378
2698+355979687+355631451+355290593+354798783+354111460+353489179+353312907
2688+353689976+354250636+354471707+354276931+354075721+354142211+354266513
2678+354087083+353519163+352804542+352256867+351988902+351902905+351879178
2668+351843410+351759420+351733686+351945373+352289477+352367181+352048604
2658+351741654+351844620+352159685+352081922+351279120+350019421+348870862
2648+348220015+348063781+348154056+348298191+348487920+348719556+348854512
2638+348830431+348846249+349109964+349517253+349772527+349763881+349649730
2628+349535638+349231670+348515071+347556300+346838108+346684648+347033917
2618+347553615+347856196+347750043+347373594+346986226+346714543+346629697
2608+346838137+347275203+347623705+347637634+347355474+346873315+346203758
2598+345519415+345218958+345519680+346196055+346852480+347239435+347276856
2588+347059592+346834950+346755918+346748717+346730184+346709644+346593310
2578+346236781+345791836+345654164+345958310+346386699+346573124+346515783
2568+346481550+346595110+346666646+346466941+346061807+345732724+345631618
2558+345692411+345845606+346083351+346271988+346155241+345671222+345088281
2548+344713957+344614031+344686570+344829376+344939779+344898020+344666768
2538+344341256+344072051+343998037+344190776+344533789+344751348+344742140
2528+344773865+345124639+345656230+345987113+345966603+345735528+345452837
2518+345206563+345094449+345192604+345478600+345855581+346196026+346366100
2508+346297516+346048704+345767872+345619341+345702534+345946860+346120683
2498+346051124+345803316+345588236+345568492+345768197+346032384+346082672
2488+345807477+345463608+345378438+345533993+345664907+345662369+345648734
2478+345716404+345788737+345747804+345599125+345470986+345482319+345645311
2468+345861453+345954651+345785461+345433094+345174159+345177848+345317084
2458+345388384+345425391+345633064+346042772+346414913+346526112+346388765
2448+346133845+345858768+345640648+345532695+345529213+345627634+345843215
2438+346084679+346177905+346125375+346163445+346426747+346722806+346783305
2428+346591539+346319030+346099080+345998623+346027898+346095450+346152437
2418+346344350+346775602+347264874+347584926+347749158+347858144+347900965
2408+347869831+347882403+348081753+348506070+349078770+349673516+350181557
2398+350553314+350812868+351041936+351349977+351935368+353218205+355801024
2388+360241889+366932565+376169850+388224925+403315230+421538037+442836506
2378+467056468+493928808+522692689+551843466+579971905+606708463+631767172
2368+653779937+671590143+685515452+695514430+699160579+693390426+678265887
2358+657607464+635160820+610850465+582690389+552986979+528665114+515236071
2348+514582272+526160943+546382831+567541946+582417467+590419222+595244238
2338+599205098+601780392+602010110+600717505+599534801+598736337+597286908
2328+594473161+590237549+584399284+576680603+567242581+556748341+546089014
2318+535909072+526105284+516096155+505779397+495652163+485955443+476420386
2308+466865410+457501757+448686310+440681928+433511749+426923861+420672582
2298+414832841+409653746+405167315+401162571+397478234+394104595+391025421
2288+388201611+385727069+383732119+382094348+380543724+379109995+378148804
2278+377844895+377947211+378049232+377935761+377637517+377287451+376926407
2268+376427515+375672020+374734852+373789804+372952828+372319304+371974462
2258+371860282+371803295+371734740+371723348+371791785+371839594+371733116
2248+371437618+371085191+370863412+370825519+370897527+371016370+371110600
2238+371019764+370603563+369911340+369173316+368650608+368476992+368564169
2228+368657691+368531972+368164081+367719578+367340031+366972258+366464188
2218+365795043+365143163+364746027+364703058+364891518+365095679+365206879
2208+365264278+365370520+365612987+365991236+366419389+366843765+367269026
2198+367658313+367977893+368322676+368822306+369480030+370219352+370973873
2188+371655649+372157522+372461815+372691946+373020350+373538750+374207363
2178+374899733+375496072+375957367+376308997+376553087+376665762+376674940
2168+376624888+376495096+376321716+376303419+376545620+376826334+376871221
2158+376761261+376862928+377387495+378131215+378690695+378914009+379037898
2148+379381973+380107632+381297212+383006224+385137547+387447030+389786852
2138+392238374+394948093+397953222+401233783+404772274+408450354+412072982
2128+415612861+419207482+422835866+426289511+429522705+432702395+435819639
2118+438536765+440541365+441861386+442717987+443205547+443242850+442732566
2108+441634118+439988643+438003905+435983192+434067097+432173578+430219767
2098+428219919+426150954+423902442+421401133+418697877+415956139+413398906
2088+411201419+409395815+407901528+406601870+405342643+403962831+402461108
2078+401059901+399971722+399183941+398553575+397981258+397456514+397108160
2068+397174767+397685818+398263565+398526307+398554402+398660289+398894787
2058+399089977+399231750+399470646+399802208+400022187+400095907+400356966
2048+401144805+402368973+403606480+404554774+405272966+406057382+407153795
2038+408553054+410071894+411595043+413106417+414552629+415892217+417218288
2028+418632244+420082027+421470485+422822881+424255104+425843621+427538793
2018+429154047+430486198+431491862+432307324+433131375+434108885+435243101
2008+436436046+437682524+439140069+440875730+442622193+443955907+444725745
1998+445225729+445964462+447273741+449017695+450629821+451596471+451972773
1988+452274528+452912242+453888336+454989824+456144492+457505534+459185626
1978+461052023+462915440+464786854+466775725+468900879+471181736+473695263
1968+476330288+478746101+480830707+482893710+485119174+487194897+488832846
1958+490364907+492419913+495177322+498193282+500840112+502821575+504393831
1948+506189312+508779775+512236814+515914186+518814579+520583618+521943863
1938+523777887+526236138+529000305+531942192+535130322+538396953+541306553
1928+543704187+546060152+548838485+551722528+554187154+556584729+559501471
1918+562282933+563635328+563695295+563936109+565256573+567278349+569161951
1908+570520013+571509003+572375343+573154625+573814798+574551936+575733106
1898+577433973+579156089+580302434+581025349+582126070+583845293+585293778
1888+585567232+584940171+584259989+583942209+584093780+584783701+585736805
1878+586372660+586461903+586332584+586490529+587473204+589626424+592185605
1868+593097747+591238875+587928154+585053082+583314440+582456776+581981581
1858+581474160+580768776+579829247+578503117+576868827+575583128+575317406
1848+576242534+578216147+580393153+580680595+577841232+573584136+570288170
1838+568623779+567792794+567046565+566799022+567925418+569960887+570864117
1828+569641809+567500511+565265663+562421932+559004143+556095487+554260342
1818+553000554+551760185+550788370+550804956+551971015+553347492+553667515
1808+552712345+551445710+551005103+551910694+553733680+555264206+555592552
1798+555243548+555739932+558181303+562117904+565047336+564435385+561286092
1788+558742317+558326381+559458325+561157599+563149096+565173114+566588605
1778+567537814+569412504+573477068+579292845+584164077+585406807+583695847
1768+581446242+580012100+580009975+581828180+584720428+586836581+587528981
1758+587815538+588273144+589084770+591435717+596535663+603250125+608091019
1748+609124867+607869682+606545854+606308227+607497719+609740005+611960570
1738+613903609+617177441+622856226+628075457+628566942+625655925+622742075
1728+620728386+619568287+619452543+620341962+622339479+626501430+633931252
1718+643258134+649360940+648689612+643975559+639362435+636810161+636882582
1708+639595340+643909099+647731727+650554151+654583182+661157406+667323485
1698+669567719+668438608+664899940+659948968+656197994+655350954+657026677
1688+660563044+666675294+675365494+681668035+680475415+675292483+671528760
1678+671382441+674639629+679071138+682414794+685281308+688782909+690757408
1668+688741652+685455072+685028807+687651142+690050548+689979956+689186391
1658+690400849+694973542+703510578+714190209+719287085+716668764+714451091
1648+716435682+719428682+717968156+712589917+708125413+707528631+711416184
1638+718876875+726864465+729749512+725695749+720584766+719613424+723341910
1628+729167190+734270205+738164605+741582807+744791596+748402508+753883389
1618+761970078+770327211+774377904+773650976+771842510+771459450+772391188
1608+773250269+773269805+772812259+772553206+772959639+774225329+776173621
1598+778417206+780727368+783001585+785126297+787265765+789872459+793018328
1588+796097856+798418407+799708946+800060546+799983167+800655262+803489136
1578+808794364+814232335+816111452+815154393+815396033+818316789+822214317
1568+825164467+827567177+830103103+832737656+836959515+845996535+860143298
1558+869951159+868812958+863830645+859309598+854790970+850039732+846103603
1548+844801200+847725733+854612307+863152648+871184800+876713725+875069756
1538+866078007+857694786+854463274+854526488+853473752+850369022+848280904
1528+849234008+852618567+856531973+859758645+862400517+864836988+867252448
1518+869862093+872275133+873349529+873059254+873911429+879537093+891779772
1508+907802938+917375709+912592717+901809737+894045667+891108267+892392845
1498+895901352+898184010+898120147+898674019+902316863+907960116+912331776
1488+914053302+914730591+915806227+917481125+919012891+919152126+918269141
1478+919078643+923261311+928526522+930638071+928613522+925623296+924199837
1468+924605856+926704893+930196638+933409145+934436913+933687379+932722293
1458+931292519+927412934+921979035+918350298+917961690+920470937+924149903
1448+926002283+924139220+919921964+915531829+911700348+909121277+909465145
1438+913641203+919516948+923475093+925388620+927206825+928540451+927518880
1428+924397092+921577088+920595358+921447828+923967286+927862630+930761134
1418+929092317+924013206+920558823+920448981+920929428+918816875+914439372
1408+911184486+911871456+915985362+920309273+922996003+925004380+926948127
1398+928159398+928758423+928938443+927285385+923599749+920522760+919874686
1388+920449866+920201379+919454147+920159119+922942646+926902738+931440254
1378+936995385+943695564+950061968+953910566+954580418+953571655+953165459
1368+955018428+959379288+964768033+968571538+969074768+967236791+965365642
1358+964354046+963808200+963839306+965019649+967528010+971565777+976989760
1348+982081856+985054788+987004201+990537380+995724444+999522223+999638144
1338+997942294+998040154+1000475682+1002739806+1003591509+1004793926+1007741774
1328+1011722760+1016581066+1023035237+1029300416+1031976285+1031984430
1320+1033896895+1038543072+1042634077+1044847678+1046342496+1047310946
1311+1047797886+1049870422+1055282717+1062676771+1069274840+1073409405
1302+1073741823+1069062830+1062404557+1059914020+1063526231+1068611185
1294+1068900634+1062907433+1054668524+1049848583+1051315306+1056424223
1285+1058833426+1054544575+1045197803+1035306838+1028215336+1024530173
1277+1023202272+1022891102+1022017325+1019067117+1014585851+1010310221
1268+1005963291+1000891204+996729016+995125596+994821155+993305797+989691226
1258+984825837+980215783+976596961+973029608+968311187+963012983+958526582
1248+954663169+950014690+943719586+935406898+925056733+913768811+903086760
1238+893423505+884289393+875704372+868310908+862355423+857358886+852731301
1228+848385788+844723998+842134421+840553606+839307393+837191535+833508792
1218+829270110+826521053+826188340+827342299+828619322+829471084+830331168
1208+832161177+835470364+839668024+843643640+846806685+849228814+851218600
1198+853108990+855125631+857415489+860263646+864038525+868970786+874782432
1188+880259358+884137114+886843734+889859812+893140903+895371089+896818334
1178+899172646+902844057+906942145+911356420+916849696+923273824+929260768
1168+933912257+937837113+942342756+948076786+954328036+959487890+962347203
1158+963069350+963180313+964586360+968273058+973627571+978922056+982589336
1148+984286308+984451631+983330134+981162749+978541417+976269324+975564353
1138+977671358+982596832+988765744+994152070+997656032+998806274+997847857
1128+996352449+995665775+995352481+994341180+992786276+992395898+994683159
1118+999414801+1005850203+1013647856+1020359131+1021704857+1016946182
1110+1009922203+1004126257+1001123283+1002029995+1006450703+1011071264
1101+1013223835+1014245170+1015086838+1014539222+1014212707+1016843600
1093+1019490548+1017031766+1011697971+1009882540+1012990221+1017391688
1084+1018483497+1014218963+1007738940+1004733014+1007175388+1010579956
1075+1009577390+1005775007+1005089159+1009181936+1012096730+1007334869
1067+996890031+986544175+978623872+973827954+973264166+976509784+980313879
1057+980771780+977037450+972043274+968861695+967792434+968185350+969966253
1047+971837578+971533964+968735563+965698886+964998873+967228704+970655524
1037+974010099+978363757+984035578+987626599+984753888+975878887+966053851
1027+959574949+957743346+959332659+962362490+965549853+968293421+970514636
1017+971725907+971475767+969777969+967315763+965931260+966758763+967570625
1007+964647213+957630612+950685251+946767360+943407177+937004652+928040290
997+918721258+909083325+898910288+890529310+886736194+887025170+887567297
987+885539737+881832617+878142437+873935097+868591504+863997858+861907556
977+860934856+858883628+856145136+854026680+851912120+848980682+846560854
967+846044757+846291414+845113727+842162752+838805520+836015206+834146949
957+833871606+835429048+837640405+839115332+840245565+842896408+847487575
947+851657259+853162583+853036510+854229247+858015576+863463404+869596430
937+876200107+882382122+886216023+887254298+888248482+892496076+899997257
927+907611526+913292554+918411564+924814385+931993418+937135860+937074299
917+932138968+926767458+924333229+923846761+922685777+920221211+917386216
907+914954407+913679273+914416648+916763404+918721376+918957114+918588869
897+919524208+921844640+924095543+925464347+926407948+927828987+930569664
887+935026553+940375399+944268737+944320736+940957367+936902601+933303552
877+930511113+930521796+934364256+939324081+941438700+940211846+938568645
867+939333879+944161020+952046146+958894000+962191264+963531914+964729314
857+964529875+960725485+955143675+953004385+956424594+962476168+968104252
847+973076767+976518402+974901642+967562067+960527876+959565328+963829390
837+968352267+970353680+971448380+973687833+976989406+980403889+983118182
827+984962003+986488458+987441267+986812022+985993431+988341663+993014105
817+994043349+988816740+982023010+980015340+984679696+992971491+1002813939
807+1016336474+1033242683+1043772514+1039371047+1029248239+1026238890
798+1028877102+1026559739+1016091411+1005481899+1000993432+1001809721
790+1005202602+1007483371+1002943199+990251708+976079329+967612177+965711458
780+966130285+965230125+962765381+959653214+956017276+951270583+945374239
770+940552291+940654874+947578514+958159104+965512550+965805482+962147882
760+960081780+961461680+963577243+963345401+959884525+953626075+947959862
750+946732182+950143242+956416567+965032634+975731270+984991102+987468890
740+982853169+975920321+970945327+970518059+975031198+982741497+992096651
730+1001029082+1003149662+993252086+978559124+969852102+969453047+973254427
720+978243645+985479695+994692721+1000267330+997408608+989478684+984195235
710+984969499+989748419+994718219+995802590+990454394+981572841+975891282
700+975824350+977209798+977235119+978364761+983487608+990857639+996387391
690+998445997+995233254+985147513+972458619+963798580+960572262+959134283
680+955655464+948970277+942341103+942782714+953070845+962954314+954792724
670+925971591+899041497+898560223+919647566+940767312+951471910+953397773
660+951032720+947926455+947315035+952839947+966010233+978512791+974964148
650+958598649+945019156+936889144+929152402+923684447+925598506+934388809
640+944455663+949653587+947323416+939268953+928297335+915883843+905374257
630+900772525+900826944+901229068+901973644+905588039+909279045+906110688
620+895797236+887414428+884249493+881785517+879361086+880534760+887355877
610+896795197+905410261+909151614+904710720+899513681+902618530+912447816
600+916107599
##END=
