##TITLE=<SNM>
##JCAMP-DX=4.24
##DATA TYPE=INFRARED SPECTRUM
##DATE=29/4/2025
##SAMPLING PROCEDURE=Instrument type and / or accessory
##ORIGIN=Admin
##XUNITS=1/CM
##YUNITS=ABSORBANCE
##RESOLUTION=4
##FIRSTX=4497.3318
##LASTX=599.83466
##DELTAX=-1.4281778
##MAXY=2.0894945
##MINY=0.43496531
##XFACTOR=1
##YFACTOR=1.9459934e-09
##NPOINTS=2730
##FIRSTY=0.44897503
##XYDATA=(X++(Y..Y))
4497+230717655+229289176+228887409+229682396+230859163+231469898+231557697
4487+231773543+232153853+232202263+231882676+231646844+231648498+231594238
4477+231317410+231093616+231276964+231788107+232049391+231488919+230272196
4467+229300141+229059210+228890595+228119224+227334804+227571294+228782672
4457+230061879+230862869+231269046+231486591+231645971+231853670+232125597
4447+232309634+232110359+231255921+229876403+228635054+228129668+228229826
4437+228276996+227890927+227218382+226500199+225903844+225624151+225817484
4427+226536923+227678773+228817743+229418922+229490886+229534532+229656009
4417+229465494+228916492+228367552+227918402+227472315+227212700+227283010
4407+227382540+227339674+227447566+227728009+227599504+226770702+225785507
4397+225354122+225708581+226537674+227117611+226913573+226314569+226290678
4387+227265153+228702392+229691370+229676883+228767266+227486251+226298106
4377+225520716+225471050+226220904+227280636+227931925+227871799+227353044
4367+226797304+226417560+226171805+225958915+225745658+225505462+225206596
4357+224833698+224368514+223916745+223861260+224596641+225960983+227146372
4347+227420291+226880784+226290341+226198545+226456552+226577553+226330374
4337+225865052+225402578+224987687+224581480+224266380+224198229+224394518
4327+224640763+224617531+224215979+223714713+223518394+223750427+224242473
4317+224860299+225543489+226054694+226058400+225546552+224988821+224962479
4307+225551988+226160503+226184823+225837271+225862693+226468987+227063167
4297+227024835+226284659+225236720+224493374+224602614+225581025+226729613
4287+227284143+227288431+227451395+227984515+228088349+227084302+225606876
4277+224907193+225330706+226193307+226807703+226958552+226667022+226111220
4267+225621333+225474098+225784818+226503491+227288447+227639353+227436540
4257+227082617+226979886+227140935+227389309+227708606+228215461+228773039
4247+228870824+228211648+227315155+227076996+227733921+228635421+229080559
4237+229101632+229284443+229999487+230963916+231489578+231136650+230111300
4227+228997629+228230148+227891570+227851385+227981713+228293658+228800989
4217+229178435+228954090+228259460+227877328+228207191+228659006+228435947
4207+227536330+226708234+226687007+227557633+228708411+229459705+229692687
4197+229693116+229616114+229503490+229559572+229919835+230338846+230487980
4187+230321295+229847734+228973968+227939751+227440813+227911250+229001427
4177+230067285+230876086+231534725+232083742+232482844+232720084+232708460
4167+232338564+231782931+231420661+231366968+231475289+231831601+232732029
4157+234062372+235170269+235537179+235256031+234722559+234188565+233767304
4147+233571367+233563940+233429630+232936465+232333755+231996158+231863119
4137+231759760+231916261+232520058+233180031+233484732+233597219+233729262
4127+233622855+233075814+232414065+232025623+231869000+231710860+231552337
4117+231613137+232004749+232540871+232866278+232758064+232329651+231921330
4107+231736834+231656447+231573150+231690338+232104387+232467652+232570306
4097+232729426+233124959+233396795+233320635+233175742+233126797+232967095
4087+232712702+232793472+233394666+234086876+234406157+234506928+234855368
4077+235513441+236226371+236894766+237356765+237153263+236188329+235157512
4067+234733233+234746021+234605646+234182685+233825729+233694482+233528180
4057+233166982+232948886+233326761+234307867+235368395+235758047+235108045
4047+234023473+233624111+234213054+234962571+235071382+234531829+233717516
4037+232950386+232488617+232483196+232957722+233876406+234945556+235454204
4027+234850314+233526556+232574809+232678045+233576681+234589826+235289969
4017+235637904+235680586+235298591+234491674+233855164+234153663+235266843
4007+236186660+236221654+235620690+235013982+234854893+235253535+235912404
3997+236340879+236269007+235752381+234982679+234215489+233820017+234169590
3987+235261223+236496431+237156097+237112511+236777976+236441604+236062305
3977+235632252+235354581+235434754+235896155+236571503+237152635+237354606
3967+237270298+237449511+238262814+239256540+239580476+239057847+238286184
3957+237706094+237123170+236228592+235326755+235243764+236334478+237830955
3947+238616155+238491493+238129254+238068669+238287563+238537361+238710831
3937+238913659+239436472+240567540+242052898+242785906+241875140+240149311
3927+239520244+240832867+242956389+244146480+244020992+243552851+243504488
3917+243523156+242744939+241092482+239570124+239149092+239698553+240445604
3907+241467340+243787902+247570665+251141428+252762597+252257625+250115557
3897+247017927+244363214+243545148+244698882+246359119+246766490+246266710
3887+246866403+249158908+251329079+252035102+252143592+251889980+250101436
3878+247375939+246075123+247155407+249644093+252663449+255585986+256792081
3868+255766087+254528230+254590315+254812547+253423457+250713397+248136421
3858+246964540+248695653+254759512+262579662+264583715+259574028+252907811
3848+248397675+247291999+249204730+252773087+256615793+260211641+263327510
3838+264868721+263939302+261692910+259954537+258999849+257916119+256516064
3828+255620015+255712685+256833338+259362563+262947246+265203286+264836530
3818+263789034+263086181+261085222+257256514+253730793+252736378+255012925
3808+259135844+262125826+263152310+264529960+267306609+269142321+268395331
3798+266453028+264506835+262679698+261337609+260896453+261232519+262306540
3788+264475348+267558045+270528333+272927444+275672881+279572251+283920464
3778+287474120+290272026+293368997+297724561+303914399+311683214+319600980
3768+326187561+330841272+333374233+334423076+335872736+339229230+344168224
3758+349457189+355074502+362274866+371928431+383098950+392537221+398126385
3748+402534694+409536211+419276029+426885112+429319967+430147482+433469518
3738+440500531+449523131+456966968+460365026+460161433+458357268+456846870
3728+456795688+458156370+459545077+459454077+457513489+454236386+450495217
3718+447353864+445919733+447228375+451576037+457016006+459738532+458324556
3708+454821500+451615427+450325254+451872469+455677745+459435852+461133672
3698+460711659+459645327+460009572+463229306+468936240+475133153+479601465
3688+481366638+480944534+479498336+478220997+477944873+478821977+480778400
3678+483944716+487546675+489179008+488175987+486759437+485560633+482678741
3668+477168417+471046883+467090297+466475381+467991261+469271969+469164950
3658+468115739+466765840+465804995+466889092+471981080+480804772+488159477
3648+488255991+482928279+477418659+474079900+472646565+472318126+472934788
3638+474547519+476524556+478051126+479646521+483324471+490497697+498944034
3628+503105439+501595470+498268380+495850831+495037742+495975554+498150120
3618+500249613+501599972+502576193+503623505+505168606+507825463+511405797
3608+514317613+515348538+515083349+514464879+513521555+512223756+511539494
3598+512712387+515843326+519681804+522741745+524760407+527022145+530901422
3588+535546740+537843518+536521246+533610104+531419978+530759607+531219723
3578+532156493+533071822+533386693+532841673+532408450+533946292+538181606
3568+543072695+545281872+544145950+541914106+540119529+538255851+535757838
3558+533625357+533205612+534559064+536712435+538629775+539649490+539493709
3548+538349332+536772346+535411358+535034065+536187937+538205803+539313485
3538+538381432+535918827+533346813+532080164+533052648+535803905+537906860
3528+537224498+534837179+533468596+533565446+533128670+531187684+529308447
3518+529230158+530741659+532203233+532322075+531447422+531159566+532122984
3508+532998985+532365263+530609523+528807043+527257869+526243177+526640134
3498+528769247+531731418+534450452+536566455+538024415+538352273+537004640
3488+534554286+532592839+531965426+531958014+531642102+531226645+531419978
3478+532133521+532541750+532071404+530838754+529273407+527732747+526451764
3468+525538884+524938487+524561990+524573629+525592670+528093684+531099349
3458+532305229+530581283+527455735+525034724+523600532+522524521+521997695
3448+522200768+522216695+521266877+519814185+518580738+517829399+517878222
3438+518719918+518929546+516888279+513411809+511271824+511920708+513960290
3428+515007817+514277060+512769174+511728294+511587736+511786704+511227871
3418+509492438+507417877+505971740+505433642+505939702+507418245+508944754
3408+509482668+509198978+508982459+509072478+509059461+508642319+508098586
3398+508018183+508247628+508144254+507969973+508552391+509532594+509545917
3388+508367052+507464985+508093133+509809116+511058306+510882310+509862136
3378+509457215+510708273+513254864+515328874+515488147+514571654+514806397
3368+516988621+519656137+520892953+520199074+518796553+518445969+519745575
3358+521690604+522945982+523055267+522450275+521812877+521518283+521527349
3348+521581319+521419228+521042057+520910228+521686929+523561388+525993670
3338+528204073+529603592+529836008+528947142+527558588+526513145+526070366
3328+525415448+523663078+521461251+520477128+521238943+522571445+523204923
3318+523146359+523254787+523962449+524844332+525331707+525373302+525186462
3308+524844760+524429854+524155844+524154128+524312360+524325224+524057952
3298+523995652+524745582+525845730+526113799+525359764+524656818+524856706
3288+525772464+526831017+527781080+528736228+529799069+530604868+530480145
3278+529533757+529138699+530514021+533006459+534492108+533815627+532093702
3268+530960475+530656999+530642052+530987184+532143261+533767049+534718337
3258+533990031+531540351+528576894+526742682+526802715+528252896+529903883
3248+530414720+529125467+527078441+526232518+527276001+529122220+530496807
3238+530891253+530270272+528908120+527182214+525266956+523477525+522541490
3228+522790445+523597041+524164910+524207607+523642862+522413336+520801065
3218+519383106+518581290+518494118+519037055+519929903+520744339+521170210
3208+521154528+520646692+519364177+517285420+515262163+514427818+514790041
3198+515174134+514784712+513965191+513369633+513259765+513548478+513894253
3188+513829166+513133878+512060715+511281043+511477102+512383120+512497613
3178+510573044+507092746+503655850+501578961+501348321+502433889+503518569
3168+503643567+502959643+501969149+500701826+499116999+497606631+496575615
3158+495951693+495398618+494669362+493628605+492313163+491007738+489996630
3148+489312185+488971525+489133891+489622185+489785042+489348757+488861504
3138+488812925+488917341+488615856+487755261+486531463+485111391+483613857
3128+482386537+481965995+482597941+483831020+484701937+484465968+483134139
3118+481268042+479476864+478145189+477338318+476915173+476754552+476649034
3108+476183406+475266606+474613648+474999915+476115745+476750295+476117491
3098+474565897+472944743+471702934+470812874+470303262+470373219+470894256
3088+471361018+471544090+471599774+471410025+470610934+469468304+468766523
3078+468610649+468341264+467687816+466919967+465978480+464776796+464050756
3068+464443180+465167903+464903203+463711015+462816054+462890636+463479303
3058+463751323+463369527+462733752+462402924+462390458+462352845+462261110
3048+462323563+462396186+462005599+460893169+459284910+457759964+456913244
3038+456862797+457089486+457084493+456963599+457024551+457146518+457127650
3028+457045441+456751122+455733521+453998579+452324712+451229741+450369330
3018+449278647+448163491+447617369+447850091+448429722+448679934+448256115
3008+447399839+446652266+446321040+446305174+446397276+446514250+446532015
2998+446216287+445519927+444717682+444151589+443968057+444014216+443831542
2988+442960196+441456843+439983078+439292262+439597546+440306586+440458385
2978+439625204+438154655+436492458+434877614+433755352+433619878+434182724
2968+434461727+433977936+433273367+433065393+433416039+433903966+434228117
2958+434377006+434370819+434155647+433778814+433439838+433290611+433263535
2948+433125121+432677288+431847016+430626557+429143664+427815021+427167423
2938+427313219+427752506+427832173+427309054+426482059+425888032+425820403
2928+426074229+426185842+425884633+425265275+424599882+424082091+423725994
2918+423406835+422952570+422266594+421489189+420993666+421073088+421575502
2908+421926485+421655169+420838252+419864819+418918370+418022735+417422735
2898+417355595+417523291+417371645+416832690+416274959+415844432+415352891
2888+414750962+414312256+414319025+414718035+415091714+415018356+414526080
2878+414062872+413957445+414034938+413850855+413228833+412425423+411772251
2868+411324081+410932423+410542020+410249325+410084478+409940244+409770924
2858+409659096+409613887+409504418+409222750+408750077+408142113+407578042
2848+407233951+407006099+406641976+406171937+405876945+405878354+406049144
2838+406206947+406181218+405856270+405308923+404826019+404695630+404867583
2828+404762586+403660264+401543036+399394474+398368480+398702127+399578404
2818+400044645+399959219+399888925+400172676+400449780+400199446+399384764
2808+398360915+397449751+396802827+396422226+396137801+395759926+395348512
2798+395112236+395012966+394755648+394203706+393525969+392921620+392417981
2788+391915474+391320192+390682058+390219922+390098323+390181084+390121632
2778+389683233+388896823+387964096+387106043+386501204+386261590+386358134
2768+386588192+386702654+386589325+386318898+385977196+385500480+384842897
2758+384248135+384042244+384167702+384203691+383827593+383077723+382275815
2748+381792605+381731223+381859163+381917113+381773952+381274876+380320678
2738+379148122+378225043+377841195+377924354+378191412+378405022+378458041
2728+378261462+377762754+377117177+376595865+376264485+375935341+375435285
2718+374805391+374241504+373825495+373375733+372766391+372265355+372186055
2708+372341592+372278342+371909502+371504765+371234338+371076535+371000574
2698+370935242+370705368+370287215+369967567+369950200+369953998+369518784
2688+368616840+367675445+367074526+366854147+366832278+366800791+366614503
2678+366257364+365883471+365702512+365747598+365826439+365762056+365578800
2668+365365374+365064716+364596422+364153123+364084299+364340759+364329211
2658+363623938+362575585+361866545+361700288+361766632+361804551+361834353
2648+361912367+361965631+361896225+361669996+361296164+360852282+360505710
2638+360352870+360245483+359934747+359353034+358651252+358050211+357730379
2628+357752432+358006595+358271111+358333258+358099188+357711940+357522528
2618+357721251+357994190+357817887+357150350+356531115+356417602+356704355
2608+356972975+356979254+356787850+356600061+356580581+356750207+356917719
2598+356767880+356160315+355337854+354725112+354524336+354613927+354810660
2588+355061148+355307959+355351147+355055818+354602013+354284784+354152250
2578+354083732+354069857+354145512+354218257+354202207+354142571+354072491
2568+353957692+353846967+353853522+353949637+353969056+353833857+353629375
2558+353422259+353145032+352758305+352417369+352333230+352519212+352756223
2548+352776407+352498200+352123786+351908094+351856330+351855626+351990671
2538+352365789+352734261+352743542+352472288+352329953+352488154+352735058
2528+352859689+352925205+353077923+353254655+353262894+353091063+352917395
2518+352821402+352714965+352565126+352506807+352699926+353117098+353498772
2508+353624720+353618134+353766687+354053195+354132311+353797623+353241025
2498+352839810+352841311+353213581+353696546+354011232+354048998+353871991
2488+353590262+353280445+353013816+352931484+353183717+353719212+354235348
2478+354454440+354386872+354251367+354195591+354160122+354031785+353880874
2468+353908440+354145389+354393059+354479893+354379092+354098097+353674003
2458+353248927+352971946+352854849+352825874+352862537+352972374+353060802
2448+352939877+352569261+352238157+352350352+352986893+353776090+354231366
2438+354172956+353836124+353651766+353900599+354467090+354919915+354916087
2428+354519252+354068663+353823352+353836645+354058249+354397745+354749003
2418+355089235+355508123+356039145+356544285+356888254+357126214+357353453
2408+357465894+357278779+356839522+356430466+356282434+356441003+356890949
2398+357643299+358623686+359595067+360348949+360961109+361782345+363298348
2388+366154082+371168791+379067505+390193672+404611001+422455914+444003067
2378+469261647+497559493+527542110+557538111+586274693+613713628+640436203
2368+664974717+683378648+694418960+702108475+709066193+711971454+706062488
2358+689817870+664548600+632944737+598047049+564288406+538017064+524287918
2348+524920109+538861762+561503763+584702240+601749655+611677385+617129176
2338+620835581+623549531+624247330+622467332+619526541+617062465+614893351
2328+610837832+603291724+593094762+581839247+569929794+557419759+545183613
2318+534155736+524325776+514940799+505314157+495305443+485157948+475072354
2308+465102387+455379078+446244864+438112478+431157548+425142666+419650014
2298+414516524+409909431+405967149+402513468+399224726+396035713+393200746
2288+390866509+388841108+386994062+385570927+384793246+384452586+384223662
2278+384092629+384140870+384178606+383978596+383691537+383630278+383754787
2268+383776074+383675947+383672057+383733622+383599741+383251852+382952449
2258+382859703+382927884+383099777+383328854+383486504+383480255+383437313
2248+383595115+383992103+384394543+384555011+384436536+384169723+383902512
2238+383707066+383549753+383331274+382986723+382545935+382070015+381541842
2228+380881318+380064401+379157403+378261094+377506906+377026606+376810822
2218+376684537+376515799+376367614+376369789+376523242+376702731+376825830
2208+376966940+377255745+377700239+378223665+378825441+379543058+380300860
2198+380965580+381540923+382189685+383046053+384050606+384999229+385768150
2188+386438751+387144606+387871350+388505164+389008314+389413786+389695393
2178+389804648+389846580+390063160+390579174+391263190+391877341+392274145
2168+392434459+392430631+392393661+392413907+392415561+392200267+391690226
2158+391081007+390652042+390442751+390236094+389885142+389548984+389509871
2148+389785780+390082855+390227518+390478679+391213571+392483160+394124713
2138+396109408+398484229+401155482+404016790+407143778+410682701+414689795
2128+419158198+424050329+429220023+434392505+439355573+444216676+449325633
2118+454798130+460266614+465287021+469845383+474288608+478899408+483701672
2108+488690745+494218007+500988211+509526498+519742144+531083544+542918323
2098+554650370+565696441+575546494+583878615+590689250+596235318+600615387
2088+603450139+604165581+602459461+598358550+591996330+583445821+572717010
2078+560037840+546174352+532199741+518908841+506616550+495380087+485202667
2068+476145731+468370545+461979717+456829319+452610546+449044669+445940163
2058+443237607+441021752+439320288+437992870+436946661+436233180+435852487
2048+435758669+436061624+436960751+438565395+440960371+444330710+448954833
2038+455181916+463356877+473676755+486166207+500665653+516597361+532860724
2028+548300463+562353607+575149904+587023827+597992344+607728028+615994172
2018+622872498+628444051+632475556+634670338+635178909+634637932+633530985
2008+631537438+627741657+621638684+613749342+605108110+596332536+587298144
1998+577664886+567628790+557930842+549150061+541314689+534205662+527670079
1988+521562818+515852331+510918605+507288560+504952791+503318681+501887491
1978+500673065+499941665+499819484+500181708+500758000+501358092+502016594
1968+502812867+503622525+504249356+504751341+505403993+506410414+507832661
1958+509688099+511852251+513950857+515660284+517130251+518887032+521298854
1948+524272419+527522262+530988225+534629267+537829857+539786281+540728993
1938+541826384+543784216+546248292+548524548+550416037+552285227+554526933
1928+557159348+560016644+563050427+566084761+568741495+571095856+573622905
1918+576043671+577345544+577490543+577784953+579212836+581391445+583223942
1908+584186073+584736912+585551594+586703382+587789746+588659989+589685524
1898+591222875+593004772+594329311+594980983+595547137+596438208+597227712
1888+597558938+597949770+598836430+599669305+599716597+599131881+598615837
1878+598547595+598874104+599481485+600437920+601942682+603956750+605697481
1868+605864105+604038653+601319128+599024250+597560163+596532179+595362809
1858+593771488+591955715+590371071+589264308+588533613+588012545+587685913
1848+587751705+588470332+589348723+588718185+585766980+582148481+579705173
1838+578430131+577226334+575783566+575016850+575606160+576715619+576613256
1828+574874301+572697652+570763588+568667066+566278277+564149900+562635827
1818+561621074+560957763+560645466+560679832+560913106+561013570+560721978
1808+560221126+559986688+560342418+561322989+562673378+563771076+564022849
1798+563728991+564023401+565696257+568306251+570274007+570369142+569315062
1788+568777331+569607879+571538512+573761473+575679487+577125502+578244456
1778+579560786+581862341+585719688+590809868+595288318+597005893+596144778
1768+594522705+593455209+593658282+595408079+597937456+599839176+600939078
1758+602125723+603442911+604475490+605906557+608879449+613196971+617084090
1748+619169157+619740702+619717730+619862300+620795456+622623481+624551909
1738+626132387+628560504+633044406+637989464+640120353+639458145+637951483
1728+636553557+635999348+636952291+639148236+642047249+646174686+652505235
1718+660045708+664687903+663748866+659746704+656264445+654897577+655925929
1708+659271213+664173573+668884378+672700191+677189422+683135695+687701929
1698+688523165+687355694+685612145+683473844+682241929+683142740+685849400
1688+689789630+695700372+703423825+708351241+706897508+703099643+701276029
1678+702499062+706295456+711078484+715070968+718535461+722555389+725708565
1668+725475842+723357389+723226234+726437239+730845302+733565991+734593363
1658+735900871+739112121+745124369+752510163+755411198+752639726+750102324
1648+749830334+749054552+745150343+740037619+736577230+735654488+737639703
1638+742754265+748932586+750701006+745964963+739893906+736804929+737051496
1628+738961363+740944985+742609755+743671922+743376287+742341442+742632544
1618+744976980+747061374+746218636+743831992+742691842+743492495+745463131
1608+747654053+749246170+749766686+749671613+749893002+750628169+751480402
1598+752478860+753890631+755427738+756624429+757736277+759481051+762069605
1588+764859210+766908992+767904938+768463557+769435490+771228842+773990329
1578+777699981+781090841+781783556+780268257+779824866+781473157+782244100
1568+779138951+774217906+771301066+771659124+775044410+781352661+788307438
1558+789240472+783518835+777866115+775203867+774852976+775390645+776016037
1548+777121085+779741186+784162665+789585543+795528875+801698681+804692401
1538+801519438+796051780+793143272+794156248+797147088+799760329+802353232
1528+806275635+811447290+816807867+822125685+827644678+832447125+835554296
1518+837655474+839738642+842114505+845231722+849940444+856733007+865286456
1508+873956603+878804199+877688798+875029980+874711373+877297721+882541906
1498+889366876+894752508+896467081+896692208+898845640+903214681+906839856
1488+907416180+906637641+907557014+911243203+916563349+921649977+925819130
1478+930041702+935072216+939837541+942785929+944395015+946683461+950625529
1468+955515086+959293348+959668926+957252142+955347053+955373701+956286764
1458+957110022+957690143+957523090+955871184+952767566+948991449+945663502
1448+943424920+942185531+942192270+944075183+947162812+949797799+952031848
1438+955586208+960107233+961993086+959398039+954177193+949311894+947237302
1428+948560616+951847091+954732872+955534199+954733914+954597613+955975385
1418+956182379+953394673+950178952+948890188+948988080+949011971+948656792
1408+948608030+949420506+951215941+953621637+955897035+957347461+957630722
1398+956935311+955661128+954180747+953199196+953558357+954957937+955784013
1388+954430376+950626325+946139054+944024276+946615403+953896444+963717461
1378+973689113+982176525+987537959+988764606+987452565+986641436+987395043
1368+988653605+989611877+990480957+991674769+993705009+996885568+1000260501
1358+1002540432+1003669433+1003892721+1003344332+1003352418+1005266144
1350+1008069655+1009831275+1010597440+1011723438+1014039819+1017892999
1341+1023110231+1028445202+1032836235+1036682677+1040142331+1041477161
1332+1039017129+1034741017+1033566440+1038088813+1045882162+1052591230
1324+1056873345+1059814136+1061397677+1060644929+1057894897+1055472600
1315+1055808421+1058823949+1061591868+1061527669+1059963976+1060843162
1307+1065521132+1070330686+1070920609+1068591180+1068434480+1071718199
1298+1073741823+1070192731+1063614022+1059871230+1060893517+1062891903
1290+1060582077+1053477767+1046200708+1042784425+1042447256+1040738380
1281+1035036040+1027523685+1021483135+1017645514+1015510705+1015126367
1273+1016385297+1018242542+1019222929+1017658378+1012692247+1005636331
1264+998429536+991937692+986531783+982644052+979808503+976689816+973057902
1254+969865765+967139563+963909875+959668497+954071399+946420048+936838125
1244+926939248+918336731+911063653+903721475+895142849+886212230+879109023
1234+874473260+870823397+866976894+863215234+859788169+856230256+852391839
1224+848917727+846627872+845764061+845733677+845708316+845425300+844969534
1214+844275349+843620370+843967401+846106988+849786071+853814391+857026988
1204+859401258+861942398+865322721+869284269+873417648+877711402+882107643
1194+886140128+889302309+891777411+894613450+898702539+903555954+907596219
1184+910111568+912173970+914997879+918240616+920797621+922712756+925142465
1174+928669565+932865244+937276432+942089967+948056946+956097229+966168366
1164+976250835+983381915+985928567+984364568+980652711+977811894+978524457
1154+983080522+989491626+995650896+1000052833+1001409165+1000558586+1001380129
1144+1006372785+1012123703+1012527644+1006645019+999343701+995219389+996103721
1134+1002286331+1012558947+1023133815+1028580339+1026119020+1018996271
1125+1013614008+1013676799+1017734829+1021807378+1023415177+1023186008
1117+1023940717+1027681733+1033681607+1038988582+1040012095+1035614691
1108+1029066856+1025006437+1024627061+1025041048+1024130190+1023965220
1100+1026799054+1030612907+1032017694+1031158723+1031192538+1034000765
1091+1038007216+1039391053+1036227524+1032561060+1032404973+1034038746
1083+1034340874+1033567175+1033106141+1031359652+1025611552+1016823726
1074+1009226896+1005975828+1006912292+1009869194+1013259381+1015889223
1065+1015144070+1009445835+1001697756+996156220+993793283+993356263+994650110
1055+998332869+1003308312+1005877079+1002630483+994363725+985486952+980164050
1045+980738106+987323799+995978447+999936013+997098749+992937191+992693993
1035+995693471+997146837+993539671+986416188+980688241+979647086+982619242
1025+986824110+990174234+992338569+993781215+993899138+990976663+985109414
1015+979518014+976889275+977071030+979504108+983911743+987232952+984296264
1005+974026282+961335779+951451972+945519911+941591749+937565451+932257128
995+925516389+918066335+910987508+905183172+900496749+895728912+890168448
985+885090580+882952524+884428005+886588972+885520189+881139324+876899049
975+874656485+872743433+869245860+864895196+861567065+859512811+857237229
965+853640723+849738841+847769737+848427289+849597823+848683964+845913839
955+844080485+845364470+849362528+854029900+858007742+861649580+865994976
945+871231442+876320765+880072440+882479177+884800826+888265136+892784690
935+897411938+901890510+906994535+913506043+921342518+929501215+936732270
925+942465239+946749315+949445500+950083878+948745618+946567743+944620325
915+942942752+940956373+938254184+934931627+931951998+930821833+931484041
905+931689810+930152703+928744914+929970213+934169200+939393292+943251619
895+945297174+946999006+948855883+949479866+948951263+949897345+953378011
885+957075717+958649027+958408096+957678259+956949401+956706265+958056471
875+961392933+965139279+967066788+967084124+966985926+967495355+968154500
865+969787660+973849611+979162896+982539728+983323842+983247268+981957892
855+977509153+970926033+966367028+966952969+972382646+979948602+987086849
845+992618094+995255286+993161521+987128138+981501207+979914971+982607603
835+987956602+994290153+1000587256+1006835841+1013580867+1019921096+1023191276
825+1022325321+1019879011+1019016915+1020120371+1021907536+1024407264
817+1028503030+1033446128+1036136984+1033927500+1028608885+1025393164
808+1026353274+1027442639+1026398421+1027997767+1035079043+1041839814
800+1041597596+1035709519+1029276361+1024514896+1020731366+1017060614
791+1014604625+1013956200+1012145389+1005724667+994989117+983555645+974837839
781+969958266+968359227+968183046+968097039+968763535+970249981+970624701
771+968909270+966473802+965009655+965822866+969772713+975044526+977468783
761+975802420+973736405+975187810+979805195+984643602+988859068+992162573
751+993315219+993167892+994131432+996742038+999725099+1002782405+1007053248
741+1011477239+1012059627+1007784311+1001950265+998485465+1000496041+1008249511
731+1017388288+1022501073+1023005356+1022722524+1023753142+1024127250
723+1022189510+1017798845+1009584892+997858481+988352518+987969712+997922435
713+1011284212+1018147162+1015631691+1009497905+1005002915+1002167550+999409064
703+996938189+995880923+997245954+1001431954+1005617280+1004417893+999096093
693+997761998+1003539441+1009255013+1005857353+994998122+984310905+976455195
683+971313128+969685542+970808723+972564340+975651479+981423409+985582884
673+980549123+964894182+944509753+929893884+932157950+951624905+978220429
663+997845126+996835336+978861687+964421570+965619058+975666303+977969084
653+968102797+959514247+962144702+971167944+975498638+970784403+961604827
643+953212551+947062837+944315746+946481675+951502326+953069144+947831758
633+942003715+943608145+952008202+959156434+960070416+958330726+959414885
623+962934573+961369348+949798718+934961032+925794321+923966541+927501482
613+931459109+929795993+922721945+917097649+919318159+928104024+934247182
603+930927505+922638388+917773762
##END=
