##TITLE=<SNM>
##JCAMP-DX=4.24
##DATA TYPE=INFRARED SPECTRUM
##DATE=29/4/2025
##SAMPLING PROCEDURE=Instrument type and / or accessory
##ORIGIN=Admin
##XUNITS=1/CM
##YUNITS=ABSORBANCE
##RESOLUTION=4
##FIRSTX=4497.3318
##LASTX=599.83466
##DELTAX=-1.4281778
##MAXY=2.1964016
##MINY=0.66029048
##XFACTOR=1
##YFACTOR=2.0455584e-09
##NPOINTS=2730
##FIRSTY=0.67954797
##XYDATA=(X++(Y..Y))
4497+332206584+335709565+337064741+336410143+334871568+333400391+332445433
4487+332164450+332341496+332478447+332348227+332065874+331518855+330349262
4477+328469038+326347022+324920834+325001781+326496590+328481568+330145234
4467+331263019+331767262+331446067+330604371+330391076+331355476+332560064
4457+332965236+332776243+332618807+332344205+331689520+331134809+331132536
4447+331371706+331186880+330011284+327924205+326146927+326007587+327377857
4437+329222678+331182043+333131034+334005424+332999736+331256492+330563985
4427+331007007+331142851+330085937+328537164+327762719+328383138+330087656
4417+331458655+330580972+327448780+324800317+324993856+327249968+329032432
4407+329133339+328283309+327855176+328840934+331072190+333179317+334138180
4397+334459374+334985180+335472785+335300605+334517797+333336315+331767553
4387+330468789+330494081+331431615+331308679+329233867+326627714+325109040
4377+324867511+325545507+327093435+329223348+331106661+332048536+331984898
4367+331412267+331100979+331278054+331155352+329970315+328172437+326941245
4357+326901412+327852670+329287599+330624622+331332106+331300258+330776346
4347+329790326+328310670+326833519+326056277+326072391+326402968+326771775
4337+327189767+327273599+326451687+325143570+324720856+325789018+327294404
4327+327786525+327016947+325797585+324744721+323789529+322921375+322792291
4317+323900081+325549179+326506060+326575381+326603033+327084286+327670466
4307+327849843+327537857+326946868+326335745+326008024+326297952+327220713
4297+328138257+328297616+327744945+327289858+327615628+328720999+330063442
4287+331001092+331171436+330618241+329656289+328605523+327646689+326966333
4277+326847651+327271822+327645465+327481852+327062432+326934135+327155122
4267+327469002+327787166+328230568+329029373+330446731+332468248+334436879
4257+335316398+334595888+332766511+330772529+329289376+328612254+328687752
4247+328953700+328665024+327712251+326758225+326520542+327149061+328194931
4237+329089660+329672461+330149343+330668563+331210599+331649163+331737511
4227+331414248+331091597+331059195+330960123+330412202+329641661+329033918
4217+328545468+327971002+327332809+326806916+326634211+327117008+328298140
4207+329589270+330209630+330201209+330391251+331117850+331828482+332189625
4197+332664380+333576272+334358613+334227664+333057168+331320917+329734526
4187+329088116+329909911+331824898+333361142+333083917+331177002+329279090
4177+328474429+328209151+327660297+327283564+328019750+329681960+331218116
4167+332151862+332714353+332881608+332377161+331431352+330583711+329906240
4157+329168247+328496020+328240883+328399980+328533434+328374687+328301608
4147+328638828+328704303+327686114+326360542+326310395+327506504+328284766
4137+327804999+327015810+326971549+327619532+328362711+328863487+329243629
4127+329838172+330715039+331525004+331981022+332140090+331981780+331338517
4117+330575902+330624418+331840458+333262566+333504066+332364806+331049404
4107+330575349+330567685+330108345+329267668+328980566+329650753+330638142
4097+331110391+330919009+330406695+329722725+328898337+328297295+328247993
4087+328449544+328438559+328288204+328179051+327905061+327445458+327388434
4077+328229315+329709088+331117472+331806220+331371298+329901403+328200701
4067+327327097+327684686+328728983+329536267+329546815+328863021+328017536
4057+327448868+327105091+326722006+326428726+326702774+327650681+328683294
4047+329142110+329019640+328781229+328627785+328375212+328045596+327885538
4037+327793285+327577893+327642639+328429351+329413506+329640292+329032811
4027+328445407+328732043+330096281+331957158+333326583+333675751+333376702
4017+333071096+332886911+332547738+332037143+331787863+332061066+332420461
4007+332261248+331727400+331579405+332260461+333451704+334399611+334493146
3997+333626506+332171997+330764662+330106917+330536857+331372551+331316634
3987+330107441+328858650+328353270+328194145+327885830+327643746+327899146
3977+328776071+330084305+331247342+331469903+330563110+329335852+328711413
3967+328796497+329163731+329558442+330006243+330606614+331345714+331865138
3957+331679904+330986028+330714136+331408042+332645003+333601535+333646554
3947+332783528+331834281+331583106+331886235+332179806+332323430+332301430
3937+331936848+331415792+331376426+332212120+333597951+334782171+335367507
3927+335544524+335491142+335078511+334456693+334309019+335226272+337157256
3917+339062161+339177666+336912754+334063672+332715081+332880588+333465050
3907+334686713+337874152+343164522+348583713+351707397+351440254+348082296
3897+343083662+338646965+336599194+337221244+338692509+338792629+338145287
3887+338996249+341277683+342582362+342074156+341282695+340533863+338810957
3878+336839850+336563266+338402988+341264337+344353958+346905506+347341011
3868+345702025+344322838+344310192+344071809+342204260+339886025+338972735
3858+340376223+344933175+353167501+361183376+361469721+354725628+346928788
3848+341341875+339032702+339957239+342940330+346378914+349619676+352720632
3838+354700306+353836872+350246127+345940378+342867571+341880531+342719692
3828+344341545+345495403+346177799+347954553+351118011+352599620+350513269
3818+347420763+345461894+343690502+340920153+338080016+337092015+339286819
3808+343907060+347861193+349642375+351120167+353045003+353197281+351172587
3798+349438347+348652101+347344974+345301807+344148560+344830753+346536787
3788+348027691+349005756+349999702+351741722+354865231+359179604+362901357
3778+364240857+364014858+364789798+368309446+374530035+381576033+386637344
3768+388796017+389792876+391059792+392679197+394967216+398272899+401330380
3758+402420454+402518476+404656140+410929965+420480277+428514946+430792242
3748+429624076+429764466+432749042+436033221+437546183+439208743+443905501
3738+452615194+463037390+470583988+473256024+473312582+473121317+473288601
3728+473931077+475022229+476106680+476682137+476404796+475039421+473013096
3718+471507972+471669080+474329868+479539407+484588334+484553222+479062817
3708+473331202+471099333+472033108+473721338+474268531+473868488+473923647
3698+474868436+476282006+478470837+482374124+487734834+492057074+492577722
3688+489883512+486999376+485395618+485035174+485914110+487962697+491019508
3678+495206546+499338569+499988360+497168679+495376249+496038860+495520135
3668+490980637+484890472+480768559+479895306+481391921+483637863+485931214
3658+488083069+488920948+487902759+487580661+491162578+498890710+505837578
3648+505709834+499342532+491988074+486683019+483638009+482105524+481477705
3638+481126206+480552497+480200299+481632110+486495425+494703148+502156852
3628+503052397+498195463+492440771+488361080+487333362+490352235+495521300
3618+498006412+496145740+493347738+493031293+495793979+500276482+504510899
3608+506551356+505852846+504142937+503551191+504447318+505670031+506581602
3598+507772845+509345920+510288144+510411109+511302458+514121090+517641029
3588+519181935+517296320+513127232+508911813+506455898+506532299+508389184
3578+510409944+511616455+512166184+512845404+514575360+517895526+522051093
3568+524748218+524152101+520989051+517338629+514626469+513517106+513929766
3558+514906316+515286691+514567784+513138538+512145903+513043429+516403048
3548+520872963+523816250+523709894+521880749+520739916+520847554+520695567
3538+518868171+515785660+513270768+512694291+513707789+514628801+513844215
3528+511126869+507998844+506254784+505759545+504800128+503158927+503095871
3518+506064975+510167744+512218167+511512489+510041690+509572093+509881137
3508+509734045+509009078+509036759+510365129+511452871+510795389+508988681
3498+507367061+506211076+505495782+506040207+508340989+511043183+512228249
3488+511836801+511051400+509924728+507609378+504532927+502667593+503269013
3478+505453881+507475165+508316920+507664216+505489547+502641659+500777024
3468+500282193+499348651+496716681+493968797+493251056+494249169+494959101
3458+494418813+493297853+492466180+492195133+492276254+492202301+491632234
3448+490979705+491013972+491658866+491809979+490575961+488259415+486028858
3438+485000266+485564302+486983641+487901506+487840490+487462912+487159667
3428+486790540+486759770+487592550+488598996+488577113+487521568+486313425
3418+485440346+484949711+484722809+484365512+483680464+483160311+483250116
3408+483624372+483887610+484270870+484837061+484803260+483690021+482551869
3398+482957827+485009095+486904035+486521037+483599546+480115593+478169166
3388+478006019+478368648+478322610+478327184+479509453+482098881+484806961
3378+486187401+486472055+486924548+487661142+487617172+486594263+485985908
3368+486948704+488821731+490019764+489943770+489357444+489311871+490347223
3358+492460468+495178689+497762523+499657870+500518798+500149554+498816931
3348+497188726+496074875+496168410+497385236+498770600+499622437+500024375
3338+499839345+498508412+496455541+495294369+496031750+497860370+499043571
3328+498661389+497085226+494953390+492732798+491283212+491442950+492872663
3318+494331747+495173969+495739199+496328847+496642669+496316434+495461450
3308+494446670+493520238+492768463+492171880+491713705+491514980+491663529
3298+491851880+491690744+491418648+491553443+491937198+492129338+492513209
3288+493889424+496212992+498508703+499920408+500380040+500462036+500926447
3278+502068737+503313362+503720253+502864919+501053316+499031158+497683324
3268+497379642+497600221+497787232+498044293+498552935+499065483+499327730
3258+499237400+498576596+497362800+496060655+494948436+494017634+493501007
3248+493585567+493924798+494178537+494527151+495096227+495337786+494448943
3238+492564260+491269400+492006723+493935171+494647959+493294706+491425175
3228+490513604+490461971+490525376+490439242+490533768+491035534+491464745
3218+491062225+489821155+488543400+487757503+487146934+486242531+485184335
3208+484516420+484414319+484439203+484141028+483607705+483181990+482831687
3198+482196670+481268985+480538569+480235003+480019057+479727875+479730061
3188+480148753+480423792+479968472+478771489+477255118+475909412+475029019
3178+474473375+473821225+472873260+471715089+470531481+469641385+469321589
3168+469427071+469453674+469018315+468194888+467470357+467262046+467314932
3158+466931469+465955501+464889583+463901495+462612200+461026159+459737098
3148+459010469+458371198+457349542+456249881+455865806+456494208+457425506
3138+457638713+456904887+455836172+454963413+454264991+453543578+452768755
3128+452059901+451692143+451979420+452746143+453164107+452606190+451383740
3118+450169973+449210527+448601444+448692647+449506808+450250891+450130315
3108+449350917+448688248+448318333+447661434+446411593+445116937+444445089
3098+444445031+444843268+445481257+446033170+445867488+444796617+443583345
3088+443156261+443573875+444117892+444198344+443880879+443640631+443807945
3078+444214486+444328127+443808557+442910098+442220097+441970671+441814401
3068+441305758+440355841+439142656+437806128+436469950+435474664+435314722
3058+436150650+437361474+437915340+437486099+436853122+436893625+437575147
3048+438161939+438021754+437076324+435763282+434638125+433894188+433322956
3038+432675992+431876546+431011189+430357611+430220630+430587223+431194470
3028+431847874+432323852+432241973+431452026+430248050+429075572+428316250
3018+428199084+428615037+429093696+429115841+428441371+427211986+425878226
3008+424976242+424782732+425064794+425237381+424909281+424313281+424013445
2998+424137546+424207537+423766787+422950674+422329323+422235235+422375945
2988+422154637+421288144+420048414+419029293+418782023+419403199+420332748
2978+420808348+420567634+419884918+419077634+418386729+418100005+418225126
2968+418211927+417524956+416418185+415690391+415682524+415904123+415744589
2958+415234897+414844178+414760084+414749128+414631816+414499207+414420766
2948+414266419+413960435+413691194+413670302+413794840+413755794+413429034
2938+412938166+412394790+411846898+411427506+411254831+411188716+410966243
2928+410593444+410295881+410067026+409631638+408955273+408411810+408250790
2918+408249596+408093762+407833234+407704500+407681568+407501608+407064996
2908+406504778+405915654+405378951+405176642+405595538+406517249+407440505
2898+407879390+407637015+406894827+406177348+405995028+406352500+406731884
2888+406605743+405858805+404732891+403529992+402463317+401696798+401368027
2878+401472460+401728763+401778444+401601106+401445011+401301562+400869524
2868+400149277+399645763+399824033+400628082+401570103+402122774+402047917
2858+401447255+400574875+399732683+399230596+399156584+399236657+399149416
2848+398907683+398786262+398966310+399334796+399619800+399696027+399625045
2838+399432498+399103494+398721400+398316345+397733748+396944122+396244592
2828+395866723+395600980+395083537+394315998+393640828+393335689+393475117
2818+394008994+394694654+395093094+394935775+394395808+393797827+393273129
2808+392854786+392628846+392610955+392644231+392554018+392335420+392101059
2798+391908336+391724151+391485536+391061453+390294293+389322143+388655481
2788+388616115+388893427+388931657+388525232+387846478+387230780+387041846
2778+387375220+387869002+388105054+388047825+387814717+387352754+386654215
2768+385923391+385331033+384935127+384816824+384965373+385145653+385139796
2758+384985828+384828509+384695142+384507664+384217590+383870287+383496701
2748+382984591+382236167+381451844+381024352+381094022+381355075+381374044
2738+381068410+380775072+380773003+380887430+380773382+380444932+380238339
2728+380319199+380465533+380347696+379890600+379317968+378884037+378611795
2718+378342118+378038581+377891577+377968590+377949359+377518778+376897631
2708+376625652+376906664+377457354+377885779+377996767+377788485+377306853
2698+376633053+376012577+375734070+375765860+375805605+375725358+375578208
2688+375268931+374703351+374083603+373663250+373477026+373524988+373839364
2678+374223789+374287136+373856118+373158133+372565163+372234499+372010132
2668+371677748+371284960+371129797+371426865+372006431+372382406+372227476
2658+371730460+371328755+371200225+371203460+371154594+370984454+370763759
2648+370645981+370671331+370683394+370539129+370275454+369991499+369698015
2638+369341796+368935925+368632680+368596374+368800314+369057608+369247271
2628+369377753+369447948+369360008+368982285+368325676+367668368+367342424
2618+367371563+367530834+367707356+367891424+367924904+367684657+367431355
2608+367553009+368028579+368506073+368820070+369093594+369386553+369537287
2598+369373237+368939626+368475303+368175146+368037729+368003287+368132138
2588+368484656+368900872+369119207+369098373+369029314+369021826+368942336
2578+368624725+368147785+367793635+367735970+367877001+368014680+368041983
2568+367929537+367639521+367172547+366663350+366343205+366367011+366656823
2558+366955639+367107509+367209319+367372758+367479842+367362297+367094455
2548+366899256+366849749+366822709+366693246+366486071+366331520+366295884
2538+366293698+366196142+366015658+365939985+366134893+366527652+366882938
2528+367091133+367224530+367301106+367199558+366857646+366398393+365998699
2518+365722670+365544983+365486968+365611564+365874948+366138215+366349353
2508+366534354+366619992+366463838+366075654+365687674+365592770+365891236
2498+366338309+366530129+366339417+366085503+366187925+366687477+367170507
2488+367235311+366969334+366754758+366706155+366641671+366510693+366478087
2478+366651986+366974346+367271385+367324417+367077671+366749571+366561569
2468+366504341+366515122+366646770+366911174+367145273+367157220+366954270
2458+366785732+366873323+367090580+367122283+366947509+366834481+366872186
2448+366895089+366836375+366813064+366912689+367088802+367163077+366920323
2438+366379395+365894092+365834154+366271291+366981135+367550561+367582701
2428+367077234+366501485+366286093+366416605+366640884+366865018+367173683
2418+367564344+367860800+367957889+368013806+368256676+368689646+369128298
2408+369454563+369726746+370072155+370491255+370793684+370833196+370730366
2398+370685696+370737738+370951790+371632438+373111978+375555014+379160562
2388+384380183+391807575+401889578+414689511+429931896+447381907+467036775
2378+488715638+511638542+534651835+556796739+577604125+597157504+615731186
2368+632594725+645935411+654453605+658479623+659246142+657292343+651670988
2358+640642273+623781065+602533453+578798865+555231066+535862426+524244120
2348+521944621+528673066+541895333+556593002+568043877+574971747+578813259
2338+581234558+582712000+583300774+583921717+585497705+587290427+587255461
2328+584299586+579559207+575045409+571622268+568626532+564893007+559554355
2318+552419543+544310513+536509768+529419888+522278316+514353907+505815374
2308+497252073+488868557+480447860+471930831+463768011+456578448+450544170
2298+445282706+440288093+435351787+430573586+426156878+422246366+418827275
2288+415734303+412834025+410190224+407982657+406268756+404873106+403560908
2278+402337205+401469284+401109510+400996365+400695975+400081676+399368101
2268+398690571+397927432+397032791+396255053+395791604+395440368+394878693
2258+394132483+393482023+393044974+392709734+392370590+392025765+391729251
2248+391578313+391677908+392015566+392383382+392502151+392287225+391945867
2238+391725521+391660076+391691225+391864745+392175333+392394455+392309399
2228+391989167+391630791+391313472+391010897+390658787+390166170+389514428
2218+388848029+388363921+388127461+388037569+387943859+387761277+387472426
2208+387088700+386694455+386472740+386560331+386890500+387250798+387464238
2198+387517066+387575344+387825819+388249260+388659531+388990429+389372873
2188+389896347+390459013+390884174+391072526+391070020+391082229+391346545
2178+391898458+392549035+393123094+393572207+393857707+393948473+393947949
2168+393988510+394020737+393950309+393913303+394140904+394602110+395038489
2158+395317928+395531717+395757075+395916142+395926778+395889218+396016117
2148+396372132+396770194+396969443+396905513+396682021+396434634+396295643
2138+396418142+396891381+397595369+398259437+398762107+399245195+399826160
2128+400388214+400787995+401068191+401336441+401640706+402054444+402672648
2118+403458486+404252075+404944174+405526684+405971134+406182884+406174609
2108+406201824+406535315+407132860+407726005+408139597+408354436+408440016
2098+408579706+408930855+409369944+409611736+409604510+409603927+409871419
2088+410433968+411103544+411642083+411904592+411877231+411671542+411490067
2078+411477712+411592023+411721106+411886497+412193734+412640720+413157113
2068+413768411+414484404+415084367+415283850+415098529+414840565+414837797
2058+415273593+416118000+417113140+417982082+418663691+419253689+419830749
2048+420432577+421088690+421831840+422695653+423615266+424343614+424647413
2038+424622645+424685759+425226862+426317402+427746066+429269518+430735655
2028+432022676+433076705+434000719+434904918+435769867+436662119+437858578
2018+439458985+441098612+442367801+443341466+444428247+445879931+447623000
2008+449403687+451016944+452514550+454144182+456000834+457905593+459672964
1998+461280422+462819026+464489482+466439610+468391136+469801589+470601705
1988+471275767+472138240+473043895+473819797+474610210+475731375+477334870
1978+479272032+481272336+483146325+484773189+486153804+487626351+489675171
1968+492284122+494780132+496585557+497892889+499365319+501410613+503891587
1958+506386024+508633948+510749233+512996341+515473819+518124263+520879432
1948+523690429+526631851+529894672+533237856+535758284+537037351+537994903
1938+539648750+541872780+544010619+545877177+547683244+549634071+551890795
1928+554568863+557773231+561543470+565440987+568690113+571233094+573676304
1918+575865951+576925430+577066752+577731577+579690272+582213556+584130058
1908+585115058+585733495+586610741+587947385+589603971+591329790+592971049
1898+594634570+596560338+598624514+600293280+601359286+602178138+602901940
1888+603121761+602602454+601825969+601557078+602049986+602737657+602934050
1878+602782005+602982246+603786528+605099512+607289800+610627390+613880945
1868+614886808+613220898+610563344+608308834+606662389+605443872+604645475
1858+604305253+604273667+604185086+603681105+602773322+601926439+601698575
1848+602366839+603688390+604598329+603663622+600838288+597675005+595358256
1838+593994163+593213890+592781066+592934568+593998941+595349747+595465311
1828+593892993+591797173+589873328+587663983+584953280+582314375+580305446
1818+579008896+578172327+577575162+577357846+577734724+578308230+578192142
1808+577061157+575617283+574947445+575703125+577559019+579242645+579610724
1798+578932261+578666692+580079913+583043131+585484826+585077236+582424810
1788+580148680+579737768+580976390+583118425+585655462+587911778+589096319
1778+589497149+590602200+593567865+598021171+601958841+603404813+602587884
1768+600967663+599614177+599512192+601478054+604841345+607414047+608210521
1758+608403185+608943939+610022182+612406708+616901041+622341911+625840171
1748+626272879+625275466+624545544+624791882+626294616+628703327+630791397
1738+632248267+634896555+640070866+644983861+644934967+640814190+636576219
1728+634260402+634284004+636127834+638766157+641805368+646057909+652312911
1718+659417011+663824103+663357478+659896690+656197548+653863374+653810459
1708+656362065+660412268+663777248+666143300+669688123+675101428+679053784
1698+679100697+677166654+674839997+672671621+671993858+673423746+675877563
1688+678629876+683046001+689746648+694326823+692431418+687617668+684761097
1678+685579366+689481196+693864744+696258128+697534863+699516694+700980499
1668+699599447+696816073+695940983+697862789+700417775+700992795+700133324
1658+700816274+705602400+715607711+728243302+734371493+731938947+729748659
1648+731051211+732097227+728604154+722635235+718520635+717954298+721131917
1638+727845852+736184611+740970271+739272483+735627889+734833397+737546548
1628+741890700+746310672+750960954+755926225+760114195+763569854+768589847
1618+776902906+786368687+791768996+792121514+791160699+791428541+792881623
1608+794401374+795411317+796095316+796545332+796521555+796023868+795503337
1598+795636500+797141216+800410738+805027686+809776632+813164049+814175623
1588+813124537+811674951+811475993+812802206+814774013+816846698+819703734
1578+823897882+827406923+827072878+824805140+825571077+830856697+837754320
1568+842374590+844480260+845759676+847141777+850108316+856842298+866338149
1558+870971415+868354888+865391263+865191197+866646202+867835406+867595362
1548+866612751+867086836+870245981+875060722+879860427+883280129+883005586
1538+878998916+875347912+874155387+873431410+870395054+866348581+864605803
1528+865300350+866158889+866718524+869113948+874101072+879271886+882530103
1518+884693408+886733458+888466445+889955717+892022341+895744677+901802469
1508+909064558+912740913+909281815+904048936+902092223+903172331+905243093
1498+906854922+907668296+908112135+909761261+914291668+920830304+925121775
1488+924110550+920462984+918578942+920280226+924753813+929910873+934396989
1478+938546846+943159540+948054236+951418343+950683643+946440251+942561674
1468+940891044+940437531+940084080+939615940+938980603+938590321+939474326
1458+941517814+942490401+941635359+941038893+941323343+941083300+938852101
1448+934320238+928866255+924898107+923940672+925651514+928719397+932002440
1438+934167785+933334888+929664186+926348333+925461996+926469608+928018964
1428+929584987+931592868+934336789+937876659+942914834+950123832+956593352
1418+955871881+947586038+939002456+934728295+933500104+931935130+929135962
1408+927342250+928347064+930953568+932553741+932618254+932606599+933051079
1398+933564384+934491981+936001941+936609597+935198008+933379412+933034761
1388+933324049+931935771+929054665+927638822+929545650+933914221+938856705
1378+943602446+948680075+954356734+959604940+963540104+967014412+970555681
1368+973009440+974122883+975476311+977529181+978859881+979123993+979554545
1358+980491991+981430369+982903616+986213524+991114398+995124681+996093014
1348+994922343+994298428+995747431+999323899+1004132812+1008214542+1009638836
1338+1009269708+1009871828+1012790114+1017169058+1021249973+1023383382
1330+1023591781+1024174086+1026602495+1029817178+1032215749+1033667199
1321+1034835073+1036198991+1037712681+1038976480+1039908448+1041413513
1312+1045168309+1051483569+1057987531+1061921471+1063247859+1063756735
1304+1064880551+1067544282+1071256186+1073741823+1073543215+1071460856
1295+1069112054+1067627036+1067306628+1067143452+1065570203+1063312313
1287+1063032933+1063534699+1059778970+1051294635+1043581189+1040981213
1278+1042912517+1045510396+1045319247+1041789634+1036153185+1029195827
1270+1022476357+1019478930+1022162243+1026871735+1027194940+1022319941
1261+1016312500+1011348920+1007200986+1003700395+1001104965+999319353+997722093
1251+995739505+993142559+989924496+985747656+979803971+972019952+963559802
1241+955513127+948133726+941624753+936216809+930966505+923839153+913914323
1231+902927509+893786041+887817471+883991810+880741111+877869447+876021421
1221+874841658+873028074+870074588+866663278+863496323+860697622+858408438
1211+857025463+856469149+856106665+855870760+856598816+858709206+861578248
1201+864482256+867319478+870333047+873703331+877409174+881151091+884768178
1191+888676709+893033741+897034525+900218263+903438774+907194911+910437101
1181+912441077+914196501+916972941+921091619+925906768+929918274+932306472
1171+935017291+941412216+951938466+962638731+969411875+972073276+972452951
1161+972308307+973814189+978882493+986646173+992946165+994302391+991470471
1151+987574878+984810910+983842227+985071758+989152906+995760834+1002807706
1141+1007284323+1007515333+1005479480+1005262106+1009124598+1015465500
1133+1019668215+1017903000+1011641937+1007137581+1009088466+1015613175
1124+1021164189+1024035503+1026853902+1030476642+1032272394+1030818962
1115+1028184836+1026327893+1026450858+1029726499+1035000813+1038703160
1107+1038506416+1034475736+1027336903+1019004088+1013670098+1014866994
1098+1021405456+1028698374+1034310928+1038394174+1040792512+1040656609
1090+1038484504+1036456343+1034845563+1032130431+1028032383+1024281316
1081+1022547805+1022548620+1021755469+1017661966+1011672242+1008025841
1073+1008854425+1011891014+1013450160+1012752350+1011371415+1009671471
1064+1007927586+1008598589+1013459601+1019749336+1021378415+1016155385
1055+1008199623+1002381700+999608291+997502622+994869544+993436975+994462420
1045+996245933+996231830+994654734+993254218+992053010+990810541+991298321
1035+994889242+999082981+999399542+994970480+989615627+988050536+992447196
1025+1000143275+1004716049+1002430420+995898485+991352635+994368011+1005115947
1015+1015712479+1015530188+1004100060+991864308+986434161+987606930+990975932
1005+991885288+987963237+980349795+972230682+965293721+959384886+954251602
995+950158449+946973429+942614357+935029005+925365956+916845430+911790646
985+910310698+910560474+909736785+905966196+900215175+895486684+893744955
975+894080923+893857372+891511309+888039041+885624968+884946448+884172702
965+880898343+874945275+868819299+865371448+865541151+867820545+869083585
955+866916026+862135960+858191938+857780210+860762776+865147198+869251715
945+872691348+875942863+879479644+882910886+885498157+887841306+891484735
935+897187153+904696453+913486336+922799955+931588789+939558945+947149484
925+953810153+958113745+959340886+958659510+958218410+958721459+958920125
915+958019569+957651549+959495554+961496266+959412218+952572055+944908903
905+940614985+941360816+945738711+949469963+948669876+944528120+942260498
895+945339221+952306544+958697332+960977367+958492546+953800362+951467528
885+954610706+962059107+969509082+973999685+975243902+972727029+966379366
875+959052240+954812520+956419745+964123575+974365898+980574861+978838319
865+972511403+968067014+968879514+974535310+980897833+982470267+978011366
855+971472788+967833381+968982606+972823244+975718103+976241198+975480274
845+973984474+971586603+969702911+970650789+975407252+982647429+988816531
835+990860659+989742787+989631828+993080203+997614863+998663619+995211747
825+989858526+985109638+981875374+981214744+985531565+995785427+1008374921
815+1016190934+1015041010+1008967017+1005764338+1008686704+1014092258
807+1016531506+1015596041+1014764660+1014504977+1012902472+1011674573
798+1014513835+1020046550+1020842965+1014797878+1010089085+1012593137
790+1018841262+1023254007+1025184612+1024548459+1019084744+1010468003
781+1005420853+1007870124+1012841048+1011049142+1001875621+993479401+989499888
771+986296161+982058947+979975189+981385380+982636473+980520430+977472886
761+978692743+985538558+993300374+996648046+995839392+994693663+995460241
751+997334201+998186445+996288242+991935873+987189433+984584911+985653947
741+990627551+998441117+1005070141+1007230008+1006749455+1006734536+1008850346
731+1014147505+1020827114+1023571151+1020253900+1013585014+1006403988
723+1002183441+1004265917+1013068678+1023219041+1027395763+1025826360
714+1023806824+1021032949+1015085300+1008684140+1004920019+1003368565
706+1002298364+1001392854+1002675184+1006232304+1008405225+1006200018+999236483
696+990182547+983765068+983175187+987573596+991675257+991237246+988239470
686+985959202+983375660+980342335+982208020+992671097+1005436937+1008963287
676+1001636569+992062101+984071373+976085540+968285436+961769761+956709790
666+953083612+951026895+951560655+954416235+956196019+956685081+959219553
656+966337173+977247353+985924236+987216357+981427223+973139806+968902125
646+970660405+974317179+971841624+960912388+949413609+944979943+946873483
636+948652043+944085214+934334458+925594577+922234725+924475423+928108245
626+928070947+924116144+921294190+921847532+921858721+918273278+914354257
616+910794923+905124907+896157920+884937881+876883689+877491345+886848497
606+901570642+916751138+928766135+937564759+938034939
##END=
