##TITLE=<SNM>
##JCAMP-DX=4.24
##DATA TYPE=INFRARED SPECTRUM
##DATE=29/4/2025
##SAMPLING PROCEDURE=Instrument type and / or accessory
##ORIGIN=Admin
##XUNITS=1/CM
##YUNITS=ABSORBANCE
##RESOLUTION=4
##FIRSTX=4497.3318
##LASTX=599.83466
##DELTAX=-1.4281778
##MAXY=2.128861
##MINY=0.38232473
##XFACTOR=1
##YFACTOR=1.9826563e-09
##NPOINTS=2730
##FIRSTY=0.39581075
##XYDATA=(X++(Y..Y))
4497+199636599+200348100+201254200+201822331+201886170+201555447+200910850
4487+200195621+199794550+199776693+199985465+200411894+200894556+200906190
4477+200206879+199308641+198918363+199191606+199698198+199952456+199807146
4467+199344852+198695416+198118296+197976924+198506379+199670765+201069808
4457+201995930+201990068+201268465+200283946+199367670+198938325+199222451
4447+199733672+199916305+199979543+200210577+200144589+199341455+198332720
4437+197922090+198026213+197957188+197537343+197223831+197243762+197297846
4427+197281988+197701637+198930073+200369054+200826208+199775460+197915942
4417+196340910+195539309+195376398+195589289+195973013+196257500+196179171
4407+195812853+195624102+196016680+196909702+197901421+198637830+198843040
4397+198385286+197573343+196986739+196826202+196749361+196354348+195609597
4387+194887332+194600456+194753732+195034957+195262354+195341510+195051476
4377+194499534+194367227+195038519+195948317+196376159+196364269+196390529
4367+196652408+197018861+197314411+197419075+197274983+196895633+196298265
4357+195557903+195007464+195061563+195619412+195964370+195556535+194678515
4347+194045658+193986178+194268019+194515137+194511169+194294925+194161190
4337+194333602+194558999+194424753+194118320+194231462+194798661+195322480
4327+195689264+196197885+196828938+197302160+197511579+197248993+196079211
4317+194199400+192834599+192975099+194089339+194739332+194313985+193562274
4307+193446757+194065950+194796091+195148896+195286194+195612783+196066104
4297+196245129+196156233+196248511+196739500+197448597+198137837+198531978
4287+198301335+197533254+196867824+196735923+196814958+196639285+196422666
4277+196681073+197225965+197244875+196434466+195460379+195213757+196002385
4267+197352981+198382099+198535120+197972024+197174227+196477110+196050230
4257+195945566+196061474+196305480+196730962+197415858+198385812+199580591
4247+200708571+201299791+201105012+200367732+199645963+199351075+199443790
4237+199567770+199425602+198953146+198232520+197531330+197392048+198238969
4227+199776693+201109417+201563338+201155999+200354805+199723030+199619252
4217+199842606+199833151+199498820+199366437+199708600+200146212+200287959
4207+200220062+200207631+200323539+200501362+200672030+200795258+200821353
4197+200676344+200409745+200272853+200519294+201131363+201796327+202152859
4187+202084511+201820242+201706603+201845750+202052298+202150078+202207273
4177+202489054+203226049+204440565+205865162+206932579+207063624+206219424
4167+205025652+204141438+203702623+203543364+203601461+203827490+204055022
4157+204237715+204511935+204918702+205353970+205726436+205898111+205683040
4147+205158635+204662761+204360522+204179227+204105723+204163249+204217678
4137+204123656+203931538+203743884+203524304+203303010+203448440+204357997
4127+205840675+207138180+207660601+207371966+206512403+205423791+204553827
4117+204163790+204164586+204499864+205332084+206579609+207634205+207911416
4107+207572726+207351523+207608411+207901992+207680081+207054951+206592131
4097+206594220+206900427+207230158+207421825+207412145+207242559+207076957
4087+207073680+207199088+207232037+206985190+206543895+206305765+206607388
4077+207249368+207660901+207585188+207258207+206923185+206538543+205976695
4067+205299676+204850414+205075030+206074821+207333650+208084414+208036945
4057+207648275+207536470+207709844+207604082+206927619+206166679+206035318
4047+206654076+207427251+207644562+207166680+206464889+205995695+205747585
4037+205514912+205348784+205451960+205842554+206430843+207225904+208193017
4027+209091751+209643828+209742119+209496790+209194551+209145759+209440738
4017+209870068+210090655+209841493+209154883+208424697+208072780+208125074
4007+208267498+208260568+208195181+208426020+209241390+210484556+211596241
3997+212084705+211806547+210881568+209635366+208565107+208043047+208030421
3987+208255954+208595606+209063191+209541479+209782569+209680595+209444931
3977+209483502+210060352+210980926+211728383+211989346+211881990+211671038
3967+211533695+211607560+212014493+212749850+213561010+213988206+213695768
3957+212792134+211720327+210976943+211024187+212110319+213823491+215082620
3947+215152021+214569460+214370968+214662099+214759758+214494272+214292714
3937+214254399+214377432+215215454+217021415+218599769+218444208+216883952
3927+215616825+215587589+216247848+216640907+216776807+217411347+218704809
3917+219709651+219294781+217367155+214977971+213401631+213185358+214166329
3907+216439966+220483894+225754092+230068482+231687617+230867167+228437127
3897+225016406+221850198+220494777+221335715+222769706+222682222+221581194
3887+221775642+223676331+225268740+225645865+226159086+226767637+225671434
3878+223393859+222667702+224481615+227572965+230915222+233944448+235054796
3868+233789713+232306434+231903244+231185308+228890703+226170841+224578538
3858+224749897+227746068+235077238+243790269+245397123+239108599+231249703
3848+226118005+225120108+227686063+231777836+235312270+237879217+240066602
3838+241318337+240355673+237518911+234358190+231840923+230208050+229600822
3828+229966568+230882063+232561173+236238873+241616231+244819446+243601488
3818+241121724+239654243+237664116+234156633+230929968+229920392+231725240
3808+235335013+238500093+240597034+243535349+247712006+249879459+248204919
3798+244927538+241887535+239198112+237044772+236006426+236223135+237539595
3788+240060425+243612551+246911217+248820053+250282214+252936163+256220007
3778+258122756+258658689+259783498+262877734+268007388+274172263+279902035
3768+284743985+289303284+293650157+297703043+302693595+310037932+318919783
3758+326745218+332843593+339714467+350416964+365221591+378872639+385525136
3748+387674191+391114935+397068285+400950474+400262181+399049348+401644810
3738+409075457+418421661+424566994+425159206+422461079+419879537+419373757
3728+421270794+424377146+426542496+426581818+424937160+422247091+419148645
3718+416967693+417092545+420051378+425356540+431134052+434508235+434348330
3708+432032064+429677077+429242186+431652519+435781825+439197105+440558149
3698+440349511+440105580+441781804+446564050+453722266+460611599+463892888
3688+462579284+458982995+455559809+453794357+454503183+457600186+462600659
3678+469123344+475016779+476264334+473678223+472007470+471580004+468753568
3668+463189834+458509232+456630864+456784727+457472298+458110777+459371079
3658+461775519+464267774+465793112+467854684+473146137+481975467+489174810
3648+487824229+479465535+471165886+466786214+465705448+465222305+464175962
3638+464373235+467506975+472293099+476431785+480308262+485941832+492083408
3628+493636674+489726978+485043760+483734034+487483705+495075851+502430440
3618+506231218+507498314+508672155+510202062+511716457+513851473+516851041
3608+518788483+517793998+515107747+513448929+513863558+515433690+517218532
3598+519438746+522417150+525262616+526734862+527354281+529154034+532875596
3588+535990305+535387782+532062150+529090661+527427995+526515522+526559234
3578+527944237+529355877+528853644+526606914+525143446+527069283+532641705
3568+538564722+540047912+536406678+531525465+528277757+526599879+525657644
3558+525525968+526772561+529416123+532576348+535036045+536336692+536818181
3548+536492298+535162069+533716158+533613643+534959745+536302239+536337233
3538+535141867+533633665+532437096+531830124+532435353+534856929+538188454
3528+539735978+537459245+532529570+528257133+526979575+528619273+531258145
3518+532576288+531463595+528798989+526382884+525239227+525347634+526330154
3508+527477719+527845150+527371356+527284174+528551390+530778038+533225890
3498+535548078+537166972+537229864+535666106+533752594+533062948+533914213
3488+535055045+535047108+534143173+533929605+534633321+534331428+532002625
3478+529529160+529057712+530149781+530677808+529461037+527048540+524789724
3468+524058591+525620606+528745838+531360058+531930474+530802269+529281621
3458+528197969+527715398+527540130+526906161+525346431+523470679+522186507
3448+521593303+521140855+520439725+519711298+519526470+519938273+520059127
3438+518962548+516977607+515691751+516389093+518430252+519652134+518872599
3428+517118302+515645213+514154689+512035426+509916463+508908631+509348633
3418+510948407+513412012+516243287+518430733+519400446+519924625+520695982
3408+520656539+518290760+514221669+510842525+509731876+510385567+511142494
3398+511140750+510990675+511326720+511721447+511637992+511635227+512599228
3388+514179460+515065478+514757813+514532881+515981258+518749401+520623771
3378+520193629+518762869+518881378+521416112+524688051+526391963+525873075
3368+524297412+523210934+523383977+524450673+525527230+526538009+528164479
3358+530236603+531601104+531781722+531282015+530423595+529531264+529526154
3348+530746773+532011765+531929873+530410909+528274450+526379818+525523382
3338+526190240+528034306+530144189+531843652+532746625+532468783+531261211
3328+530463639+531139396+532582241+533022544+531434434+528114875+524219609
3318+521417855+521090168+522949206+525034618+525821187+525818781+526413609
3308+527870102+529263704+529821794+529509980+528547302+527130491+525664979
3298+524757196+524815157+525745007+526996350+527922171+528315516+528723772
3288+529945353+532030885+534152072+535377080+535242037+533988589+532498786
3278+531663214+531886522+533427853+536376375+539597928+540897733+539313472
3268+536422732+534465990+534039155+534280020+534440136+534523350+534626466
3258+534182255+532398315+529678934+527727723+527662366+528930124+530406098
3248+531423371+531506405+530517512+529334833+529093487+529729380+530117373
3238+529514610+528390613+527748226+527761815+527628876+526979635+526476320
3228+526489488+526197095+524756114+522699562+521450203+521799896+523315193
3218+525018925+526339954+527224228+527595386+527189655+525840186+523760727
3208+521671467+520398478+520060209+519937612+519336592+518400369+517870899
3198+518240614+519333526+520432930+520752681+520124965+519119838+518200510
3188+517046150+515180319+512970145+511275372+510423987+510154082+510270245
3178+510818414+511559889+511790472+511039678+509724601+508664098+508033977
3168+507347518+506380631+505417111+504590017+503695732+502636792+501536996
3158+500505624+499502331+498302305+496727664+495104531+494160642+494160282
3148+494427903+494045531+492925954+491893740+491622301+491807339+491673619
3138+491032434+490293846+489639885+488848927+487840643+486848653+485981215
3128+485034831+483963445+483229306+483314053+484004451+484539813+484464084
3118+484006675+483617329+483316789+482614186+481238412+479820970+479280888
3108+479550824+479641254+479007014+478047312+477179392+476361227+475657692
3098+475376783+475444395+475384900+475056011+474660652+474172639+473492914
3088+472934103+472853564+473019722+472956319+472628632+472302779+472091105
3078+471968027+471907601+471784011+471365474+470591321+469625336+468499115
3068+467025365+465353230+464155098+463922110+464499921+465356627+465913725
3058+465779073+465163682+464797966+464994879+465194166+464669116+463363959
3048+461943752+461152974+461110766+461302327+461350999+461433613+461663384
3038+461613690+460879311+459681570+458625125+458090183+457945069+457753508
3028+457259151+456574616+455855990+455061364+454133889+453234043+452683859
3018+452690533+453017830+452932511+451864522+450175461+448680487+447580330
3008+446657395+446159101+446420288+446878449+446552535+445384647+444252594
2998+443811810+443948957+444165772+444023213+443354671+442373114+441528012
2988+441062877+440836352+440686728+440635651+440629669+440509386+440261848
2978+439924180+439460668+439055418+439028933+439223771+439096845+438456503
2968+437472480+436245337+434950402+433971941+433484169+433269368+433074349
2958+432855791+432714164+432726069+432747083+432445551+431721994+430966029
2948+430639184+430660619+430503059+429950380+429404195+429286017+429493182
2938+429540260+428963381+427736269+426511441+426095218+426547847+427248255
2928+427767534+428070840+428051419+427560550+426735260+425824831+424937792
2918+424192800+423728867+423381730+422766941+421855490+421086027+420756746
2908+420675636+420525351+420183715+419659957+419072856+418641692+418454340
2898+418392530+418382639+418406990+418239269+417626344+416787646+416248976
2888+416085313+415756604+414834331+413547904+412487460+412022806+412117385
2878+412514908+412989002+413446922+413774609+413694581+413083971+412319438
2868+411863983+411608658+411098909+410327913+409797181+409824628+410198762
2858+410440289+410113834+409083965+407763357+406902682+406899676+407423374
2848+407722261+407253909+406175909+405224594+404927241+405057985+405089251
2838+404904123+404708021+404497069+404040983+403318088+402638934+402293299
2828+402269189+402342091+402273909+401942524+401467047+401120150+400949783
2818+400705941+400247811+399690803+399143957+398653118+398266387+397864595
2808+397200172+396278289+395362720+394620403+394092677+393850940+393901927
2798+394111677+394319352+394309101+393740519+392492963+391072245+390291989
2788+390449610+391050389+391434655+391433693+391255720+390991586+390483310
2778+389608055+388543554+387675875+387215219+387005349+386768963+386385239
2768+385886343+385375903+385010727+384921410+385066675+385197569+385046983
2758+384589033+384034972+383554324+383156681+382838554+382593209+382264200
2748+381633117+380679547+379639367+378855564+378558811+378630873+378615781
2738+378149654+377351721+376686667+376517833+376803041+377117259+377008852
2728+376433326+375758471+375339873+375236066+375243792+375020754+374321669
2718+373288883+372322237+371586745+370920037+370207003+369546548+369075220
2708+368804893+368587658+368257115+367911901+367878651+368206639+368425979
2698+368058699+367247809+366624001+366554886+366743952+366662963+366184570
2688+365586676+365097461+364703846+364340985+364035905+363812657+363582074
2678+363255770+362925918+362726149+362524276+362038728+361285289+360639595
2668+360408471+360510114+360635927+360647832+360678767+360822348+360953483
2658+360942721+360769437+360347262+359565744+358586772+357837511+357638163
2648+357892286+358138953+358009111+357615285+357272326+356984262+356567408
2638+356058561+355617537+355295892+355162954+355303198+355537749+355519231
2628+355156610+354651071+354200095+353911821+353862457+354036252+354286136
2618+354412701+354253848+353801279+353261077+352866680+352642259+352443663
2608+352159116+351793610+351462165+351323274+351407902+351546642+351574451
2598+351538405+351580644+351684391+351681084+351501127+351305206+351302200
2588+351454920+351456754+351093202+350567039+350270858+350266138+350246687
2578+350013609+349695572+349469738+349335627+349204582+349039657+348883900
2568+348783700+348670483+348417232+348085967+347962198+348232404+348722191
2558+349034546+348941741+348592018+348291148+348152467+348079684+347999596
2548+347936013+347938208+348071988+348362998+348662065+348698471+348371055
2538+347926423+347743339+347918396+348160704+348175796+348015530+347905379
2528+347936945+348135000+348593070+349284550+349879588+349980389+349512308
2518+348761634+348057648+347537197+347220483+347159214+347388325+347775056
2508+348057407+348113836+348101540+348225249+348442154+348504114+348247225
2498+347775988+347381741+347265577+347332408+347358352+347335444+347451607
2488+347765616+348126943+348371145+348418555+348275034+348087711+348087891
2478+348351544+348694864+348887748+348895715+348820407+348676976+348379382
2468+347947587+347614850+347674765+348194314+348856994+349157654+348835378
2458+348093243+347389407+347070348+347151669+347379366+347559624+347791079
2448+348222213+348674120+348786316+348516320+348211180+348163229+348324217
2438+348477989+348520589+348536672+348682899+348990594+349284941+349381113
2428+349315305+349232000+349129876+348925838+348680223+348550531+348613694
2418+348890815+349403900+350063904+350628247+350896560+350898844+350850924
2408+350962097+351269882+351628985+351889541+352078638+352350528+352788817
2398+353334791+353864261+354247294+354402810+354417751+354549097+354953414
2388+355444584+355638641+355292495+354384802+352960987+351115659+349114784
2378+347303908+345777337+344230565+342271388+339859371+337298693+334847414
2368+332606907+330808326+329831548+329848083+330763472+332489480+334916829
2358+337749458+340740278+344056109+348139449+352881441+357052746+359122254
2348+358529952+356081650+353401411+351666383+350864332+350637506+350887931
2338+351299705+351389022+351190696+351209215+351693530+352394299+353018378
2328+353545473+354037845+354521198+355140196+356113396+357438033+358850274
2318+360057725+360879769+361313067+361561207+361868391+362322012+362923573
2308+363715403+364674444+365615807+366336989+366789558+367099478+367480106
2298+368056624+368703160+369153684+369335205+369449414+369661659+369899277
2288+370061618+370237126+370545392+370899594+371102490+371114124+371082889
2278+371122422+371141872+370940841+370466326+369884757+369357963+368887025
2268+368456372+368158899+368060172+368102501+368205406+368291236+368249419
2258+368103853+368128986+368530207+369120314+369587464+369920171+370280928
2248+370679623+371064310+371485553+371909472+372110473+371940677+371472656
2238+370797140+369966168+369190391+368778738+368774860+368884440+368843434
2228+368680943+368584531+368683679+368985392+369393948+369831365+370381548
2218+371173348+372116786+372952689+373600306+374305014+375388395+376896687
2208+378533078+380019394+381491099+383330144+385618421+388002269+390102502
2198+391848021+393417642+395045916+396910545+399106017+401621962+404253769
2188+406627966+408508499+409985796+411197727+412126043+412870974+413730657
2178+414758812+415627243+416088590+416232742+416250870+416237161+416207219
2168+416135458+415952675+415511650+414625332+413261132+411660817+410203542
2158+409147639+408414792+407611989+406424019+404925437+403376440+401953918
2148+400745805+399782075+399284111+400037911+402918430+407817139+413671403
2138+419654456+425714981+431988954+438297139+444250519+449644878+454732865
2128+459922705+465243921+470412506+475216548+479521272+483179882+486148666
2118+488482068+490265978+491708041+493128218+494807328+497038035+500302849
2108+505158869+511900322+520422348+530284764+540633299+550236512+558104426
2098+563858669+567146001+567506697+565248784+561429938+556767704+551273445
2088+544705095+536930977+527998651+517920143+506727738+495077625+484111054
2078+474412181+465845331+458285082+451709968+445947968+440933636+436797926
2068+433510534+430804471+428367712+426012605+423887901+422313921+421296769
2058+420630031+420300540+420289357+420389587+420554212+420912563+421502159
2048+422499891+424368939+427439577+431755875+437344532+444321859+452957313
2038+463662906+476491581+490788383+505668317+520428722+534247251+546061539
2028+555100589+561369331+565457000+567827349+568548201+567853865+566374223
2018+564510195+562181934+559279169+555864610+552045885+547918292+543472151
2008+538548909+533069803+527232585+521315040+515351798+509190562+502914454
1998+497025378+492081393+488237024+485162478+482371608+479707723+477415658
1988+475615484+474095948+472845206+472256542+472500504+473152631+473705640
1978+474121622+474704544+475647922+476875365+478319443+480145741+482446314
1968+484858150+486833111+488269883+489586553+491174783+493050686+495057423
1958+497167576+499436854+501845804+504337728+506843241+509222128+511371394
1948+513433356+515838398+519016902+522741651+525882094+527579392+528455730
1938+529719038+531713119+534053766+536492719+539057516+541690556+544128607
1928+546193516+548201605+550707719+553639526+556343755+558717050+561232183
1918+563650693+565017960+565261410+565498006+566629338+568527577+570455940
1908+571860545+572732012+573363395+573930685+574451136+575095928+576239405
1898+577934178+579541768+580377279+580768520+581769438+583515018+584646530
1888+584086516+582659003+581794931+581709192+581773106+581695182+581602709
1878+581615395+581813991+582256700+583026253+584407108+586473520+588124220
1868+587488688+584340308+580624758+578008674+576527409+575334628+573824983
1858+572032445+570368938+569112844+568155698+567351512+566839719+566760353
1848+567109144+567911586+568636406+567704031+564392769+560331435+557340885
1838+555671365+554560537+553562143+553215998+554308067+556335999+557226526
1828+555723014+552874722+549963179+547137374+544370674+542053296+540440956
1818+539401857+538763439+538680225+539532391+541187481+542483498+542207700
1808+540636065+539225207+539175783+540856307+543743199+546363492+547204355
1798+546425422+545923069+547507270+551205142+554503297+554418880+551663303
1788+549593764+549971837+552042758+554437579+556884348+559542100+561869459
1778+563467549+565363324+569251255+575280033+580601790+581945968+579971128
1768+577246757+575055944+574352289+576187456+579934030+583114758+584609191
1758+585567601+586578740+587400603+588905077+592560862+598075082+602819869
1748+604720634+604450187+603822711+604107949+605738207+608095870+609745788
1738+610543541+612676813+617745078+623061724+623860619+620871393+617725718
1728+615958132+615773846+616961095+618779427+620956471+624800389+631851311
1718+640731027+645949367+644226154+638994466+634529626+632615152+633618356
1708+637285203+642373791+646837849+650200579+654404653+660575990+666256158
1698+668672504+668175262+665316388+661285839+658886869+659406298+661836112
1688+665566934+672113819+681766274+688481753+686457489+680397384+676554488
1678+676971583+681103324+686383414+689959711+692174154+694990037+697616884
1668+697522847+695761995+695827352+698625979+701379452+701166245+699100013
1658+698749599+703023418+713333052+726600165+731840331+727264919+723892629
1648+725635022+727846999+724491304+717258201+711427056+709267930+711152400
1638+716710152+723257217+724954575+719872060+713781291+711496261+713539825
1628+717922052+722575388+727130537+731470315+734531633+736709098+740384784
1618+746326500+751311190+751685776+749111419+746990051+746102471+745433388
1608+743975932+741933210+740565883+740868498+742706551+745443850+748797801
1598+752592777+756272732+759146577+760957994+762054272+762870303+763265331
1588+762802541+761747329+761005373+760853735+760734506+760788018+762627634
1578+767650204+774203342+777532281+776762607+776291520+778397495+780985260
1568+781419009+780771933+781483645+784545684+790750692+801510369+815028689
1558+821735991+818201240+812368292+808102710+805566352+804954029+806308127
1548+809343050+814181994+820948460+829024410+837543971+844104505+842960246
1538+834596051+828029204+827796396+831393437+833017261+830688579+827985072
1528+828135507+831653422+837643540+845326266+853565158+859931064+863224949
1518+864563896+863932934+860861815+857762257+858237013+863716420+873788676
1508+887233401+898846267+900759057+895323662+890458563+889502919+892142573
1498+896312736+899415420+900363067+900595995+902277540+906329615+911612050
1488+915300422+915413399+912560237+909050079+907356328+908741632+913068964
1478+919808553+928353968+936767466+941205911+939210207+934036962+931077738
1468+932025204+935381200+938300801+938046287+934662453+931123855+930233989
1458+931957322+932197044+928075103+922771625+919499685+918403768+918170960
1448+917646420+916561506+915541948+915469136+916665404+918850023+921801190
1438+925572597+929075601+929726645+927076890+923850046+922761764+924480347
1428+927580145+930446234+932915010+935714779+939549077+944930419+950517933
1418+951631347+945783427+936977667+930388934+928269010+929912555+933191108
1408+936257597+937956699+937564798+935680567+934946789+937709461+942643585
1398+945550980+945268147+944701760+945177778+945199363+944290979+943277554
1388+941508646+937643743+933178422+931680321+934886002+941692090+949294668
1378+954536217+955803915+954797765+954996963+957806533+961763188+965028814
1368+967156374+969213828+972860052+978279393+982906694+983989684+982695050
1358+982841878+986296420+991282313+994670896+995407621+995040251+995913942
1348+999401794+1004962011+1010052944+1012137033+1011562829+1011175978
1340+1013051550+1016606683+1019883312+1021928560+1023527793+1026142074
1331+1030755185+1037206469+1043758285+1048052607+1049489019+1049273166
1322+1048452686+1047879565+1048616951+1050777159+1053516622+1057211128
1314+1062561023+1066894909+1066208630+1061699898+1058670267+1059308324
1305+1061255206+1062543707+1063968093+1066493026+1069693175+1072550245
1297+1073741823+1071904852+1067455284+1062649890+1058738570+1055154696
1288+1051270794+1046654436+1040499934+1032607788+1024101636+1016746416
1280+1011860453+1009663808+1009522752+1010266271+1010619812+1009892287
1271+1008132037+1005365216+1000981366+994404358+986139130+977172172+967955389
1261+959041823+951533462+946370378+943558283+942062707+940253635+936633325
1251+930519648+922569962+914778107+908872767+903964677+896907082+886124256
1241+873702876+862517266+853257373+845171983+838084685+832431333+828036600
1231+824093353+820275048+816860490+813828032+810938795+808538082+807265635
1221+807090848+807385767+807783741+808474349+809825020+811870689+814084350
1211+815895106+817431146+819274731+821732323+824831520+828460729+832229911
1201+836060120+840768050+846940350+853619572+859111907+862603727+864299763
1191+864742411+864667013+864920745+866110459+868336806+871468231+875649517
1181+881185983+887642078+893472321+897558908+900951160+905841753+913053872
1171+921304369+928681294+934654216+940487164+947279063+953773759+957542940
1161+958614928+959596966+961752245+963884194+965068437+965912426+967184393
1151+969413025+973426559+978847103+982812115+982371512+977308417+970125880
1141+964401940+963072553+966904927+973593169+978831590+979685140+977548140
1131+976789529+980362700+987541871+994999666+998709082+996439745+990153386
1121+984563046+982455147+982444445+982103169+982155840+985720352+994074927
1111+1004731307+1013540255+1017791527+1017725148+1015817709+1013449224
1103+1009242204+1002654433+996969215+996049948+999784316+1003759009+1003560112
1093+998791936+992110248+986212364+982068296+979606134+979732940+984064781
1083+991889586+998064351+996620724+988766939+982377885+982691984+986911810
1073+987643965+981545320+971508658+961955291+956143266+955053662+956142244
1063+955052219+951198079+948482486+949182834+951043194+951288809+950695906
1053+951241490+951871851+949593796+944562568+941254132+943457571+950185255
1043+957055739+961140041+963830261+967787698+971970607+972353610+968238162
1033+963659804+960755175+957636076+953988649+952453871+953697038+955143851
1023+955380928+955684384+956615917+957180380+957346569+958591719+962244377
1013+968301234+974740794+977188285+971450036+958299747+943365338+931544977
1003+923573105+917355590+910871657+903440078+895301115+887376982+880808933
993+875856230+871474063+866432734+860745111+855222653+850462714+847180974
983+846055415+846650422+847667875+848236547+847865209+845692013+841289343
973+835849318+831085592+827387719+824049100+820570207+817355327+815155736
963+813856532+812477301+810620668+809399208+810161967+812462149+814610392
953+816379722+819497498+825078819+831810411+837368884+841178771+844613592
943+848946997+854271820+859733851+864458195+868497463+872521519+876750605
933+881122190+886286476+893109039+901009843+907873352+911894822+912740255
923+911176496+908694072+906859506+905882217+904527638+902387030+900699833
913+899842014+898536979+896615410+895831487+897010739+898769426+899693203
903+899539641+898599450+898358885+901472212+908714455+917259930+923369819
893+925480604+924220121+921320002+918688344+917671252+918579757+920615565
883+922680774+924614729+927082182+930416111+933650351+934720114+933059733
873+930948287+930396269+930776867+931216088+933187321+938486770+945834234
863+951375391+952622766+951140478+950460573+951600623+952295920+951263556
853+950265764+950542043+951267825+952289487+954380791+957680629+962060571
843+966895547+969366608+966442979+959620957+953868217+952691249+956616278
833+963847698+971112608+975619777+976562854+974754864+971902304+969794104
823+969932274+972871055+977917975+984242153+991640964+999194299+1003753297
813+1002689306+997896419+993826667+992097261+991282733+991544582+995539898
803+1003943115+1013500091+1020439719+1024022270+1024446399+1019006194
794+1005875867+989388763+976594060+970669239+969297824+968171001+965564717
784+962298971+959022522+956171706+953933032+951284540+947104337+942603481
774+940439424+940875037+941060947+939669750+939284463+942021942+946325043
764+948915093+948017892+944993912+943128201+944490236+948499441+952999636
754+956349498+958367208+959315757+958653108+956393631+955097013+957194209
744+960355096+959886353+956752583+957700170+966433118+978112784+983514508
734+979853673+975035893+976080764+980984163+983871536+982352031+978591267
724+975586107+973719253+971580329+969450363+968983244+969715760+969052088
714+965250980+958938165+952338550+948501065+950737273+958350974+965712928
704+969677279+971038773+969750272+966246847+964641001+967303262+968608118
694+961751102+950529537+944343228+945450149+947870583+946892753+945196657
684+945877885+945150060+937407989+924047620+913434831+911118655+914075955
674+917773466+922071397+925457997+922598221+910475066+897576465+895468506
664+902961594+914861863+926746979+934386895+936852484+934840727+928771122
654+921391010+917204975+917953664+920805743+920938201+917401767+916596860
644+924737025+935357270+932512225+915131227+898744293+894604254+901730874
634+909812898+910085750+905825819+904204520+904524752+900455000+891779472
624+885577530+884211406+884998877+886771934+889089372+890295741+889353686
614+887302907+887995078+896881949+913699265+924460505+914391857+892603499
604+878414413+876427127+878992104+883951481
##END=
