##TITLE=<SNM>
##JCAMP-DX=4.24
##DATA TYPE=INFRARED SPECTRUM
##DATE=29/4/2025
##SAMPLING PROCEDURE=Instrument type and / or accessory
##ORIGIN=Admin
##XUNITS=1/CM
##YUNITS=ABSORBANCE
##RESOLUTION=4
##FIRSTX=4497.3318
##LASTX=599.83466
##DELTAX=-1.4281778
##MAXY=2.0394323
##MINY=0.529854
##XFACTOR=1
##YFACTOR=1.8993693e-09
##NPOINTS=2730
##FIRSTY=0.54713732
##XYDATA=(X++(Y..Y))
4497+288062628+287678207+288691508+289680615+289209017+287637192+286267650
4487+285912131+286618053+287788041+288645221+289037362+289242250+288922506
4477+287411184+285133342+283650482+284121201+286192084+288215831+288554247
4467+287118333+285486350+285126909+285842622+286395560+286163778+285552502
4457+285149629+285071615+285157976+285457730+286057332+286686747+287010194
4447+287003478+286653702+285808824+284860733+284756296+285722117+286816414
4437+287248158+287227226+287105279+286721109+285935290+284930556+283878467
4427+282900061+282303629+282377092+282976569+283692564+284233358+284475025
4417+284510204+284777698+285617649+286584506+286841864+286279637+285569824
4407+285262193+285353764+285347707+284656974+283479140+282879821+283395697
4397+284258338+284688136+285215090+286832168+289336645+291221059+291161341
4387+289449429+287731900+287310669+287934529+288282297+287415263+285461904
4377+283146907+281299867+280625954+281225901+282482596+283909440+285494164
4367+286827209+287089651+286323446+285506465+285202632+285108802+284735082
4357+283819345+282545861+281764404+282277833+283771018+285194284+286166257
4347+287044870+287759767+287754495+287129286+286659100+286368007+285416307
4337+283747827+282472272+282315240+282780970+283034122+282975690+283275790
4327+284455255+285930552+286376323+285325992+283777953+282898304+282870689
4317+283245946+283725829+284132185+284199309+284043031+284425945+285852350
4307+287601134+288313458+287266390+284670531+281439671+279100792+278963123
4297+280803729+282948138+283970069+283965142+283888384+284248390+285002388
4287+286135252+287621124+288965530+289284929+288067398+285836847+283903886
4277+283374766+284334092+285882350+287013645+287488633+287743888+288032627
4267+288128779+287998484+288000744+288145035+288063255+287945638+288478932
4257+289607779+290248867+289510560+287670362+285863804+285214651+286055136
4247+287607317+288650932+288703402+288268928+287887959+287478434+286795295
4237+285971128+285401715+285493568+286435634+287790301+288493493+287777748
4227+286075377+284646085+284228776+284431656+284674485+285127097+286211760
4217+287676606+288864294+289476605+289477296+288850455+287949216+287421790
4207+287327176+286941249+285915928+284979793+284939154+285683205+286694310
4197+287795165+288724019+288915539+288456933+288243509+288645504+288955300
4187+288481034+287385200+286310234+285779733+285914893+286407924+286876321
4177+287332228+288166751+289579505+291154531+292177404+292319499+291838298
4167+291178318+290546362+289758190+288528232+287090090+286258894+286539317
4157+287395964+287788920+287417491+286997045+287186713+287867656+288640357
4147+289383309+290076772+290592932+290868710+290805006+290080507+288701205
4137+287543330+287625486+288867432+290138499+290607147+290441392+290048435
4127+289398121+288533598+288016685+288317977+289170418+289773818+289496030
4117+288460825+287577536+287710341+288814586+290098959+290813448+290724137
4107+290152747+289709360+289786527+290260604+290644836+290464771+289714632
4097+289041881+289133890+289867930+290405146+290112422+289164832+288338469
4087+288303793+289038397+290014418+290864882+291475876+291602813+291026213
4077+290075329+289425611+289349762+289548657+289688680+289801213+290100340
4067+290577963+290920615+290942708+290995177+291524328+292277008+292640090
4057+292725698+293115736+293615420+293461746+292712706+292248075+292477001
4047+292989646+293255288+293076980+292667109+292506562+292807352+293184053
4037+293103183+292433036+291516452+290960846+291101905+291575134+291853204
4027+291983185+292276569+292768125+293410249+294116391+294401019+293784753
4017+292578833+291539862+290989026+290790100+290783604+290932948+291327976
4007+292086179+293098100+293997707+294495790+294649276+294789613+295199170
3997+295801628+296185924+295986339+295216054+294226665+293418753+292989050
3987+292929049+293191741+293684114+294158850+294414262+294640144+295312112
3977+296584466+297899938+298426139+297987146+297263149+296839847+296577907
3967+296231113+296178423+296946104+298257527+299194541+299310338+299028032
3957+298745506+298228123+297338903+296820108+297667214+299775252+301712512
3947+302230649+301613034+300945020+300620883+300237247+299576326+298999914
3937+298955573+299653430+301021057+302554504+303437855+303292842+302669861
3927+302392545+302610300+302602360+301752241+300753375+301064112+302966477
3917+304657709+304034288+301217128+298202234+296686643+296985927+298530576
3907+301109835+305205030+310603551+315333809+317384168+316665097+313975407
3897+310123638+306706812+305716701+307803086+310927846+311749188+310022025
3887+308745277+309612687+311188122+311922789+312408760+312880671+312287408
3878+311104365+311254682+312902701+314512027+315520559+316100360+315472608
3868+313772308+312788630+313019094+312817093+311139952+309144134+308168803
3858+308863522+312492799+320556659+329611696+330684559+323298943+314256835
3848+308084168+306087785+307447850+310576281+314754919+320217866+326132171
3838+329670473+329193384+326613372+324045724+321499478+318648363+316386933
3828+315535245+315762320+317040825+320423131+325381029+328171954+327127554
3818+325162019+323561385+320307711+314994420+310264383+308610777+310901140
3808+315796463+320113963+322550845+324946680+327937724+329308271+328252102
3798+326424488+324098193+320370881+316074282+313316181+312944532+314282411
3788+316618308+319609823+322381763+324116018+325544902+327799019+330112761
3778+330733922+329882611+329479958+331028812+334737421+339235080+342432739
3768+343857355+344775289+346357972+349560934+355496955+364072298+372636595
3758+378174983+381297233+385385304+392919698+403188031+411870855+416037755
3748+418797896+424112442+431281809+434969142+433630322+432014594+433662048
3738+439157978+447330950+455318397+459716923+459646064+457427784+456238402
3728+457504699+460009616+461427140+461389514+461580280+462782403+464285410
3718+465932488+468779052+473826292+481282862+490027036+497127616+500032927
3708+499045044+497034853+497731298+502745179+509035306+511637536+510497988
3698+509911315+512714950+518472850+525306219+532123551+538233236+540807944
3688+537023989+529433799+523059413+520333101+521122592+524806001+531382200
3678+540504550+548803079+550790016+547358536+545048999+546506597+548290999
3668+546578209+542428223+538984378+537876179+538918979+541459922+545455826
3658+550522836+554772427+557372429+561177409+569418510+580819518+588103365
3648+585658387+577323393+569317839+564828496+564631421+567360338+570164067
3638+571587208+573144787+576650390+581661227+587176676+593411132+599085872
3628+600377463+597352998+594572303+594861199+598500109+604900949+611727445
3618+614592682+612264191+608593961+607301618+608678816+611014023+613080606
3608+614182215+613891624+612961357+613139352+615524455+618879679+620811824
3598+620912621+620877097+621777677+623208162+624832206+627197288+630650421
3588+633554884+632738783+627249192+620491986+617468902+620662010+628140421
3578+635577596+640217444+641824229+641068128+639240231+638350886+639743399
3568+642741253+645430315+647135322+648371055+648752965+647816861+647030509
3558+648616644+652316309+655073281+654161654+651035200+650943880+657204070
3548+667279344+674818195+675616221+670706933+663328817+656275686+651961764
3538+651778811+655111001+659963112+664359378+666917957+667039905+665537997
3528+664515406+665382408+667458845+669205151+669709573+668269298+665028051
3518+662657320+664395279+669709950+674001152+673664305+669835852+666813395
3508+668629743+675917544+684056091+686247007+681535421+676453034+676059827
3498+678768785+680083786+678454219+675836769+673707235+671653895+670105605
3488+671098697+675378414+681586510+687200056+689488568+687788518+684315050
3478+681550170+680460298+681383787+684206219+687081310+687182797+683850042
3468+679379904+675931917+673503382+671100643+668377438+666585880+667468950
3458+670913045+674722043+676236943+674876376+672372150+670281842+669528064
3448+670575195+671905824+670945431+667810190+665483644+665156589+664544654
3438+662971384+663231535+666771783+671225603+673177833+671988419+669531830
3428+666809629+663473673+660560109+660303599+662738912+665183765+665777499
3418+665482954+665548227+665338161+663732004+661382927+660349102+661932789
3408+665694778+669931188+672582153+672380246+669920455+666979841+664535741
3398+662705585+661915341+662564557+663982678+665037214+665185585+664304210
3388+662903287+662193568+662798411+664104500+665755657+668015737+669688611
3378+668699724+665499711+662452275+660347344+658814934+658526477+660326884
3368+663768281+667835860+671623204+673917929+673554031+670562893+666500210
3358+663660894+662880504+662514975+661134638+659980309+661096918+664424400
3348+668113270+670780867+672076350+671767432+669831395+666882998+663868638
3338+661813038+661637303+663687317+667055407+669593337+669767880+668547336
3328+668241620+669520595+670869237+671233574+671391233+672090534+672822408
3318+673003227+673043144+673584220+674874744+676840844+679279232+682081267
3308+684665390+685860703+685968969+687314849+690778276+693829164+693430433
3298+689070255+682437696+676317844+673373463+673883095+675615719+676984508
3288+678925001+682808685+687709186+690913278+691012506+688931111+686487764
3278+685321385+686022191+687816510+689274045+689548506+688798242+687916428
3268+688011074+689128060+689779912+688863766+687301167+686689232+687067314
3258+686859632+685061234+682476922+680548417+680384356+682782702+687460270
3248+691906747+692877432+689796669+685212240+681908670+681067652+682751760
3238+686346611+690542100+693580499+694084921+692178634+689261053+686609084
3228+684623277+683466249+683591711+685099833+686937772+687154867+684765936
3218+681507492+680267304+681604774+683105427+682544580+680449189+678631774
3208+677841154+677654561+677616087+677788245+678616711+680488604+683011910
3198+684860205+685141633+684359737+683105238+680953549+677619100+674150025
3188+671928230+670822856+669425635+667480435+666541696+667590897+669370028
3178+670128953+670028972+670044914+670083638+669593651+668570495+667337839
3168+666286566+665603772+664715493+662776946+659773130+656817452+655264518
3158+655380064+656243175+656722116+656393491+655597724+654745785+653887005
3148+652824749+651466002+650426089+650911432+653081762+655099578+654814887
3138+651855569+647504994+643569969+641662866+642310450+644490634+646642071
3128+647760375+647343694+645425043+642885104+640766680+639439063+638770077
3118+638716854+639371342+640364560+640623267+639301739+637023960+635317445
3108+634722142+634392765+633595617+632589031+631976343+631888852+631756486
3098+630993042+629987774+629505883+629440359+629392534+629890429+631723661
3088+634056859+634770281+633099730+630665735+629573729+630320290+631768536
3078+632390325+631483280+629639379+627977112+626956468+626495414+626823160
3068+627832633+628101382+626408739+623796561+622270803+622171638+622275636
3058+621828829+621448613+621963957+623041464+623579904+623153558+622325469
3048+621507610+620649207+620165056+620495250+620851051+620119051+618744928
3038+617932843+617377959+615731885+613138724+611287731+610589309+609638519
3028+607873384+606387732+605700042+604912372+603621158+602801228+603348643
3018+604994466+606702047+607615807+607735181+607514445+606867865+605371920
3008+603334270+601597128+600406711+599332278+598056127+596746335+595824541
2998+595498804+595534327+595709937+596204631+597008369+597417581+596794662
2988+595246059+593339583+591779306+591172894+591504970+592024770+591965208
2978+591176032+590086097+589175601+588381717+587338478+586244212+585602026
2968+585001325+583473433+581383879+580304112+580645792+581054439+580491396
2958+579578012+579338636+579703600+579762471+578833585+576907967+574742533
2948+573491236+573424143+573390251+572496826+571831417+572970056+575348066
2938+576904892+576815518+575764057+574274136+572658314+571627125+571342434
2928+570836191+569464955+567939699+567111421+566703151+565944100+564784939
2918+563771637+563018298+562057968+560722694+559349198+558109198+556966418
2908+556165630+556021464+556387119+556819177+556968803+556593106+555660015
2898+554550122+553648788+552922626+552295314+551945287+551863319+551549067
2888+550674282+549700960+549213421+548920508+548108988+546921332+546259815
2878+546479232+546934512+546793610+545766061+544058418+542160164+540776563
2868+540554823+541564861+543066267+543995216+543809941+542880553+542015873
2858+541591786+541303518+540870017+540579991+540695160+540711290+539782279
2848+537728123+535302789+533557362+532923334+532799818+532263072+531140940
2838+529973682+529070780+528245578+527332571+526366373+525318551+524079430
2828+522768885+521850920+521736504+522270205+522823426+522933605+522591769
2818+521968035+521233838+520558293+519926055+519089273+517900989+516539010
2808+515382014+514808960+514912110+515241331+515181581+514660495+514098645
2798+513636775+512828833+511317636+509471632+508006534+507191593+506814171
2788+506752412+507034404+507392057+507378814+506975408+506480556+505860964
2778+504834451+503397847+501808385+500303653+499154062+498716356+499050316
2768+499587563+499574101+498926925+498343672+498396173+498790950+498746200
2758+497818161+496105151+494029970+492269040+491400720+491235874+491006948
2748+490471144+490201893+490601659+491289097+491584426+491067043+489715765
2738+488018414+486754941+486218886+485933160+485425410+484901249+484805787
2728+485022569+484895192+484088599+483178291+482945003+483154786+482773755
2718+481505167+480152257+479209751+478247444+477059631+476253886+476277265
2708+476855967+477586052+478177370+478160204+477246475+475874078+474749467
2698+474130502+473923104+473979904+474019507+473732964+473094826+472233378
2688+471166258+470027651+469236592+469049590+469190743+469207972+468968752
2678+468558630+467938787+466986459+465777245+464599725+463682669+463064709
2668+462763261+462821881+462986225+462661899+461613576+460432636+459866957
2658+459941236+460097860+459922627+459388235+458693579+458124574+457765227
2648+457316129+456574370+455941409+455926503+456294919+456240724+455396034
2638+454285701+453666706+453656287+453698275+453338614+452789536+452609345
2628+452992573+453523105+453585146+452982092+452141544+451658712+451668879
2618+451760418+451494995+450881178+450268991+449900387+449697695+449431237
2608+448932369+448159353+447243930+446493164+446206841+446374386+446549682
2598+446218264+445382235+444532462+443994649+443680899+443536891+443713504
2588+444096482+444179328+443722636+443145597+442960511+443140231+443323780
2578+443346155+443235254+442947770+442464969+441965347+441643532+441509095
2568+441424930+441191422+440670367+439983400+439482743+439447878+439843471
2558+440258331+440128789+439318713+438355245+437749115+437411892+437108749
2548+436962324+437056813+437085244+436856255+436669254+436783388+436978924
2538+436981498+436881015+436843012+436786024+436570874+436230355+435859805
2528+435451880+434930072+434326233+433879301+433829091+434133960+434556854
2518+434892791+434944382+434622975+434275207+434426779+435041977+435542886
2508+435604236+435436534+435325256+435304043+435255810+435123851+434965658
2498+434798584+434559490+434348985+434399540+434619209+434587545+434151691
2488+433574997+433108828+432887370+433043429+433479974+433790523+433753117
2478+433630165+433732970+433951384+433928381+433545530+433073430+432868541
2468+433022153+433347922+433595018+433589338+433302168+432893678+432625619
2458+432649939+432859315+432944923+432670368+432143132+431742016+431734296
2448+432041519+432398199+432633150+432738309+432810643+433036274+433534986
2438+434073331+434210499+433901425+433572267+433451009+433314909+433050929
2428+432933846+433124267+433323978+433172532+432732252+432390636+432424716
2418+432808258+433330411+433741129+433870326+433801067+433843432+434150216
2408+434503726+434662578+434712348+434867090+435119050+435329493+435555689
2398+436043009+436850826+437632220+437894693+437490408+436830899+436534220
2388+436805103+437254232+437340970+436786651+435569560+433878516+432080808
2378+430424379+428937722+427854377+427585346+427895455+427869315+427098496
2368+426040822+425044152+424066249+423418978+423806694+425449692+427742189
2358+429944496+431907144+433957032+436331560+438812156+440763256+441594829
2348+441277972+440431524+439757768+439252561+438527653+437847809+437797380
2338+438286739+438625689+438345516+437681269+437337424+437766846+438686066
2328+439519553+440073684+440352036+440196133+439669242+439332709+439553821
2318+439996046+440303206+440728140+441641744+442895991+444026533+444776514
2308+445196584+445468785+445743152+446045071+446331927+446593365+446832333
2298+447065245+447414362+448032542+448856959+449624922+450154858+450400793
2288+450319453+449991612+449799904+450170580+451097238+452054932+452435210
2278+452062087+451273538+450499048+449873430+449363893+449068846+449111681
2268+449367219+449596302+449771724+450002910+450227349+450258071+450111238
2258+450033098+450208739+450676289+451459503+452470828+453352140+453752126
2248+453730002+453645335+453723004+453904701+454050405+454130678+454178158
2238+454084893+453623619+452800363+451995433+451594882+451613648+451751788
2228+451711212+451453980+451206978+451165680+451246016+451246926+451158023
2218+451162511+451412149+451896990+452455671+452872634+453091832+453365477
2208+454005216+454898703+455519362+455607638+455543871+455785538+456301321
2198+456850682+457417993+458050922+458647700+459193703+459876936+460737568
2188+461479955+461806571+461745503+461573094+461581222+461912797+462459239
2178+462963662+463359599+463875821+464657435+465480283+466006548+466154479
2168+466103202+466080545+466194176+466383751+466556818+466747177+467051764
2158+467514073+468151458+468885309+469410444+469464985+469259092+469272178
2148+469607581+469889950+469842533+469662592+469737531+470187601+470783846
2138+471264011+471634686+472078072+472633113+473138634+473490293+473772913
2128+474085251+474410078+474738546+475144432+475624346+476028474+476240800
2118+476304347+476367988+476613515+477151516+477917847+478769346+479645700
2108+480504166+481210088+481652972+481842264+481820392+481661539+481525062
2098+481511851+481547280+481558672+481644688+481941178+482420119+482929469
2088+483378158+483758782+483978357+483861995+483454509+483108217+483079534
2078+483264872+483508485+483859014+484309618+484624497+484677092+484686005
2068+484898079+485239100+485415337+485232227+484778705+484397830+484450771
2058+485009985+485813032+486525607+486960928+487104591+487100983+487182009
2048+487488510+488004324+488664555+489395237+490087445+490708355+491392875
2038+492271582+493268189+494180851+494900738+495498833+496143342+496947644
2028+497907504+498984478+500148472+501319057+502428103+503563038+504853531
2018+506208700+507373103+508247730+509023225+510030501+511472251+513140386
2008+514462260+515120513+515523983+516315858+517568661+518818201+519742004
1998+520485018+521423946+522824367+524580903+526154612+527007272+527221920
1988+527401296+527970929+528897430+530035566+531427765+533156811+535086635
1978+536917921+538476880+539838263+541189352+542769275+544922972+547848837
1968+551126738+553844294+555491623+556473920+557593667+559351897+561709824
1958+564183046+566225151+567744005+569164071+570933285+573130477+575543886
1948+578007756+580706232+584034468+587833047+591048498+592955602+594290812
1938+596094420+598215795+599918794+601285261+603028491+605326793+607709009
1928+609912289+612259044+615072251+617980793+620276585+622021196+623883801
1918+625741635+626640897+626516439+626558741+627677986+629641889+631534055
1908+632645329+633073119+633430301+633908865+634138451+634115166+634565989
1898+636099718+638329107+640021500+640461089+640582409+641811990+643899975
1888+645167026+644918486+643817317+642358903+640924904+640416904+641239595
1878+642382188+642548509+641691925+640915741+641434661+643710683+646560292
1868+647287961+644536325+640097003+636299303+633601140+631325244+629273787
1858+627767360+626810921+626038753+625161145+624127759+623100085+622497376
1848+622978639+624874696+627082369+627151534+624202948+620261899+617247036
1838+615275162+613630469+612134774+611631356+612998827+615447445+616510769
1828+614970701+612092661+608929867+605367840+601876484+599687263+599159995
1818+599333722+599164953+598695929+598635990+599144555+599639438+599756114
1808+599789566+600059257+600623053+601586270+602999369+604492553+605496817
1798+605914628+606404552+607995834+611067309+614066418+614434834+612303041
1788+610458449+610668515+612401390+614428495+616481396+618651913+620472279
1778+621805858+623654780+627239778+632583194+637696963+640012336+639274939
1768+636788788+633727921+631804185+632734766+636007332+638932569+640372468
1758+641681883+643295885+644493081+646083296+649809384+655256484+659458062
1748+660650739+660104516+659564883+659811603+661215853+663732945+666347069
1738+668397836+671270918+676438850+681803480+683198190+680961709+677989085
1728+675727562+674973972+676110853+678375577+681052212+685179918+692327005
1718+701376802+707469101+707598204+704400702+701257239+699748552+700787775
1708+704923953+711126150+716702039+720822150+726265987+734985213+743343304
1698+746441641+745097706+741540387+737199100+734518260+735295888+739200410
1688+745292333+754331585+766660601+776231704+775886384+769810340+765306875
1678+765298465+769503368+775330935+779833396+783147762+786978851+790403302
1668+791011911+790186897+791772593+796875754+802236556+803834114+802559783
1658+802917781+808559006+820744169+835602139+841790842+838189150+835594043
1648+836531904+835988506+830580758+824108619+820219098+818672063+818947779
1638+821979337+827295640+829778903+825416654+818056049+812420347+809761850
1628+809651953+811164405+812744829+812259800+808850977+804908861+803636977
1618+805517720+807440326+805809001+801686317+798459254+797558674+798299398
1608+799160751+799171232+798422977+797647608+797743761+799350733+802370742
1598+805905028+808866354+810718477+811593387+811944230+812323002+813204691
1588+814712122+816702825+819182825+822112958+824946249+827388528+830511531
1578+835658312+841304118+842781361+839452497+835764757+833725413+831244597
1568+826416650+821049760+817834057+817918285+822167122+832054234+845813609
1558+852563220+846892811+837492046+829902545+824756580+821426649+819191988
1548+818518483+821236416+828493902+839246887+850813965+858336874+855289124
1538+844762524+837225744+836007083+837708890+837875211+836586194+837266352
1528+841423681+847396292+852530082+856252592+859556790+862323866+863785732
1518+864452019+864892989+864738028+864573276+866306088+871131588+878773055
1508+887209599+890990416+886564714+880102680+877428870+878922430+882915573
1498+887367761+890178331+890789513+891629716+895524760+902472074+909047834
1488+911741979+911301512+910847550+912179058+915238168+918972917+922735784
1478+927337033+934303552+944208552+955208570+962616812+963222910+960172775
1468+958642623+961195993+967411307+974283557+979216318+983146949+988181071
1458+993228876+993128268+986725796+979296591+973451262+969276861+967490890
1448+968566828+971473488+974644567+976617634+976223422+974370671+974025791
1438+976738514+980443451+981666317+980027398+978242180+978833654+981998645
1428+985969507+989756600+993251910+995390105+996078736+998209650+1003821753
1418+1009335382+1009411387+1004300694+997521208+991914502+989302136+990322969
1408+993956482+997554284+998388775+996668390+995589815+997115950+1000159495
1398+1003067473+1005175793+1005387428+1003023539+1000539648+1001082669
1390+1004399420+1007363821+1007352587+1004938174+1003320218+1005552243
1381+1011973418+1019318772+1023744913+1025146966+1026187444+1027829062
1372+1029021550+1029939767+1031606050+1033433947+1034015254+1033258839
1364+1031897582+1030234249+1028769119+1028491207+1030236759+1034484153
1355+1041089536+1048680857+1054710707+1056901121+1055202264+1052008277
1347+1049525201+1047773435+1046103951+1045506263+1047987644+1053485080
1338+1058854919+1060831187+1059198356+1056238474+1054433548+1055290382
1330+1058722365+1062834694+1065284567+1065085861+1062752349+1059521960
1321+1057356400+1058622196+1063856092+1070200508+1073741823+1073681696
1312+1072218450+1070529509+1067773731+1064135761+1061417138+1060241219
1304+1059538153+1058597342+1057464980+1055813194+1053443657+1051760741
1295+1052751009+1056157259+1058912661+1058156874+1054513507+1050849554
1287+1048091579+1044665371+1039900939+1034700119+1028919749+1021927058
1278+1015492013+1012405475+1012348424+1012138170+1009961313+1006540879
1270+1002600896+997959604+993249839+990102924+988831668+987411100+983295068
1260+975947078+967077661+958683419+951820207+946593906+942077386+936800749
1250+929988124+922219122+914734498+908072566+901616495+894627005+887428452
1240+880958573+875635994+871392743+868208672+865801351+863460747+861040183
1230+859027702+857305309+855096882+852045931+848474490+845067362+842691610
1220+841874630+842337441+843366308+844433272+845394669+846603789+848666418
1210+851569438+854618757+857587175+860973467+864831984+868543887+872011142
1200+875840726+880100609+884119484+887700214+891432390+895707023+900236095
1190+904491522+907915158+910137454+911769344+914402547+918924464+924206750
1180+928539878+931997907+935967890+941071490+947007072+953701641+961437440
1170+970207693+979344102+987290094+992228754+994089225+994759843+995438683
1160+995419164+993613548+991056538+990936724+995653770+1003558715+1010115332
1150+1012645354+1011784942+1009288498+1006850800+1006066645+1006645566
1141+1006544205+1005687308+1006395583+1009487706+1012462275+1012882659
1133+1011886241+1012241477+1014652877+1018256641+1022010407+1024033182
1124+1023854811+1024629426+1028475328+1031790635+1029953700+1025767625
1115+1026215311+1032692093+1040191592+1044398504+1046073825+1046894006
1107+1045739364+1042385583+1039344674+1037997225+1037770777+1038113963
1098+1038397901+1037931638+1037254179+1037132419+1036480756+1033200031
1090+1027365811+1021917079+1019704636+1021300814+1024982717+1027711696
1081+1026651699+1021410836+1014659153+1009804218+1007568490+1005406320
1073+1001140725+995657160+991506859+990516717+992628301+995192277+994362431
1063+989509880+984903108+984671577+987172414+986975591+982956904+979735050
1053+980318240+982361852+982359843+980599730+979743837+980186752+979294896
1043+975238050+969768606+966291685+966492777+969074703+971147186+971094528
1033+969695990+968510091+968314774+969050853+970458743+972748635+976420998
1023+980773771+983700452+984078471+983131760+982365743+981931049+981840358
1013+982349990+982439740+979792478+973058682+963274438+953052801+944702932
1003+938354938+932532644+926351661+920119024+914477548+909212020+903390730
993+897025853+891328330+886619819+881776621+876675091+873193526+873010511
983+875306805+876878693+874988975+870456576+866749568+865635093+865135001
973+862321858+856950010+851304266+847523888+846008675+845516867+844153727
963+840731661+835515966+830144056+827044778+828067619+832901215+839065189
953+844169920+848135635+852353342+857045848+860744572+862570962+863966488
943+867335457+873487569+881061253+888261437+894530727+900308084+906139416
933+912689066+920296705+928345565+935855670+941978158+945726402+946369530
923+944255310+940589160+936754932+933503894+930586063+927852502+926700934
913+928833355+933227739+936062285+934782242+930802970+927419126+926739471
903+928765446+932059979+935214488+937896960+940079465+941126973+940933978
893+940723033+941413170+942720137+944086165+945165493+945096328+943144601
883+940772803+941226640+946709640+956346204+966405725+973023222+975405375
873+975361755+973813088+970635545+967548882+966584724+966131955+962895101
863+957703005+955361334+958641368+965558368+972413107+977481497+980976494
853+982882279+982568654+980469435+978457706+977617253+977616374+978361429
843+980120726+982553780+985149702+988174607+991923415+995773647+998651122
833+999725994+999530175+1000654001+1004890223+1009320130+1008568549+1002140281
823+995451236+993890456+998945416+1007670291+1015327889+1020514524+1025695825
813+1031082108+1031719148+1025371091+1017371500+1013331600+1014350424
804+1018893681+1025167427+1032217734+1038663826+1041110185+1037246208
795+1028954081+1020342869+1013746962+1008909977+1005320398+1003322351
787+1002245471+999191508+992075300+982735101+974049829+966231120+958785408
777+952784680+949415899+948443330+949156627+951503884+955195703+959690821
767+965059405+969951308+970533305+965366565+958939930+956436331+958258642
757+962324589+968072071+975011540+980007628+979532641+974703062+971417253
747+973944953+979847144+982638133+980659794+979612224+983716268+988584948
737+987423527+982341579+980828311+985529227+992484700+996334117+995524479
727+991773663+986207126+979551344+974638793+975238050+982478716+993505345
717+1001807326+1000705404+993011278+987399489+987151828+989033010+989218599
707+988067596+987345011+985923000+981601923+975921534+972838637+973553816
697+974417743+971764330+966951571+962979956+960822116+960128715+959901138
687+958938674+958670176+960812137+963058284+962909787+961006513+958284500
677+953509587+946512628+940725167+938717141+938304289+935853474+932156884
667+932634193+936908010+939154345+938012757+938036230+943103742+951480411
657+958817605+960872452+955209574+943813273+933402407+929827012+932588753
647+935998518+936066427+934582846+934384892+932971982+928087548+923391527
637+922646284+928087422+939505376+949967394+950495603+941813093+932411888
627+928022588+928786723+929291145+922795032+910123207+897914822+889174570
617+882322529+876161317+871050498+868637843+872845571+885119731+896568878
607+893292421+876787938+864427291+867560586+880903029+890958784
##END=
