##TITLE=<SNM>
##JCAMP-DX=4.24
##DATA TYPE=INFRARED SPECTRUM
##DATE=29/4/2025
##SAMPLING PROCEDURE=Instrument type and / or accessory
##ORIGIN=Admin
##XUNITS=1/CM
##YUNITS=ABSORBANCE
##RESOLUTION=4
##FIRSTX=4497.3318
##LASTX=599.83466
##DELTAX=-1.4281778
##MAXY=2.1156783
##MINY=0.3823064
##XFACTOR=1
##YFACTOR=1.970379e-09
##NPOINTS=2730
##FIRSTY=0.39188924
##XYDATA=(X++(Y..Y))
4497+198890289+199200885+200458256+201987849+202796622+202391313+201170712
4487+200161712+200146269+200992855+201956344+202426510+202219567+201482018
4477+200560320+199744423+199131596+198868040+199113083+199589572+199741065
4467+199511979+199421092+199683711+199884165+199768230+199614800+199532898
4457+199179876+198455879+197772282+197397677+197101587+196588904+195992715
4447+195858055+196644882+198188875+199775475+200772723+200993853+200597407
4437+199937783+199390297+199171572+199450995+200385458+201579349+201945075
4427+200858286+199096839+197904037+197575700+197571692+197497639+197314534
4417+197025416+196806419+197030816+197723080+198455940+198942123+199226159
4407+199301619+198937813+197874120+196188434+194599520+194026836+194640539
4397+195796239+196892859+197721507+198159865+198187150+198060976+198089215
4387+198300226+198343847+197803379+196849813+196259160+196435020+196887838
4377+197042054+197017778+197235293+197657301+197792731+197412863+197011622
4367+197174187+197655561+197677977+197051855+196389372+196259780+196615040
4357+196935845+196713717+195974277+195370707+195581870+196616507+197825371
4347+198582129+198819504+198839061+198912614+199255683+199865636+200159004
4337+199459722+198033509+196848376+196350349+196322277+196618368+197207826
4327+197871307+198433343+198983067+199478568+199492014+198652340+197201004
4317+196028183+195980841+196935482+197860916+198093253+198073182+198494010
4307+199333351+200061583+200322613+200243629+200372088+201159776+202254113
4297+202694074+202111286+201187259+200647411+200431514+200095494+199527967
4287+199034115+198998465+199555570+200459662+201247003+201564934+201460117
4277+201360714+201546693+201723809+201480475+201020715+200980830+201605682
4267+202458439+202955059+202989423+202927395+203099807+203595413+204407332
4257+205281386+205613610+205049608+204026647+203393356+203690717+204767372
4247+205848383+206196338+205859515+205494484+205534899+205835239+205927352
4237+205462117+204597834+203921542+203808451+204009631+204072643+204012520
4227+204227827+204737470+204958963+204561972+204085015+204270873+205201888
4217+206358767+207135732+207140542+206427571+205532312+204985416+204813988
4207+204706811+204577264+204635420+204920151+205266790+205813263+206878801
4197+208193481+208934433+208715602+208005656+207519443+207579368+208009846
4187+208395886+208481570+208342948+208178930+208091008+208039764+207925206
4177+207776828+207819859+208199788+208720699+209062074+209231930+209561522
4167+210175710+210758256+211029073+211066311+210905984+210352372+209492340
4157+208865931+208873856+209411133+210139017+210825246+211446996+212075538
4147+212621965+212820921+212628817+212424264+212562251+212907937+212990021
4137+212513487+211602831+210623960+210002588+210211859+211476626+213276401
4127+214548186+214623252+213716241+212508148+211617865+211385664+211747427
4117+212308118+212722336+212928038+213021693+213102688+213212421+213297758
4107+213329082+213474072+213988222+214907106+215898698+216468735+216445548
4097+216250207+216476177+217202820+217913522+218049754+217557490+216939733
4087+216690984+216689260+216486598+216113611+215984351+216139052+216292981
4077+216504083+217075118+217853808+218213998+217785321+216877251+216141199
4067+216040269+216607009+217447258+217997920+218028382+217837518+217749202
4057+217707774+217611139+217564856+217549898+217346963+216991930+216862821
4047+217270354+218244461+219467240+220254052+220125669+219529072+219447865
4037+220198104+221111951+221553788+221730011+222147058+222731041+223025588
4027+222976083+222902908+222885998+222751248+222459876+222100003+221747950
4017+221522267+221437823+221238171+220779606+220394867+220444523+220753530
4007+220898021+220890610+221244841+222391798+224126171+225622202+226101958
3997+225509686+224409980+223341931+222530889+222110878+222154968+222472778
3987+222812837+223177536+223578716+223809193+223816060+223910955+224385417
3977+225279073+226451168+227441322+227565681+226663268+225416470+224608755
3967+224465595+224866201+225691627+226686046+227305377+227089964+226200059
3957+225285682+224805866+224761928+225082476+225847144+226966210+227991666
3947+228548696+228777389+229011769+229132467+228654376+227567889+226499538
3937+225939891+225957936+226567208+227747092+229061379+229842110+229907466
3927+229666053+229570114+229711701+229942662+230304215+231067627+232200654
3917+233028425+232795603+231527523+230013146+229003450+228604024+228553128
3907+229041520+230717722+233620999+236591431+238405529+238847033+238029397
3897+236088202+233882604+232795512+233499286+234981901+235430120+234876766
3887+235191188+237106776+238899517+239069177+238484589+237938041+236787635
3878+235176517+234653201+235915321+238008766+239956933+241446294+241835828
3868+240950793+240101727+240345620+240861933+240190209+238291697+236187362
3858+234962012+236077175+241194309+248580112+251494914+248191940+242992934
3848+239010884+237236762+237606799+239438231+241866381+244509626+247283567
3838+249336582+249345915+247348590+244814564+243189319+242943868+243726716
3828+244937426+245953081+246758618+248428195+251388705+253388647+252593244
3818+250981506+250390399+249541105+247107102+244441940+243505344+244984707
3808+247850534+249926857+250598067+251631676+253874482+255445080+255085585
3798+254185788+253658812+252799082+251242384+249825761+249348395+249881164
3788+251173157+252766261+253859569+254145737+254616614+256296809+258490957
3778+259613003+259584689+259802068+261375207+264353232+267777843+270371932
3768+271880274+273001080+274101194+275454988+277976112+282205413+286991018
3758+290604028+293086523+296013304+300961958+308317179+315606937+319339013
3748+320352763+322242804+326480333+330577016+332189208+332867361+335082594
3738+340121424+347550334+354872581+359507781+361489058+362706302+364746627
3728+368260477+373004911+378075020+382672951+386417581+389188059+391355738
3718+393653161+396803493+401937702+410265865+420451458+427643236+429471748
3708+429283591+430847292+435418482+442241448+448880431+452645903+453449231
3698+453559403+454842865+457893400+462788178+469253282+475980354+480624720
3688+481677795+479848466+476703519+473527081+471445131+471219615+473290372
3678+478154809+484965100+489933447+490980381+491256022+493750859+496925754
3668+497164308+494348606+491393087+490488510+491391362+492696241+494247600
3658+497130307+501120206+504225949+506086315+508739240+513689467+519804635
3648+524373344+525931540+524870902+522616828+520738221+520017234+520615646
3638+522896401+526932100+531449142+534759498+537008611+539918089+543695147
3628+546050742+546641713+547470572+549435695+552537323+556309602+558962194
3618+558935272+557525303+556665649+556336041+556302947+557770391+561320935
3608+565342900+568193813+569991470+571475794+573332863+576576063+581642330
3598+587002329+590080967+589726251+586888950+583441923+581569064+583265080
3588+588501475+594324243+597719663+598086781+596348475+593859900+591773171
3578+590376997+589624731+590039040+592335525+596659509+602329150+607689027
3568+610530987+610014129+607705968+605799651+605340451+605563578+604679542
3558+602488328+601083743+602087873+605002736+608726554+613048723+617564555
3548+620306144+619332627+615822014+613451476+614159334+616445595+617923687
3538+617977654+617543017+617283348+616866801+616204500+616187620+617249649
3528+618481867+618970107+618846625+618266242+616641920+614512295+614008567
3518+615996014+618544424+619495798+619163589+619026312+619260692+619250346
3508+619388651+620781014+623520304+626284701+627842352+628541740+629636077
3498+631514018+632998221+632476463+630111128+628235183+628575681+629827198
3488+629634746+628425518+628419468+629637529+629861623+627845377+624584208
3478+621754228+620233180+620515355+622985175+626793270+629726767+630326269
3468+630064422+631675010+635103887+637480173+636831908+633929448+630751467
3458+628726388+628223143+628553961+628596191+628004675+627294216+626824670
3448+626824126+627765577+629111778+628811150+626521138+625339983+627128444
3438+629247057+628538352+625685563+623385145+623124992+625140694+628497575
3428+630718494+629862531+626853347+623940602+622146333+621193750+620720997
3418+620674351+621018721+621778489+623503666+626777358+630948276+634152090
3408+635468888+636084785+637190253+638255913+638166795+636669947+633899802
3398+630392940+627808895+627798731+630191049+633125575+634724487+633755145
3388+629977664+624795598+620813321+619813487+621541810+624570414+627917070
3378+631768605+636330478+640247232+641186022+638657032+635155857+633341925
3368+633713460+635228277+636308093+635678099+633675345+631863652+631300330
3358+632214495+634801142+639063113+643761838+646538820+646030433+643624260
3348+642235830+643253451+645161945+645365591+643355576+641380168+641432138
3338+642833153+643537320+642868727+641448050+639508579+637310710+636136936
3328+636972511+639103406+641505768+644269016+647203239+649002590+649452836
3318+649997463+651380207+652818126+653175686+651941955+649855408+648741408
3308+649381808+649979797+648461411+645560887+643759781+644184254+645604811
3298+645785526+644051213+642264204+642175571+643003644+643057489+642792678
3288+643955925+646617592+649498938+651999189+653762905+653784927+651837350
3278+649522654+648758954+650323683+653860190+657886935+659954243+658241045
3268+653468146+648469095+645808274+646375589+649479335+653090198+654780769
3258+653869568+651936510+650554614+650091239+650985802+653686493+656413138
3248+656328861+654247818+654152227+657312723+660448232+660542673+658515053
3238+656600448+655304221+654220109+653499848+653571300+654363677+655077767
3228+654519769+652411138+650183321+649395784+649842642+650203468+650442264
3218+651645744+653393670+653607600+651560499+648993757+647585785+647255451
3208+646841566+645360509+643135656+641803673+642538091+644581441+646409470
3198+647710598+648941847+649692298+649043609+646979084+644104091+640883034
3188+637956797+636086660+635291984+634794971+634021832+633146811+632523170
3178+632022163+631197660+629913956+628607686+628066084+628887381+630775063
3168+632530369+633270535+633205678+632644715+631129960+628354672+625351297
3158+623574875+623307825+623388957+622461058+620792449+620068195+620973951
3148+621916309+620760686+617614771+614879777+614123397+614024418+612314245
3138+608931349+605901293+605054646+606882493+610121155+612180780+611811182
3128+610404056+609370584+608367724+607063692+606392256+606864161+607271028
3118+606222551+604247990+603102773+603282581+603611099+603223350+602526140
3108+602194536+602255218+601959854+600479886+598166945+596486175+596202608
3098+596670158+597115685+597286055+597020033+596443401+595906034+595332790
3088+594646772+594324122+594525227+594404044+593304202+591887336+591108329
3078+590909887+590739577+590556018+590404524+589738230+588392453+587484701
3068+587866763+588586539+588204659+586552203+584291898+582230034+581374252
3058+582119015+583341371+583614774+583072748+582642709+582318607+581660420
3048+580890670+580229276+579231438+577924926+577371768+578073032+579008070
3038+578996877+578080957+577139264+576857754+577077069+576803727+575285341
3028+573108042+571713380+571852290+572819152+573282466+572622887+571068564
3018+568949830+566739316+565407393+565612793+566715539+567338152+566714087
3008+565167387+563579244+562525867+561941611+561632997+561536499+561220746
2998+560014785+557958427+555895777+554606387+554280469+554486414+554601305
2988+554560225+554777543+555229362+555237832+554306364+552734132+551367119
2978+550840521+550894125+550689753+549901732+548798683+547496224+546179427
2968+545624151+546352640+547519094+547491203+545610539+542964420+541110679
2958+540465137+540532837+540989557+541725366+542412049+542745650+542600932
2948+541679325+539767745+537473135+535996374+535926193+536480622+536179570
2938+534428075+532121002+530486697+529970203+530333509+530968646+531050987
2928+530303743+529432715+529075397+528938968+528490053+527709957+526780969
2918+525721844+524608147+523631001+522778788+521799645+520562043+519276585
2908+518253760+517528175+516864361+516166728+515779584+516182761+517351392
2898+518620334+519272047+519070338+518232645+517260762+516714138+516636213
2888+516379993+515424022+513956940+512386282+510885562+509574815+508630036
2878+508146333+508123887+508447384+508662827+508196851+507128258+506216058
2868+505889294+505652071+504823242+503542654+502434705+501557172+500506487
2858+499360634+498637591+498483193+498681333+499156656+499741184+499918088
2848+499388495+498385424+497198249+495969480+494986555+494531167+494383000
2838+494022991+493284973+492297844+491040882+489565391+488386353+487956496
2828+487910999+487461177+486444917+485487554+485187712+485513750+485924217
2818+485880899+485260797+484269191+483146933+482247379+482005890+482289699
2808+482140928+480821771+478876583+477584379+477506605+477902733+477656102
2798+476667097+475868186+475764518+475691766+474905589+473684171+472746985
2788+472225137+471808136+471384933+471029703+470755151+470597426+470528606
2778+470140434+468963514+467289157+466090911+465847880+465911920+465395486
2768+464356356+463575081+463357369+463156809+462377167+461116605+460025505
2758+459624113+459754341+459779449+459440554+459046059+458570705+457318583
2748+455009030+452565951+451274292+451501351+452405897+452728365+451973105
2738+450828069+450255279+450379275+450518124+450045704+448895253+447399011
2728+446020805+445160818+444871110+444764811+444442765+443964508+443654865
2718+443554948+443357020+442825522+442042249+441205797+440386920+439624490
2708+439094141+438862393+438584998+437852123+436727778+435563896+434485864
2698+433444466+432537833+431929075+431592237+431343035+431017783+430566841
2688+430065835+429660027+429486269+429593536+429815876+429805440+429437535
2678+429031092+428831046+428533746+427720919+426494025+425290788+424384034
2668+423880607+423839013+424095839+424310344+424343528+424280577+424050130
2658+423413572+422378133+421311627+420569858+420156034+419816050+419370493
2648+418822145+418218983+417654663+417326840+417280103+417206080+416867307
2638+416531407+416507570+416504333+416021356+415180638+414576751+414396247
2628+414213716+413691353+413068045+412797788+412944079+413107189+412862312
2618+412160202+411344168+410838685+410753954+410787169+410621336+410354710
2608+410350868+410714689+411100895+411006060+410189724+408951820+407992612
2598+407754844+407907638+407799342+407393413+407274831+407693042+408181283
2588+408302466+408199373+408098397+407831045+407231997+406553845+406127829
2578+405952317+405839543+405665906+405363796+404963251+404675268+404690333
2568+404910797+405073090+405099650+405153102+405358472+405629182+405787815
2558+405712401+405367577+404840677+404328690+403939338+403549713+403042838
2548+402609623+402569753+402890467+403134255+403018003+402810637+402908285
2538+403174730+403093084+402527977+401900858+401625368+401762492+402161192
2528+402614554+402938323+403101191+403208973+403306924+403364581+403400851
2518+403444865+403478474+403554402+403808051+404197706+404384018+404057374
2508+403339957+402704428+402451293+402430602+402401410+402430632+402636334
2498+402793333+402636697+402336523+402228408+402301009+402346657+402378783
2488+402586603+403034973+403533196+403738717+403481589+403043988+402933423
2478+403332697+403920885+404232524+404120114+403865890+403824356+404033416
2468+404315228+404593683+404813845+404744541+404272696+403721626+403484372
2458+403521701+403534285+403446922+403449131+403675040+404032418+404323214
2448+404465361+404570360+404760937+404954630+404928010+404595014+404159409
2438+403949532+404071774+404291573+404351015+404268764+404168877+404042249
2428+403909813+403946507+404148730+404188812+403947959+403848345+404242718
2418+404805435+404974656+404742303+404559197+404643959+404803741+404872893
2408+404987149+405331307+405778891+405969680+405800490+405651174+405944845
2398+406616281+407180087+407260342+406954511+406692512+406793185+407199054
2388+407592309+407595273+406851236+405135829+402427214+398731226+393992661
2378+388380103+382419121+376604067+371065864+365754689+360699887+355942718
2368+351517637+347686219+344904548+343363353+342878682+343435440+345383592
2358+348801518+353178985+358268394+364757245+372957297+380966469+385502538
2348+384570495+379097542+372568398+368345843+366905534+366781356+367061444
2338+367673771+368537025+369261400+369405362+369014527+368849723+369717485
2328+371587289+373699882+375493304+377126641+379060122+381400259+383843065
2318+386052883+387893163+389431937+390888461+392517231+394455642+396646131
2308+398878062+400959527+402841190+404493433+405829893+406903266+407933139
2298+408983946+409925215+410803746+411820037+412856171+413507219+413700005
2288+413857821+414334657+415018950+415571321+415746531+415403946+414538907
2278+413460301+412683563+412521119+412860346+413309231+413481870+413229309
2268+412704375+412210690+411998665+412162864+412593719+413054160+413444813
2258+413918322+414602252+415343294+415901716+416281025+416669923+417152204
2248+417662437+418127899+418429858+418345369+417798231+417031173+416311729
2238+415699341+415223170+414923329+414632956+414140057+413591527+413329983
2228+413373604+413419009+413291776+413100957+412986460+412957419+413019705
2218+413271267+413744836+414275003+414680267+414974996+415248429+415495575
2208+415746592+416153822+416750147+417344748+417861575+418545293+419615914
2198+420937460+422200352+423246590+424076025+424684843+425054412+425268826
2188+425529947+425968214+426481472+426863775+427050208+427115821+427128889
2178+427176171+427433480+428010899+428786760+429520119+430062054+430395776
2168+430576612+430727077+431027614+431585582+432278345+432835375+433165558
2158+433467154+433912590+434429568+434939861+435579414+436499115+437623914
2148+438709871+439504155+439912020+440189869+440839798+442118662+443784276
2138+445433979+446931613+448445219+450207483+452250077+454320532+456125993
2128+457641173+459079304+460653956+462481984+464578152+466816496+468975614
2118+470855522+472305814+473223247+473653316+473859411+474178704+474783166
2108+475616352+476571597+477700721+479177271+481012136+482903932+484480973
2098+485605197+486308397+486530132+486096917+484945861+483259464+481352150
2088+479405147+477296910+474729926+471585735+468183690+465104961+462648361
2078+460567984+458533709+456680573+455396234+454733691+454385721+454127898
2068+453968630+453881146+453659411+453177674+452642878+452351839+452302168
2058+452320379+452424138+452686892+452905390+452818602+452540692+452459289
2048+452849609+453773454+455148423+456774833+458440357+460078867+461810638
2038+463888383+466580573+469963258+473823928+477846589+481781342+485400221
2028+488556542+491357936+493967088+496221647+497860883+499101570+500465165
2018+501956870+502890124+502744589+501851115+500953557+500381130+499928403
2008+499353072+498597721+497545432+496007383+494120609+492459078+491535898
1998+491351250+491577281+491992800+492495349+492900854+493141526+493496272
1988+494193422+495041732+495828816+496710644+497878488+499254637+500720932
1978+502238198+503699683+505042436+506426268+508036282+509837872+511664690
1968+513411769+515098649+516821224+518631829+520493495+522364358+524242542
1958+526157510+528204248+530481857+532924149+535357729+537751802+540220230
1948+542823574+545547558+548355092+551069335+553403209+555337416+557197268
1938+559190282+561229639+563255505+565354939+567534537+569668336+571706846
1928+573766532+576034582+578603502+581305100+583826345+586105769+588280224
1918+590093732+590929428+590794330+590622932+591246634+592523985+593710585
1908+594423525+594849087+595257103+595791567+596493677+597175943+597583355
1898+597870915+598534486+599763618+601218781+602462554+603223350+603382104
1888+603167811+603032894+603017467+602738982+602166403+601828204+601998393
1878+602191511+601777505+600812700+600016814+600084151+601057486+602009707
1868+601505615+599149052+596119964+593694613+592167938+591117102+589946837
1858+588195160+585907448+583751263+582335608+581560533+580963513+580472973
1848+580491547+581282291+582284424+582171106+580291229+577535907+575022103
1838+573056919+571373064+569773426+568559479+568237011+568655131+568719322
1828+567589774+565646492+563572105+561574130+559806300+558639423+558247500
1818+558311872+558277992+557887460+557397828+557250085+557527783+557842387
1808+557878748+557836155+558142168+558987544+560251041+561618719+562683047
1798+563244433+563707748+564938755+567414564+570253257+571711384+571528188
1788+571199669+571917389+573722306+576180631+579011700+581794974+583920847
1778+585436692+587257521+590219755+594186120+597676042+598955874+598202882
1768+597083075+596884391+598087265+600560776+603418344+605465567+606622884
1758+607670151+608672950+609402528+610706136+613833296+618531296+622619932
1748+624467866+624879875+625516827+627142904+629518100+631884343+633510843
1738+634777244+637449196+642835996+649079244+652034884+651386438+649927101
1728+649263650+649663862+650863531+652389237+654231967+657336379+662699099
1718+669564113+674695176+675866893+674698383+673642222+673900621+675841180
1708+679403219+683842820+687796903+690900649+694655564+700335188+706455075
1698+710664894+713022606+713715460+712652523+711600114+712577866+715605078
1688+719423640+723958832+730175581+736519744+739222249+738393571+737216953
1678+738366588+742976801+749801581+756045132+760637800+764207098+766362435
1668+766332064+765496005+766136102+768825540+771845311+773214986+773420507
1658+774419857+777362187+782210531+787427566+789851224+789949416+791427388
1648+795150842+798431492+797747471+794059712+790999648+790352593+792000027
1638+795079149+798024807+798355685+795628556+792731480+791748888+792419115
1628+793374179+793759810+793672629+793023396+791215998+788635825+786865878
1618+786734652+786812758+784753072+781142996+778609167+778170537+778293898
1608+776733282+773193447+769127801+765690999+763218154+761743510+761173896
1598+761490315+762889454+765112552+766903614+767106533+766209732+765699832
1588+765950547+765797117+764397917+762513381+761405372+761462363+762464860
1578+764124938+765523109+765258903+763679169+762528446+762609215+763419863
1568+763783049+762934345+761128763+759646314+760527930+765424191+772564059
1558+774357602+768809809+763074828+760862802+761294837+762079228+762146687
1548+762647511+765391036+770565297+776436708+781368543+784814602+785754298
1538+784371071+783681968+785458208+788268828+789307443+788546526+788809886
1528+791828447+796893262+802295127+807487175+812921952+818170508+822345721
1518+826020594+830097433+834068517+837109705+839757276+843502027+849515130
1508+857552647+864251344+865529118+863585352+862898125+864942443+868838687
1498+872823565+875704548+877728659+880160726+884040091+889107447+893754082
1488+896699074+898326543+899616176+901494722+904547950+908028555+910668018
1478+913355943+919144528+929623127+941926305+949863633+950506332+947810784
1468+945798289+944907235+944231200+943806425+944726519+947676351+952277308
1458+956755085+957585336+953559802+948328851+945286756+945331466+947479845
1448+950077382+952327705+954649419+957804470+961831093+965540754+967385601
1438+967433639+967976935+970395934+972781900+973573612+973805571+975377440
1428+978670190+982123569+984158208+984884277+985754337+987611648+989954960
1418+991470019+991471773+990690044+989953266+990121398+991682800+993659055
1408+994576306+994389964+994293888+995250767+997030153+998360866+998355179
1398+997767475+997902755+999415090+1002199756+1005240339+1007229118+1007499979
1388+1006156198+1004131482+1002655508+1002030656+1001771834+1001919759
1380+1003040413+1004861302+1006411330+1007082404+1006731137+1006327718
1371+1008195737+1013493057+1019633151+1022436753+1021374966+1020231866
1362+1022922332+1029876281+1037711846+1042592800+1043374832+1041740224
1354+1039992722+1039171123+1039338105+1039889508+1039936215+1040136835
1345+1042440096+1047182020+1052938902+1059222504+1066258856+1071696053
1337+1071783900+1067364203+1063676202+1064071272+1067351256+1070832345
1328+1073220549+1073741823+1071469659+1067123652+1063276413+1061406700
1320+1060482855+1058942507+1056606333+1054859678+1055302422+1057594915
1311+1059266912+1058811220+1057470404+1056317261+1054501272+1052138115
1302+1050814481+1051197692+1052788014+1054185580+1053144726+1048691633
1294+1042537624+1036415317+1030540942+1026128384+1024803056+1024971490
1285+1023074067+1017976884+1010903143+1002763925+994639771+988840961+987348591
1275+989240810+991326088+991291481+988123423+980898612+970250188+959447063
1265+951413358+945977613+941166901+935819668+930203207+925107537+920544756
1255+915344298+908844225+902271914+897051007+892584180+886994763+879496489
1245+871136867+863390237+856350316+848580455+839317496+830166464+823317665
1235+819034398+816054315+813484669+811226178+809292576+807641815+806191795
1225+804702752+803106018+801849055+801474193+801952269+802631087+802802244
1215+802548867+803090953+805639303+809723704+813526112+816257476+819142331
1205+823627005+829586202+835517145+839856073+841955084+842513203+843271640
1195+845590208+849276031+853096287+856328778+859302629+862462399+865828476
1185+869131450+871876609+874041142+876878443+881874650+888742023+895874692
1175+903058544+912091539+923848215+935732487+943521467+946220523+946836904
1165+947880299+949482781+951889741+955866270+960411807+963344215+964280585
1155+964573106+964885592+965332147+966769402+969864798+973084464+973253805
1145+969786813+966224532+965739256+967530319+968832294+969034789+970181943
1135+973847256+979101560+983791816+986402239+985546215+980799633+976008039
1125+976131884+980640940+984559630+985565514+985764864+987201513+989819923
1115+992544390+994144270+993278929+989803104+985398169+981532175+978606846
1105+977484679+979614243+985447598+993422860+1000513239+1003713604+1001860226
1095+996915202+991642688+986854966+982955877+981185385+981811567+983060786
1085+981930572+977196817+971600624+969454120+971879895+975033735+974075889
1075+968148333+959634071+950542572+942508685+937649027+937130597+939565931
1065+942199829+943397259+942714206+939904433+936010971+934108890+936256302
1055+940673760+943420672+942423984+938700166+934184153+930221539+928337245
1045+930448417+936771949+944395399+949467051+950885792+950679364+951160223
1035+952306893+951548033+947204688+941104040+936388435+934639784+935461322
1025+937689321+940579741+943886346+946491566+947009513+946368932+946943991
1015+948885518+950244001+950560117+950572157+948883401+942972967+932841098
1005+921047214+910287832+902170575+896867206+893203949+889390591+884088794
995+877356277+870434272+864377064+859601805+856124830+853224246+849993388
985+846634752+843975384+842023934+840011560+837359028+833819617+829583601
975+825460781+821965898+818777814+815710550+812984933+810181634+806505309
965+802284781+798995298+797553446+797348288+797207503+796799547+796883582
955+798600592+802723411+808995094+815707888+820584365+822938870+824352832
945+826685557+830535337+835929518+843151788+851952219+860940080+868846553
935+875639207+881514792+886087555+889810526+894472830+900977683+907829810
925+912678880+914176272+911981004+907444783+903419491+901593520+901200749
915+900605059+899235989+897714276+896954085+897416552+898477734+898221514
905+895029255+890276865+887671524+889126687+892920867+896483026+899555130
895+903053704+906342037+907857156+907522345+906766087+906812733+907908037
885+909588202+911216578+912589883+914133316+916080652+917375004+916528055
875+913912489+911924073+912587826+915874466+920980845+927563502+934468627
865+938821833+938469356+935264756+933012436+933086973+933905426+933900284
855+933894899+935612211+939258104+943077694+945139679+945909368+947665945
845+951051443+953662955+953554901+952789325+954100980+957286584+960885528
835+964289176+967163564+968666219+968618908+968195766+967892173+966652575
825+964910457+965346788+969281148+974110192+976058073+976374794+979713161
815+987678259+997753500+1006685822+1012675874+1014785412+1013165748+1009493477
805+1005360917+1000794930+994658647+988154218+985101655+986648114+990171371
795+990980205+985722574+976024374+966468895+960288749+957445943+954981386
785+950056691+944183707+940489656+938404137+935936918+933428923+931429919
776+928550208+923678450+917648588+911996129+908432578+909141646+914906878
766+923251920+930634214+935893358+940178319+944603219+949308539+954442446
756+958967353+960079477+957601913+954182535+949799623+942421443+934371947
746+931498527+936742425+948273917+961328877+970618093+972522775+967488936
736+959916609+954823843+954564718+957124563+958367671+957850571+958416737
726+960632574+962197062+961246899+958677979+955659478+951368588+946246781
716+943886286+946048399+949346957+950212661+949382229+948986252+948494260
706+945938288+941640863+938415813+937880564+939326228+941413259+943642165
696+947587536+955676297+966251516+970872740+963935065+952068399+944259696
686+941399768+940033662+939269236+939900621+941285058+943157797+944356195
676+942506204+936910435+927312000+911928550+891650473+875744720+876859325
666+892644802+909257021+918181357+919829154+918778196+916771388+913416625
656+908179564+902241785+900615042+906042922+914953343+923413699+932094459
646+939075997+937125515+926249850+913741090+903748554+898643082+902040559
636+912503791+920825419+921031787+917971541+917211592+917423828+913113638
626+902541263+891921577+884638564+875134692+859853064+845432120+840084766
616+844742654+853705226+858837137+858889712+861768395+871288663+878672591
606+871522256+850850017+827914810+813933766+813670769
##END=
