##TITLE=<SNM>
##JCAMP-DX=4.24
##DATA TYPE=INFRARED SPECTRUM
##DATE=29/4/2025
##SAMPLING PROCEDURE=Instrument type and / or accessory
##ORIGIN=Admin
##XUNITS=1/CM
##YUNITS=ABSORBANCE
##RESOLUTION=4
##FIRSTX=4497.3318
##LASTX=599.83466
##DELTAX=-1.4281778
##MAXY=2.1062064
##MINY=0.38419962
##XFACTOR=1
##YFACTOR=1.9615576e-09
##NPOINTS=2730
##FIRSTY=0.3965078
##XYDATA=(X++(Y..Y))
4497+202139260+201568726+201156945+201101976+201944636+203395388+203962717
4487+202874398+201368525+200993405+201662589+202267400+202335952+202172594
4477+201937282+201480043+200924975+200764869+201243956+202056685+202759614
4467+203141844+203138699+202736155+202153907+201952840+202591577+203773881
4457+204556741+204304625+203263405+201973609+200629650+199399381+198838479
4447+199446844+200937054+202228900+202360443+201480575+200736093+201009328
4437+201957428+202488719+202005652+200882267+199799524+199054739+198596740
4427+198337377+198201352+198043571+197732809+197230264+196594672+196036231
4417+195864563+196258067+197151457+198311290+199400839+200117882+200373477
4407+200213949+199798567+199578691+199963155+200608455+200618969+199729331
4397+198701694+198301035+198499929+198939149+199572857+200379463+200890410
4387+200585969+199611843+198707392+198370528+198385144+198301673+198059296
4377+197877767+197833479+197818620+197686789+197378276+197136841+197396964
4367+198187921+198976828+199267094+198933603+198062623+196975216+196239410
4357+196314297+197217061+198476182+199365090+199497757+199228214+199163491
4347+199446525+199755935+199767178+199482260+199273490+199414726+199535801
4337+199096049+198277090+197796833+198063580+198873605+199685286+200106092
4327+200278262+200523115+200582915+199898219+198692183+197934833+198140838
4317+198986080+200048252+201067198+201638584+201504018+201037830+200789801
4307+200658122+200099939+199119583+198493380+198940577+200444642+202332381
4297+203653596+203650710+202434403+201178534+201057444+201950090+202710631
4287+202691412+202314013+202065042+201799191+201302982+200836232+200783754
4277+201168157+201676385+202046810+202397757+203070542+204053740+204852734
4267+205160062+205239690+205433813+205714796+205822045+205550299+204948846
4257+204351906+204066000+204033122+203983198+203833134+203823821+204289052
4247+205228568+206134462+206491958+206405448+206383844+206611073+206750881
4237+206374105+205453412+204471294+203995519+204195963+204914176+205963159
4227+207046874+207661394+207473849+206713733+205955471+205607092+205708172
4217+205996311+206096829+205842753+205542596+205779489+206785977+208109821
4207+209067022+209454692+209551913+209534198+209348886+209149779+209290985
4197+209718461+209853619+209366024+208754209+208755638+209326461+209705273
4187+209388069+208571709+207723579+207195859+207234100+207900823+208889019
4177+209660225+209890600+209768446+209822534+210374336+211082126+211206300
4167+210607186+210199872+210931850+212520587+213724708+213769589+212980196
4157+212102364+211557688+211380976+211432967+211494332+211402960+211196743
4147+211005385+210922369+210986667+211116918+211121491+210960291+210877094
4137+211088811+211539821+212084481+212603329+212901298+212884069+212793988
4127+212921095+213193995+213328424+213254144+213256818+213786696+214990711
4117+216272728+216663649+215960402+215138769+215222620+216118730+216959536
4107+217221330+216995894+216505442+216011101+215927706+216445110+217222287
4097+217728205+217681942+217134349+216389138+215830181+215717234+216167378
4087+217174079+218550826+219994118+221198452+221854084+221787280+221259711
4077+220809993+220631382+220396085+219824258+219131935+218668056+218323460
4067+217774271+217227058+217243330+217818332+218371668+218658272+219013853
4057+219674970+220366291+220648368+220462676+220215118+220265636+220536622
4047+220815310+221064281+221214982+221116895+220857016+220718925+220802548
4037+220979929+221083440+220978880+220677219+220450719+220646544+221321897
4027+222153056+222760221+223078914+223310762+223550207+223677085+223624820
4017+223538964+223642718+223945868+224065590+223585667+222710859+222202965
4007+222565369+223615978+224802779+225633178+225895154+225688086+225280833
3997+224979582+224988212+225164255+225154228+224975298+225030540+225446302
3987+225855971+225821224+225212479+224389281+224008843+224345920+225085266
3977+226004804+227200204+228420248+228984113+228655970+227995887+227629609
3967+227644271+227799940+228009014+228475536+229369670+230392355+230861353
3957+230436096+229608203+229205067+229566635+230429320+231318638+231737104
3947+231354038+230460633+229828459+229823597+230074042+230158653+230112496
3937+230100645+230257424+230957845+232444605+233917236+234077205+233119183
3927+232678459+233498679+234470800+234392358+233760989+233927096+235296033
3917+236782186+236774346+234863544+232334698+230697312+230279241+230683684
3907+232184376+235556050+240307022+244254380+245926194+245779595+244289446
3897+241448912+238276315+236704427+237775471+240176087+241246918+240854098
3887+241482853+243713184+244808734+243369787+241798522+241669304+241460535
3878+240275055+239657756+240710006+242803036+245166048+247175667+247492430
3868+246117005+245318998+246319819+247320899+246186544+243528313+241220239
3858+240583872+243143788+250404099+259119446+260964963+255632487+249070288
3848+244598765+242970768+243889698+246465051+249759710+253463962+257303920
3838+259823286+259354089+256322227+252523412+249299873+247297228+246767410
3828+247381535+248285970+249566984+252848243+258316091+262116972+261565793
3818+259585087+258701906+257385629+253958804+249760424+247196983+247880114
3808+251429259+255035090+256942109+258702301+261247769+262449277+261178002
3798+259216500+257293133+254765609+252279972+251305784+251890297+252940222
3788+254063136+255532819+256966722+257867284+258963229+261193013+263752944
3778+264846003+264308498+263735077+264677936+267526903+271197305+274059034
3768+275855355+277411442+278773329+279822693+281729347+285668456+290590990
3758+294208367+296538578+299925687+306389479+315909443+325150854+330030178
3748+331603585+333733823+337399971+339378762+337947655+336312624+337942459
3738+343867439+352354205+360050134+364695818+366317083+366517360+367485622
3728+370688833+375873054+381432548+385909343+388625765+389683667+390585018
3718+393325049+398479188+405763291+415508205+427016258+436291247+440276543
3708+440907607+441498835+443970585+448677983+454232280+458600049+461367550
3698+463425803+465517966+468085737+471406726+475790570+481195214+485434601
3688+484875248+479930836+475078890+473425354+474731726+477181841+480365362
3678+485692551+492802053+497438165+497942305+498086914+499513616+499306745
3668+496268289+493709148+493986241+496007513+497368337+497787639+499651874
3658+504609200+510734184+515034951+518443574+524388245+533411908+539977433
3648+538327331+532106083+528299155+529171974+532379196+534771942+536116721
3638+537964031+539992444+540504212+539895147+540984316+545965435+553152180
3628+557114018+556177692+554114274+554400149+558649867+566445190+574039173
3618+576530371+574009273+570619611+569310809+570930464+574878567+578735450
3608+579407293+576699076+573855883+574000036+577488758+581765155+584176801
3598+585220634+587118689+590254868+593198093+595271235+597030850+598961479
3588+600868772+601841561+600993599+598788094+596745096+595830466+595751704
3578+595886985+595964652+595579110+594676877+594516133+596579308+600591952
3568+604414681+606987617+609862838+613228495+614013740+610469107+605570092
3558+603346538+604417172+606854890+609200172+611089415+612559508+614333648
3548+617259917+620375190+621178546+618972008+616232614+615894171+618957240
3538+623861481+627414865+627455036+624729255+621926294+621426073+623611219
3528+626446329+627189216+625240051+622201047+619861357+619585327+621950542
3518+625791077+628564078+628827528+627842098+627871937+629283567+630079265
3508+628718623+626807380+627344369+630875084+634953849+636920091+636002544
3498+633402441+631520977+632401271+636177508+640834465+643959219+644459561
3488+642260802+637673430+631992878+627844103+627621432+631355858+636087079
3478+638235882+637587376+637225413+638504316+639311803+638488272+637944902
3468+638860262+639541038+638966857+638936957+640753759+642869441+643010070
3458+641241764+639513934+639023984+639593424+640297842+640061314+638229197
3448+634854242+630815648+627582841+625955650+625086417+623990988+623550811
3438+625562936+630333720+636127675+640742577+643411899+644951213+645732507
3428+644440296+640109568+634448827+630084309+628027272+627997190+629162325
3418+630352742+631107905+632030861+633061506+632905928+631231820+629760512
3408+630238246+632385044+634738895+637129271+640846741+645699690+648326775
3398+645507830+638869378+633806580+634080179+638946316+644645829+648004194
3388+648043757+645075371+640499546+636503980+634441595+634385259+636181702
3378+639764439+644665641+649797963+653667304+655135210+654422284+652750061
3368+650760239+648269710+645771827+644725746+645338639+645301203+642689615
3358+639469752+639745296+645055073+652682056+657658556+656796494+651721178
3348+646740181+644778496+646346677+650092711+653324424+654197060+653811700
3338+654344070+655808025+656442310+655235424+652728608+650582053+650714841
3328+653556394+657691252+661099996+661501218+657485475+650992026+646256004
3318+645500963+647555630+650202588+652124040+652978445+652891661+652017870
3308+650765344+650105716+650590136+651491578+651772956+651677543+652379711
3298+654010670+655365599+655710667+655801279+656848455+659012391+661187691
3288+662119338+661531118+660136262+658880332+658461243+659309144+661185382
3278+662810324+663002306+661839844+660048567+658431707+657735616+658045375
3268+658884525+660109643+661796878+663413737+664064067+663257004+661175598
3258+658694428+657241229+657680981+659432148+661233028+662242464+662483610
3248+662688657+663624740+665119143+666304030+666658031+666369603+665847261
3238+664917681+662960494+660222802+658339697+658867083+661353419+663295048
3228+662831534+660828038+659171616+658274853+657631330+657614070+658726577
3218+660462733+662642288+665528508+667382685+665183866+659255057+653845855
3208+652334740+654159260+656212893+656290075+654818887+653482494+652986528
3198+652342275+650400707+647766511+646165331+646117260+646451085+646149773
3188+645453682+644758806+644073775+643937705+645211320+647354897+648065027
3178+645681701+641762952+639712357+640703317+642427745+642184897+640055662
3168+638227982+638101696+638766550+638019470+635039356+631757444+630167325
3158+629595635+628505615+627151415+626522903+626410473+626144593+625916391
3148+626156565+626617162+626486196+625283260+623829575+623413890+623783753
3138+623427442+621836654+619854489+618366893+618065278+619262076+620743899
3128+620357627+617634156+614349509+612282931+611708082+611729048+611186651
3118+609624426+607825978+607321868+608936843+611661773+613500574+613612336
3108+612840704+612020757+610812109+608485970+605212992+602265816+600865065
3098+600894357+601307855+601703668+602457737+603362400+603628281+603360030
3088+603426698+603833146+603606099+602306838+600792076+600280248+600848048
3078+600975793+599154007+596004215+593804727+593788015+594930968+595839946
3068+596540231+597618583+598540324+597882580+595513050+593328572+593086089
3058+594250678+594586143+592837893+590090721+588056778+587051231+586336240
3048+585586668+585091127+584785501+584265894+583614288+583150410+582718376
3038+582156896+581929181+582318187+582702575+582293574+580909414+578789963
3028+576397035+574532223+573930269+574686343+576199402+577380460+577220324
3018+575727502+573905960+572458656+571164196+569705467+568265882+567064283
3008+566077515+565361004+565053494+565110620+565322170+565322110+564550782
2998+562705356+560231782+557888323+556139526+555343099+555733503+556714619
2988+557028996+556178785+554891071+553975590+553550302+553364885+553280897
2978+553425414+553910806+554302548+553864558+552458459+550698662+549303744
2968+548613609+548418406+548091449+547373540+546882922+547182774+547648537
2958+547112400+545535711+544040093+543254666+542686076+541885273+541145060
2948+540687624+540276618+539877887+539654001+539262745+538208703+536804791
2938+535901768+535821609+536106572+536057407+535282737+534057679+533261738
2928+533523487+534269351+534043823+532099277+529302271+527187378+526438293
2918+526421398+526121363+525449945+525133319+525255716+524894422+523588962
2908+522162017+521552527+521706829+521915523+521547361+520345823+518680102
2898+517570573+517812267+518837929+519064247+517867935+516379549+515623718
2888+515106541+514195740+513559814+513995919+514890190+514907328+513668415
2878+511978932+510683013+509927000+509446956+508992193+508392153+507683087
2868+507144458+506816680+506344080+505648566+505118172+504898144+504743872
2858+504585104+504551314+504649705+504811573+504844360+504106001+501987645
2848+499066632+496909624+496446900+497174198+498047807+498521379+498371027
2838+497307321+495528107+493997089+493435761+493514280+493425673+492830708
2828+491960806+491107435+490327568+489557425+488717789+487631020+486165272
2818+484632826+483623147+483251369+483015510+482492105+481794251+481306215
2808+481201899+481182330+480626016+479172331+477142186+475320188+474460679
2798+474867188+476101635+477162120+477198887+476047487+474194859+472558218
2788+472028340+472635734+473311648+473011887+471883215+470815498+470199961
2778+469715663+469027837+468088381+466943665+465743554+464811118+464404031
2768+464495738+464896807+465368981+465500190+464852261+463489249+462025233
2758+460964566+460288742+459707451+459022208+458216026+457354086+456483820
2748+455660015+455001967+454541765+454040390+453166295+451877669+450503962
2738+449463319+448908585+448592445+448170865+447672528+447423238+447443992
2728+447246025+446407755+445179082+444222124+443762377+443394186+442801742
2718+442181070+441742807+441266470+440540843+439848945+439538093+439416456
2708+439048750+438449166+437984832+437677595+437181264+436443695+435759424
2698+435109186+434100236+432709877+431486825+430880252+430829081+431024557
2688+431242549+431433770+431606334+431579351+431030755+429969967+428828502
2678+427861273+426896293+425867957+425071803+424696440+424592336+424598474
2668+424671888+424725581+424668636+424489357+424144198+423578738+422885351
2658+422200046+421535101+420898354+420382546+420020310+419758318+419585237
2648+419514710+419474114+419294227+418806009+417990104+417034756+416167437
2638+415468186+414922598+414553465+414393966+414371815+414258109+413804653
2628+413067297+412487889+412408338+412643437+412796980+412743439+412498038
2618+411983566+411288478+410773976+410609312+410557199+410415234+410298307
2608+410316752+410276003+409895201+409210231+408593327+408333554+408305446
2598+408175757+407823062+407364198+406916272+406574516+406455007+406517299
2588+406497760+406193349+405705982+405329282+405277838+405525274+405825127
2578+405894317+405605373+405035537+404405749+403990002+403986174+404339476
2568+404680806+404601832+404117017+403693917+403655175+403769367+403665141
2558+403380026+403180357+403114844+403067927+403003782+402907457+402703473
2548+402403499+402181465+402230874+402594325+403064828+403276135+403042038
2538+402580378+402281193+402302586+402441573+402350657+401926676+401503697
2528+401518617+401974929+402445523+402641819+402717998+402915995+403184003
2518+403311778+403250155+403111653+402994028+402977042+403173490+403603822
2508+404061653+404228627+403943663+403351797+402799221+402559958+402619394
2498+402720246+402672996+402612861+402827662+403297892+403584982+403315090
2488+402666462+402196233+402228625+402565671+402804569+402824107+402868076
2478+403201536+403764870+404207022+404285662+404125131+403965572+403847156
2468+403722237+403627614+403562618+403464409+403383581+403399139+403431683
2458+403410747+403429920+403532262+403584587+403523328+403517008+403716008
2448+403976693+403984077+403675594+403405490+403527825+403940959+404233215
2438+404194168+404018505+404000941+404135432+404139230+403857305+403465746
2428+403254682+403358755+403676536+403953599+404012002+403945577+404000607
2418+404268402+404568620+404611161+404294292+403880368+403762864+404032057
2408+404404047+404587520+404604263+404741214+405239885+406050412+406897797
2398+407535577+407857308+407855363+407626554+407386532+407366264+407646244
2388+408041480+408119968+407436852+405843450+403534571+400745921+397461822
2378+393543528+389127657+384666692+380525635+376797196+373509905+370667593
2368+368144004+365918049+364259439+363348789+363117306+363734088+365587354
2358+368581082+372213379+376511381+382060513+388660527+394557065+397559544
2348+396628293+392639077+388125210+385370532+384410201+384060484+383923563
2338+384218037+384846792+385369863+385464639+385241359+385171258+385661330
2328+386705497+387898922+388788909+389422921+390419078+392136608+394105585
2318+395682030+396828660+397947518+399361913+401060755+402669623+403794709
2308+404551998+405475805+406820676+408283052+409471220+410358928+411165291
2298+411992287+412766289+413445334+414082293+414681452+415150010+415421239
2288+415528594+415562323+415579825+415548072+415438863+415382952+415567944
2278+415933128+416152852+416016356+415668766+415398024+415305619+415232296
2268+414911902+414204507+413328194+412842954+413158213+414018451+414741465
2258+415050738+415398328+416283240+417477698+418241035+418268261+418054310
2248+418158171+418476316+418514786+418085912+417423854+416803941+416319947
2238+415953548+415673659+415442145+415203338+414921322+414611442+414313321
2228+414066432+413920121+413920729+414069075+414325749+414663494+415071097
2218+415491492+415793837+415870167+415783748+415770075+416034922+416571941
2208+417226251+417902713+418635359+419440750+420175098+420631349+420800358
2198+420950376+421383686+422156867+423078912+423942584+424710083+425481351
2188+426287957+426960438+427309365+427410309+427525412+427780810+428139582
2178+428587325+429060533+429328176+429219393+428837223+428423938+428235542
2168+428544876+429434923+430576266+431478165+431961308+432258548+432721363
2158+433461757+434238373+434784477+435227480+435921687+436920852+437966144
2148+438918879+439830957+440680408+441410714+442170647+443229978+444679439
2138+446321367+447833363+449082031+450307726+451858982+453713220+455502887
2128+457095923+458835270+461026615+463505749+465938331+468231045+470367451
2118+472188932+473679415+475140240+476767492+478372592+479779603+481209283
2108+483072545+485627737+488968233+493115945+497952394+503158432+508360521
2098+513268773+517546750+520684509+522226254+522049891+520281100+517068408
2088+512555057+506968824+500662799+494077947+487657973+481783373+476694078
2078+472392035+468731752+465681505+463337348+461617691+460195547+458881853
2068+457848959+457304435+457120384+456956815+456671760+456434989+456434533
2058+456589899+456618219+456391871+456161998+456303507+456882581+457653027
2048+458426361+459205954+460039453+461046488+462540374+464871192+468195128
2038+472528044+477874468+484149712+491083977+498329489+505603047+512666454
2028+519274703+525268053+530609250+535130501+538416424+540259966+541028073
2018+541203949+540811175+539627200+537677366+535166478+532182778+528753006
2008+524997735+521088709+517217787+513630067+510506164+507799770+505303164
1998+502911634+500835727+499493834+499042232+499069002+498990332+498720258
1988+498658148+499085897+499885576+500811722+501806329+502977937+504373341
1978+505883696+507382353+508838894+510279846+511792967+513567653+515714634
1968+517994950+519928496+521335325+522614410+524288335+526415807+528643980
1958+530713718+532657535+534574795+536491021+538436843+540503969+542800268
1948+545357829+548112841+551002100+553928734+556622913+558861842+560827234
1938+562834255+564817999+566423798+567505979+568384753+569626584+571572468
1928+574165338+577286141+580818011+584114205+586222959+587178611+588030038
1918+589265183+590332475+590955274+591749574+593237109+595124529+596687484
1908+597489380+597608495+597417243+597408309+598094069+599644504+601591785
1898+603266440+604411703+605030066+605101109+604925780+605096065+605708351
1888+606231057+606330481+606126650+605777571+605417553+605180539+604949116
1878+604440144+603658789+602984637+602886367+603720169+605457845+607145809
1868+607020678+604312886+600380159+597031397+594873173+593575553+592723701
1858+591899318+590636764+588897083+587103131+585588613+584516095+584182817
1848+584920295+586572767+587892813+586878333+583186083+579066176+576574917
1838+575754120+575257668+574048168+572615997+572246984+573096345+573594803
1828+572525506+570447381+567935643+564734133+561256411+558807269+557982035
1818+558137735+558437952+558752208+559364069+560238589+560868134+560842913
1808+560392405+560147916+560620606+562005861+564108538+566240751+567486289
1798+567586746+567574409+569114938+572819768+576689535+577537862+575463505
1788+573608842+574026837+576379351+579319233+582111013+584612238+586617132
1778+588274709+590549008+594423698+599488197+603299986+603700357+601789115
1768+599883706+598990164+599552859+601985958+605516430+608157189+609225088
1758+609878213+610820799+612125955+614617274+619270159+625261686+629749816
1748+630947343+630119739+629492929+630203180+632265140+635083599+637588227
1738+639329367+641755598+646508515+651782741+653301027+651406679+649573833
1728+649188473+649864570+651202847+653167752+656052696+660685161+667765128
1718+675990601+681383820+681739280+679431799+677355679+676891619+678834949
1708+683620380+690172839+695696537+699015460+702649367+709139413+716621514
1698+721229244+722651023+721613754+718788488+716720391+717433559+720448132
1688+724786335+731659797+742373611+752364776+754535518+751039139+748065588
1678+748645057+752851262+758463019+762941486+766551328+770775340+774669355
1668+776025439+775796447+776804485+779665059+782522109+783908275+784674559
1658+786369876+790195035+797320582+806792869+812387975+812007295+811608139
1648+813495680+814661910+811966638+807340250+804249286+803960190+806486028
1638+811580305+817616317+819667277+814824599+807980308+804370284+804519117
1628+805378261+803995255+800803044+797741555+795162176+792810574+791617544
1618+792020771+791819856+788590087+783883783+780363338+778477134+777402185
1608+776486339+775473804+774231122+772775007+771291179+769946399+768822042
1598+768098238+768092830+768816998+769679060+770107447+770115226+769633115
1588+768061592+765492727+763492392+763469359+764948872+766600676+768416748
1578+771275317+774200128+774235194+771652716+769952963+770354549+770788588
1568+769409532+767317916+765909385+765732294+768342606+775913313+786447543
1558+789568407+782013987+773096130+767680000+765793006+766277000+767797778
1548+769704523+772407028+776519460+782242736+789685638+797537298+800749564
1538+797245406+792543903+790923701+792078384+793163178+793092499+794247364
1528+798616926+804983117+810790381+816009121+822029697+827868988+831444736
1518+833312952+834997026+836829082+838896632+841811416+846592045+854520461
1508+865353633+873038350+870390055+862746055+858317908+858954685+863054660
1498+867973121+871708581+874721208+879520495+887863745+898456014+906348878
1488+907132603+902613844+898065488+897005186+899963665+905188786+910590270
1478+915746110+921726273+929185583+936788439+941073345+939749896+935950504
1468+934618608+937382007+941877247+944426300+944945907+946459696+950681459
1458+956322084+959417970+957589136+952825340+947765035+944540492+944984620
1448+949410458+955805698+961413809+964546038+964688428+962991227+962640751
1438+966703957+974648782+981560712+983562263+981725345+979038824+977832545
1428+979433786+983963546+990132650+995337291+997535260+997888228+998989370
1418+1000932519+1001923115+1001710714+1001586859+1002414888+1003559604
1410+1003801723+1003512080+1003874346+1004026704+1002584080+1001384243
1401+1002803773+1005368627+1005992824+1004317684+1001182538+996273313+990909144
1391+988869428+992013628+997646717+1001124865+1001675101+1002557279+1005797865
1381+1010666676+1014752551+1015569094+1013214574+1010727692+1010360320
1372+1011401115+1013108647+1016444951+1021656034+1026811266+1029710006
1364+1030207006+1030154862+1031159558+1032477355+1032224662+1030237270
1355+1028541102+1029149559+1032305368+1036852508+1041261329+1044900646
1347+1048737474+1053463043+1057406710+1058182292+1056162691+1053981192
1338+1052921072+1052581352+1053226151+1055299718+1057384346+1057434301
1330+1055972108+1055631537+1057719568+1060980878+1063527379+1064796922
1321+1065473688+1065496903+1064364463+1063198720+1063497843+1064926003
1312+1066584735+1068784467+1071680775+1073741823+1073085234+1070046352
1304+1067435554+1067072984+1067259192+1065269491+1061521877+1058640154
1295+1056810772+1053534147+1048293347+1043915155+1042174987+1040828141
1287+1036711394+1030214177+1024140911+1019324425+1014018963+1007232650
1278+1000520783+995563366+991874216+988242800+985047853+982782792+979382251
1268+972280588+962606961+954268147+949330177+946191324+941673051+934205840
1258+925015903+916322054+909322611+904132069+900560271+898293994+896329696
1248+892763915+886006469+876410752+866073912+856843257+848966498+841591966
1238+834111810+826789724+820263883+815060519+811784927+810769414+810965041
1228+810315745+807935701+804941974+802882628+802309723+802819971+803602724
1218+804015493+804094194+804418599+805702059+808519971+812757656+817251255
1208+820740706+823354422+826397679+830469394+834709267+838379942+842227770
1198+847287711+852890110+857118071+859292157+860718858+862776442+865465819
1188+868124871+870736763+873871727+877557413+881174790+884843400+889668697
1178+896272205+904086247+911710981+917815849+922369978+926555642+931209134
1168+936461846+942469113+948939469+954437460+957601290+958857706+959841678
1158+962032415+966116345+971328218+975374955+976379286+974823017+972516812
1148+969756695+965054159+958802342+954981801+956794532+962372135+967334779
1138+970317871+972883576+975649770+978219121+981134330+984430159+986756784
1128+988291175+990667937+993164543+992869734+989735561+987546830+988839102
1118+992559489+996541078+999278284+999739367+998571740+998836284+1003297248
1108+1011104057+1017890310+1020030484+1018417696+1015974509+1013135266
1100+1008826962+1003833932+1000092639+997941283+996646519+995922168+994886418
1090+993694543+995045460+998873598+999469414+992823000+982682273+975014330
1080+971450858+969339612+965327029+959231398+954610358+954439283+957120030
1070+958459341+956624611+952802490+949433308+947984971+947228472+945079486
1060+942186824+941064108+942341308+944639856+947239290+950511599+953986100
1050+956095705+955782969+953122033+949312370+945965067+943777065+943252110
1040+945644308+951305535+958008954+962404709+963062939+960717596+955825388
1030+949030020+942921384+940801205+943909367+950349944+956399509+959314474
1020+959787408+960959472+964525922+968747016+970164967+966417839+957900049
1010+947255698+937162192+928503530+920554695+912645058+905491799+900510255
1000+897671681+894640213+888821828+880627045+872813794+866637032+860921900
990+854602686+848608364+844702620+843155406+842361045+840970625+839524962
980+839041454+838814589+836918479+832771466+828062306+824857150+823372289
970+821972327+819166692+815330410+812140144+810454915+809410717+807710963
960+805388775+803946212+804668982+807149484+809923639+812550968+816282416
950+821929604+828112565+832787450+835849607+838831484+842704776+847391511
940+852931557+859372863+865748473+871149957+876700881+884389245+894129175
930+903735709+911437382+916765391+919344223+918752965+915365855+910100077
920+904282117+900141425+899581769+901728081+903224793+902058077+899547371
910+897857220+897612488+898371601+899425340+899777822+898919103+897887059
900+898350209+900881151+904795526+908813943+911418117+911551756+909722374
890+908132741+908974140+912413636+916508626+919367134+921064336+922686969
880+924412004+925876992+926431908+924864214+921815001+920819847+924338226
870+930795393+936799196+940414082+941596173+940908468+938594181+935222082
860+932460202+932403380+935904985+941319961+945113154+945230385+944111193
850+946268627+953142149+961662127+967602908+969285949+968169310+967388016
840+968905998+970878500+969513543+964099115+958376021+956764935+961014107
830+969846274+979969924+988105757+992446209+992582583+989556889+986046836
820+984509346+984615820+984128544+982315267+980446808+979163530+978255524
810+978219668+979462775+980898532+981647070+982756173+984889419+986566322
800+985965218+982645810+977737254+973226820+970719761+969801485+967978788
790+963711324+958253443+952878881+947057214+941045390+937511574+938244737
780+941059246+942313960+940095754+933606377+923498710+913796216+909746136
770+912918414+919876410+925993007+930167367+934927942+942269718+949674698
760+951648172+946826642+940593544+939262438+943867859+949243940+949121483
750+943824650+940705305+945440112+954843847+960138371+958186775+955518121
740+960138918+971437731+978985709+975167903+965237328+957788713+953965924
730+950975660+949548837+952084338+955978110+956011292+952862837+951469074
720+953792904+958912098+966389944+975485683+981530629+979272617+971347908
710+965259328+964288300+965769819+965233560+961543194+957264974+954774809
700+953835445+952788390+951107719+949953037+950550008+952103299+951951124
690+948662527+943567459+938625843+934363910+930033607+924744795+918885024
680+914530898+912316460+911367372+914024418+922928905+932005136+928680258
670+909602591+890906273+892180071+911282472+931139732+938927519+934053786
660+926736562+925260027+927110072+923477683+910947067+896564401+889926434
650+894510707+906161272+917777197+925970643+928642457+921363702+906306580
640+894331488+892494934+898634078+906362369+909540299+905221057+897013451
630+892331273+892397698+891484466+887436027+884874576+887796895+894397973
620+899486963+899000538+893190418+886163202+879416756+872105244+866105878
610+864946334+871176029+880816657+884309511+878645975+870137604+866722114
600+871983638
##END=
