##TITLE=<SNM>
##JCAMP-DX=4.24
##DATA TYPE=INFRARED SPECTRUM
##DATE=29/4/2025
##SAMPLING PROCEDURE=Instrument type and / or accessory
##ORIGIN=Admin
##XUNITS=1/CM
##YUNITS=ABSORBANCE
##RESOLUTION=4
##FIRSTX=4497.3318
##LASTX=599.83466
##DELTAX=-1.4281778
##MAXY=2.1836944
##MINY=0.61783439
##XFACTOR=1
##YFACTOR=2.0337239e-09
##NPOINTS=2730
##FIRSTY=0.63995647
##XYDATA=(X++(Y..Y))
4497+314672256+314275277+313793422+313894096+314368682+314255143+313688118
4487+313909395+315307861+316819692+317358170+316926901+316019492+314719266
4477+312996446+311386873+310578994+310575302+310842709+311071430+311275678
4467+311577083+312145543+312727925+312410635+310769439+308926690+308370891
4457+309223699+310497606+311457125+311864244+311451351+310261558+309173201
4447+308943777+309152773+309234806+309778003+311383268+313030913+313315172
4437+312677046+312544427+312940556+312622973+311161464+309661093+309333106
4427+310063523+310831279+311123364+311043939+310410268+309048700+307632531
4417+307087077+307486518+308289092+309207989+310166922+310978523+311398626
4407+311315859+310934238+310670201+310779022+311232771+311848388+312255361
4397+312148445+311896541+312088422+312215912+311055076+308682084+306823099
4387+306876029+308515262+310410414+311661754+312137718+311715534+310177004
4377+308160194+307117675+307815355+309451892+310444529+309766661+307780654
4367+306084534+306079493+307491119+308735806+308810513+308242931+308168196
4357+309049315+310317038+311042854+310935821+310459564+310090692+309945792
4347+309930171+309800395+309399372+309084250+309315931+309703502+309277743
4337+307759289+305837877+304349991+303794631+304256498+305236445+305886645
4327+305869090+305624133+305579408+305692127+305885532+306204668+306391918
4317+306156779+306032834+306928374+308567314+309588878+309661416+310059801
4307+311497951+312828862+312500318+310344617+307583909+305749952+305637087
4297+306723744+307643375+307563041+306902788+306554431+306923626+307900436
4287+309090816+309849105+309671263+308779387+307831269+307079340+306380810
4277+305763522+305431344+305562556+306433301+308206677+310290163+311539100
4267+311516063+311070668+311328374+312267231+312607176+311497306+309909567
4257+309426364+310093886+310584241+310285796+310030082+310559915+311262343
4247+310960000+309467953+307896509+307507356+308504096+309939139+310689633
4237+310482659+309891074+309455379+309165287+308770302+308290352+308162861
4227+308893367+310387437+311694784+311827609+310919819+310174572+310577851
4217+311927344+313127835+313280120+312463947+311543466+311203052+311184295
4207+310748454+309904644+309451774+309579001+309426013+308475491+307393201
4197+306943848+306916856+306660322+306148777+305951329+306373952+307134967
4187+307756094+307895952+307500468+307046222+307324209+308607407+310397724
4177+312005949+312941083+312885515+311968376+311092414+311198334+312021482
4167+312268315+311307741+309937205+309117984+308885248+308858607+308904680
4157+308915846+308727922+308637624+309352332+311073745+313037478+314128942
4147+313830380+312646097+311712662+311797363+312524791+312762069+311904836
4137+310558391+309866719+310439312+311760288+312456854+311596045+309793419
4127+308499700+308259813+308377221+308263564+308258406+308756820+309323434
4117+309355263+309112738+309325574+309940312+310068799+309426716+309003331
4107+309756110+311219143+311992877+311453022+310400215+309993477+310604434
4097+311688805+312366439+312130831+311187929+310099894+309191460+308407995
4087+307720660+307387515+307558967+308061221+308814381+309905142+310876501
4077+310728612+309360216+308221185+308770390+310904403+313179417+314093420
4067+313256204+311716121+310982567+311582182+312705182+313119716+312125028
4057+309975511+307757501+306534590+306466946+307001116+307692583+308417022
4047+309103359+309700454+310199542+310417653+310058130+309198640+308367198
4037+307949557+307867553+308044193+308748907+310147901+311786988+312802895
4027+312648705+311623478+310659152+310521521+311218908+312085491+312434609
4017+312169224+311543847+310497371+308929298+307562045+307477432+308698262
4007+310109625+310752118+310543414+310009684+309824369+310226945+310791215
3997+311082860+311147191+311117238+310945053+310655987+310335796+309945763
3987+309548345+309433721+309740430+310246728+310695963+311100298+311508092
3977+311676408+311367002+310805576+310477442+310636087+311184149+311761490
3967+311963569+311840856+311888218+312145074+312023739+311437224+311129079
3957+311547247+312287776+312811952+313103626+313533782+314313085+315093883
3947+315362316+315234708+315198249+315073689+314138262+312459697+311119964
3937+311041125+312337482+314525510+316716439+317735542+317008759+315403377
3927+314291924+314092951+314229410+314302446+314840397+316393903+318255644
3917+318832135+317497413+315271314+313404709+312251668+311589949+311579047
3907+313210865+317433902+323433306+328448777+330559754+330179334+328013669
3897+324443880+320783851+318795441+319148311+320676789+321313420+320681097
3887+320139834+320170315+320046195+320034003+321137776+322360863+321594367
3878+319457394+318528942+319778436+322294334+325008853+326908078+326959074
3868+325839621+325323388+325585988+325034321+322754764+319890334+318107902
3858+318531697+322226661+329725820+337163902+337115133+330373354+323164551
3848+318922550+318275222+320396339+323845408+327440079+330794102+333555543
3838+334486340+332800976+329714947+326950663+325046191+323728439+322907987
3828+322548289+322410687+323042072+325772505+329994605+332046526+330525844
3818+328612287+327864930+326133816+322563998+319454698+318859479+320959436
3808+324171373+326358727+327561444+329775322+333132070+334714328+333347631
3798+331199638+329258385+326826689+324335440+323403588+324544993+326713238
3788+328925972+331100636+333210323+335095451+337297547+340560655+344277718
3778+346827291+347808820+348566816+350808361+355392680+361609550+367463849
3768+371352950+372948866+372738052+372203355+373244116+376355086+380078332
3758+382872481+385190168+388933960+395812578+405699940+414926725+419384492
3748+420711271+423255510+427702169+430103413+429178068+429378623+434681168
3738+445161462+456442836+462692091+462857096+460820738+460037712+461530698
3728+464690319+467763922+468819044+467585465+465292279+462795871+460344393
3718+458413632+457769146+459133762+462678375+467002379+469454210+468894835
3708+466452207+463984990+463386899+465371734+467929982+468252312+466752879
3698+465912469+466795698+469112330+472860107+478131145+483416808+485514860
3688+483260977+479291630+476072103+474325280+474304735+476038428+479394824
3678+484657890+491004771+494494989+493005608+489823683+487557666+484958357
3668+480578081+475991945+473432114+473182761+473596123+473242373+472642436
3658+473124379+474965486+477606442+481292995+486972910+494131744+498817352
3648+496687002+489291066+481762423+477261603+475846899+475953669+476184558
3638+476227494+476672626+478283518+481561692+486872442+493774067+498826906
3628+497366541+490901255+484940597+482469540+483911676+488218213+492877473
3618+495399262+495817547+495668603+495715555+496252597+497790336+499923030
3608+500717808+499135345+497054057+497031138+499277431+501710006+502832038
3598+503497098+504849141+505922522+505048905+503375645+504426518+509862883
3588+516540858+519053678+516685288+513204479+511041949+510062354+509711360
3578+509807080+509595944+508169987+506391393+506885528+511346695+518411361
3568+524171112+525470049+522942222+519182399+515797135+513543457+513078102
3558+514376335+516201880+517115473+516915591+516656508+517312130+518716342
3548+519703264+519300335+517993720+517154335+517094312+516746894+515309682
3538+513088653+510758715+508929771+508130362+508144371+507549827+504950547
3528+500947994+497925564+497599013+499574029+502104083+503586605+503545750
3518+502702438+502144235+502176239+502203906+501926300+501848574+502259474
3508+502758768+503203489+503915911+504649904+504643808+504036133+503850554
3498+504247035+504293400+503605949+503044112+503588188+505177099+506608860
3488+506587875+505273230+504143342+503989533+503850144+502451443+500282641
3478+499214829+499985281+501069506+500598172+498604516+496305762+494194815
3468+492330876+491350842+491932637+493816505+495776985+496477742+495608405
3458+494163807+493417036+493712462+494282036+494170723+493300565+492490957
3448+492255672+491872321+490275175+487659805+485293203+483946201+483320560
3438+483014232+483197144+483692627+483377360+481809228+480418147+480520784
3428+481335374+481364712+480598802+480128700+480721017+482392489+484203292
3418+484638488+483417248+482107204+481943225+482212332+481591527+479964105
3408+478240992+477256298+477286192+478000754+478556143+478250811+477317171
3398+476785873+477432674+478909071+480118120+480435732+480180429+479930635
3388+479888197+479894762+479763550+479424748+478801803+478017489+477753071
3378+478595591+479956690+480743936+481194373+482566667+485008972+487260716
3368+488435591+488795554+488854463+488978319+489653285+491169190+493137436
3358+494679395+495015853+493998626+492336855+491037362+490441381+490274588
3348+490629188+491840200+493326591+493967970+493708534+493426649+493380049
3338+493118327+492701917+492868680+494055132+495685016+496382784+495250142
3328+493072313+491605793+491544949+491920562+491564322+490700787+490600231
3318+491513619+491922555+490758905+489172632+488665601+488928818+488928613
3308+488592478+488244561+487841750+487561183+487837061+488414782+488391688
3298+487329004+485774120+484868293+485676377+488304320+491576192+494206069
3288+495872998+496557519+495993924+494720075+494285611+495415557+497169531
3278+498399711+498920634+499002579+498832064+498568350+498212315+497601357
3268+496790460+496056878+495508405+495045688+494516677+493621548+492077126
3258+490269284+489247338+489666650+491114354+492642011+493673364+494163162
3248+494147687+493638546+492876594+492221029+491688911+490887773+489702289
3238+488757746+488762963+489547043+490148622+489978928+489432742+489014984
3228+488395410+487082435+485602052+484882479+484872485+484753933+484102824
3218+483218861+482591081+482368281+482287126+482228832+482590436+483515401
3208+484157249+483580875+481989121+480207597+478559513+477048738+476085467
3198+476104752+476724472+477177605+477501753+478243073+478998549+478515492
3188+476421133+473837182+472113629+471587490+471656510+471721164+471704517
3178+471559735+470952236+469855790+468698206+467661842+466656543+465872961
3168+465513292+465257637+464658960+463675525+462541623+461631430+461338642
3158+461520674+461446144+460752596+459853892+459047010+457985792+456484746
3148+455098237+454339069+453933649+453368471+452655082+452087296+451795504
3138+451859513+452303091+452781283+452751858+452113058+451425928+451388443
3128+452060244+452678411+452461766+451434281+450114917+448821667+447704353
3118+446996122+446810220+446940847+447018513+446689236+445755245+444399451
3108+443167982+442520389+442421533+442436685+442220157+441853424+441559903
3098+441251611+440745870+440259794+440113137+440097926+439817974+439388288
3088+439111033+438786885+438067370+437200231+436683734+436419784+435952466
3078+435366714+435197811+435567768+436050678+436288689+436302874+436236081
3068+435984295+435195115+433811683+432460109+431856890+431942880+432008119
3058+431580162+430841714+430225775+429877682+429586652+429180647+428816933
3048+428731383+428877073+429050724+429205559+429392252+429525193+429401953
3038+428916581+428208320+427626466+427361521+427139042+426565307+425641426
3028+424672206+423857763+423249209+422984791+423242644+423866995+424316992
3018+424240967+423887745+423608585+423246600+422512285+421561031+420636565
3008+419692433+418880803+418689362+419133614+419503219+419225232+418457857
2998+417702147+417290045+417307220+417671432+418160233+418408590+418063985
2988+417181927+416290228+415822235+415695185+415533081+415084579+414448680
2978+413982388+413864599+413811199+413425885+412697696+411944828+411409017
2968+411067226+410819836+410746448+411008082+411480822+411781611+411721793
2958+411365641+410725317+409878898+409157185+408739339+408410385+408038172
2948+407798695+407676509+407251483+406250200+404987400+404025947+403622521
2938+403759741+404487638+405753749+406984720+407446734+407096707+406513504
2928+406024176+405403283+404373131+403082050+402036247+401595307+401593490
2918+401600875+401446656+401264125+401220925+401423737+401803336+401947796
2908+401426580+400442149+399766157+399810910+400099097+399919937+399223458
2898+398528211+398256466+398516956+399166952+399778818+399903993+399571346
2888+399214402+399056519+398866485+398373552+397714324+397260253+397032822
2878+396622244+395843879+395085502+394739930+394697462+394685475+394774718
2868+395192418+395788399+396061433+395784940+395335266+395213373+395404579
2858+395423718+394936353+394164699+393616197+393490260+393505852+393329036
2848+392991524+392786572+392846243+392985193+393002807+392961161+392966290
2838+392826490+392236634+391238077+390225188+389546763+389248641+389114029
2828+388883726+388515762+388248413+388335488+388715819+389016726+388870068
2818+388238185+387449151+386883915+386634590+386521402+386405430+386259827
2808+385911676+385148258+384227807+383753894+383868460+384115175+384213035
2798+384397002+384861009+385329089+385304470+384551075+383343492+382288488
2788+381823221+381882951+382051502+381940952+381457895+380832694+380399227
2778+380300077+380376220+380310218+379899025+379248619+378660874+378294317
2768+378055631+377843968+377690775+377576092+377333127+376887849+376449224
2758+376286358+376393509+376550249+376639463+376661473+376488877+375929590
2748+375061132+374263716+373888455+373959117+374138160+374031215+373604371
2738+373135910+372768621+372468828+372359713+372603967+372989252+373084035
2728+372806633+372505844+372431841+372343916+371821440+370891405+370045866
2718+369638307+369576408+369546602+369282536+368785997+368425419+368518531
2708+368836026+368880926+368520055+367983834+367485361+367149343+367079209
2698+367238000+367371206+367235744+366920476+366767458+366878771+366935570
2688+366669833+366230094+365883760+365658292+365454982+365271747+365157358
2678+365038572+364707976+364090366+363467246+363168127+363062676+362766400
2668+362349316+362306263+362772526+363314609+363571114+363630023+363703645
2658+363793386+363723926+363355728+362776336+362246415+361915820+361727222
2648+361583934+361418490+361141968+360711050+360238545+359968763+360090714
2638+360475911+360678196+360392237+359800564+359301622+359080434+359059156
2628+359071583+359018066+358920470+358802622+358617629+358426247+358459893
2618+358798959+359177151+359283129+359105141+358866016+358753355+358790166
2608+358907897+359083130+359335209+359550097+359446170+358908747+358263265
2598+357961274+358077920+358355204+358610156+358833718+358979966+358917686
2588+358598638+358148992+357789411+357707876+357961274+358404149+358741661
2578+358791895+358691544+358720120+358946115+359157133+359105873+358754410
2568+358265111+357778127+357338857+357094515+357293488+357900342+358441634
2558+358453152+357981438+357527924+357508023+357804387+357980500+357894451
2548+357766697+357661920+357391524+356978982+356787102+357080623+357678538
2538+358097175+358016519+357594482+357252632+357199292+357306589+357385838
2528+357364238+357204714+356896949+356611898+356640239+357029041+357463416
2518+357658902+357688034+357775782+357965963+358151044+358275310+358332637
2508+358262151+358041812+357823408+357750226+357731088+357644453+357578011
2498+357604301+357589559+357451635+357310662+357253101+357208641+357086543
2488+356881884+356717466+356804452+357228805+357812300+358264437+358413703
2478+358310832+358183341+358208898+358298522+358241547+358048729+357949462
2468+358033342+358101484+357958900+357686041+357475579+357334373+357121068
2458+356804540+356548622+356552373+356878895+357434138+358008958+358307813
2448+358132111+357674113+357410017+357532613+357753860+357801632+357768485
2438+357827980+357952393+358064790+358218980+358481200+358758279+358862792
2428+358726538+358482343+358346001+358448580+358722816+358936150+358938905
2418+358866660+358955728+359206371+359422929+359592007+359986348+360725206
2408+361425583+361627691+361437364+361312365+361390647+361531238+361758406
2398+362129564+362439380+362552656+362803973+363737936+365695250+368867796
2388+373563838+380273671+389577009+401996330+417784444+436788539+458618994
2378+482993013+509720094+538157011+566953246+594878560+621597435+646382735
2368+666456108+678892721+684122932+685617354+685722394+683353242+676158624
2358+662952087+643810067+619365328+590810064+561749353+538310761+525489920
2348+525268409+537093126+557121189+577760560+592233912+599357370+601797331
2338+602558287+603226747+604185240+605652464+607239733+607353801+604952292
2328+601001381+596667646+591536320+584612508+576034136+566929389+558015380
2318+549179271+540235719+531375285+522707171+513911860+504707700+495262393
2308+485853955+476516766+467267559+458393497+450317612+443277272+437173707
2298+431703872+426613665+421758480+417023107+412428500+408232367+404653141
2288+401608876+398946731+396706828+394941775+393537095+392403017+391586433
2278+391049596+390593210+390090488+389577771+389093279+388621213+388154129
2268+387650674+387010877+386218767+385434012+384848230+384469306+384098997
2258+383582823+383051935+382742236+382585379+382271665+381749804+381338259
2248+381305874+381600333+381961204+382129462+382039193+381893326+381929346
2238+382119819+382243148+382184620+382037962+381946110+381905635+381739986
2228+381284538+380561096+379734724+378988685+378458589+378160027+377963868
2218+377739924+377496960+377314077+377193269+377032514+376737117+376362178
2208+376099695+376068335+376187766+376322319+376458895+376673548+376978851
2198+377250684+377344968+377326474+377483947+378017941+378816236+379609871
2188+380222235+380623669+380881023+381094357+381321788+381573340+381872517
2178+382263077+382756333+383291324+383705360+383781854+383467964+383036138
2168+382862018+383043787+383384494+383711016+384029420+384355854+384601515
2158+384701133+384719128+384762328+384861243+384967661+385033341+385099753
2148+385321234+385855961+386692532+387598798+388273501+388591436+388750403
2138+389164820+390096701+391333709+392397419+393158199+394010685+395337288
2128+397086954+398989726+400850059+402517868+403916335+405194726+406559078
2118+407957135+409180954+410165473+410931089+411364410+411339234+410997883
2108+410658670+410418109+410053780+409420079+408743355+408309389+407986970
2098+407366371+406343927+405241297+404331514+403590546+402940638+402399815
2088+401958552+401585459+401340238+401288832+401386897+401552693+401722797
2078+401817638+401823119+401864414+402034782+402237946+402366345+402547147
2068+403011153+403724718+404351531+404652643+404753815+404919171+405242176
2058+405660637+406109902+406541933+406913267+407279970+407810799+408576709
2048+409402758+410086722+410708201+411531554+412617274+413698978+414489272
2038+415026695+415640847+416559276+417637757+418580365+419320718+420040115
2028+420936475+422119234+423567290+425058839+426310883+427309030+428348032
2018+429668363+431215305+432836397+434514697+436258121+437947647+439465603
2008+440835172+442118545+443348930+444659209+446278864+448242802+450209201
1998+451755293+452903263+454170049+455937153+457923365+459492786+460386831
1988+460870298+461302681+461933714+462951058+464374143+466001595+467659145
1978+469388178+471284795+473312625+475384622+477500962+479726065+482073558
1968+484412611+486541377+488468299+490480537+492744766+495062453+497244971
1958+499457793+501908656+504467197+506836467+508883581+510688551+512467907
1948+514536299+517215121+520601675+524251651+527247645+529124538+530563978
1938+532504762+535033585+537715044+540439763+543297012+546008483+548115034
1928+549648846+551343266+553997000+557521245+560952934+563739258+566194869
1918+568286649+569327556+569431307+569779722+571111073+573038376+574842467
1908+576312915+577617126+578709968+579321277+579572155+580110311+581347348
1898+583038779+584788767+586431898+587905453+589220860+590405319+591252676
1888+591604549+591857302+592462281+593196625+593596095+593778626+594212621
1878+594878971+595209039+594917013+594643275+595516364+597945891+600665451
1868+601265388+598722849+594710742+591601911+590420911+590624837+591065983
1858+591044588+590520852+589641022+588527371+587501821+586935178+586832306
1848+587111202+587982533+589106559+588805095+585959451+581987086+579018231
1838+577781135+577495380+577106462+576757753+577451770+579035992+579616996
1828+578103817+575695568+573554726+571427660+569000653+566747854+565066564
1818+563751860+562590731+561936456+562264941+563277772+563874661+563336974
1808+562196067+561470515+561629131+562576311+563946466+565097807+565432623
1798+565189307+565500676+567393864+570648825+573224014+572885739+570295780
1788+568114903+567836300+569004053+570432414+571606498+572705787+573939659
1778+575544280+578089808+582226651+587660261+592173830+593403482+592054312
1768+590363526+589485161+590000808+592292411+595397842+597338919+597821742
1758+598150696+598598817+598895416+600153789+603800717+609066978+612950716
1748+613774860+613017656+612862733+614293321+617059599+619991232+621679498
1738+622381838+624438800+629288182+634149111+634465463+631160385+627815741
1728+625831639+625205969+625512532+626047464+626919909+629848846+636611522
1718+646036079+652493598+651845419+647055591+642783697+641123801+642241203
1708+645542705+649688634+652738145+654530395+657613669+663735669+670035100
1698+672225004+670524253+666908216+663132449+661141489+661627770+663731156
1688+666853468+671905545+679048171+684268770+683679618+680122783+677653749
1678+677730712+680101857+683262504+685730307+688075954+691457058+694355104
1668+693800829+690787836+689107659+690194874+692168659+692908396+693138055
1658+695053693+700463974+710429148+722114652+725999152+721704866+719433720
1648+722171920+725068501+722469104+716441360+712109559+711408626+714524960
1638+721303696+729634122+733813403+731058087+726586076+725358769+728110509
1628+733137792+738692444+744429159+750082053+754348262+757187516+761001032
1618+767703918+775619517+780366789+781001955+780619953+781897377+785204975
1608+788536372+789658170+788682737+787298279+786617745+787106780+789134668
1598+792216653+794779414+795776008+795847109+796349158+798169779+801594258
1588+806114861+810179254+812111481+811579890+809784122+808666369+810227906
1578+815347685+821635392+824110991+822627004+822266514+825857522+831654084
1568+835737937+837034119+837532943+839101807+843029449+850729574+861885128
1558+870107875+870368776+866613760+862742742+860395512+859927227+860374411
1548+860936541+862464608+866258604+872067651+877931095+880658627+877625294
1538+871678205+867798629+866647933+865586510+862383717+858495584+856955793
1528+858490484+860762802+860993809+860051669+861478917+866391839+871865015
1518+875071676+875519387+874345890+874321505+878251550+886720427+898232720
1508+909393725+913222832+906361095+897382139+892977596+892516931+893457253
1498+894605487+896231795+898674803+902136797+906753883+911599689+914596035
1488+914848202+913870952+913454777+914193752+915723871+917336404+918765820
1478+920693475+924066020+928769271+933182372+935231714+934671870+933353239
1468+933022878+934239048+935802930+935637690+934407804+935499825+940680506
1458+946873197+946737911+938986320+930383329+924575454+921447514+920526653
1448+921386788+922981795+924054121+923742165+921883267+919383929+917755921
1438+917490799+917405220+916716127+916773219+918687040+921389894+923073295
1428+923974930+925966535+929155435+931277461+931059936+930373305+931416909
1418+933247495+933776155+933600951+933998545+934248895+932658753+928829529
1408+924398315+921607654+920946697+920509771+918982993+917972742+919423436
1398+922952604+927070748+930701732+932305532+930979104+928662121+927489503
1388+926599415+924135949+921324830+921243354+924920410+931144344+938217392
1378+944611781+948753079+949596215+948029989+946848695+948155955+951206521
1368+953742788+955292016+957909408+963153570+969450246+973374078+973504909
1358+971217996+968581788+967286427+968473641+972477659+978086766+982875129
1348+985226110+985549554+985697033+987683890+992653963+999796940+1006418936
1338+1010090776+1010397691+1009077887+1009059833+1012840231+1019895167
1330+1026170741+1028922657+1030116084+1032800592+1036259068+1037531979
1321+1036802793+1037455192+1041269000+1046785728+1052217697+1056896799
1312+1059857037+1060557502+1060878836+1063412934+1067490399+1069947358
1304+1070286629+1070659897+1071256728+1070593426+1069466001+1070191905
1295+1072659884+1073741823+1070888149+1064821131+1057796559+1051417468
1287+1046743407+1044456904+1043622560+1041493852+1036820378+1032333889
1278+1031446556+1033575499+1034782525+1032634356+1028641768+1025690674
1270+1024783997+1024419052+1021642283+1014336704+1004207814+996194385+993367791
1260+993868843+993670368+991513525+989515062+989410373+989643080+986251308
1250+977252481+965275010+954782230+947931865+943208274+937606728+929737612
1240+920276068+910298701+900572270+891814122+884434628+878160812+872519407
1230+867585559+863827319+861251075+858782452+854974505+849753203+844775568
1220+841547923+839987616+839185160+838787917+839200927+840601973+842061929
1210+842437424+842219665+843218134+846260963+850417266+854619935+858987198
1200+864047716+869266204+873099180+874863764+875818740+877738892+881147486
1190+885226181+888592865+890428785+891580653+893555728+896249966+898374219
1180+899947480+902451684+906803296+912659061+919311655+926518934+934252647
1170+941955292+948483796+953345487+957102438+960317012+963715290+968040877
1160+972767927+975971657+976244809+974161411+971747418+971414653+974449920
1150+979309502+982899572+983669496+982060656+979389571+977863204+980015945
1140+986046620+992164399+993911516+991644356+990045656+992565335+998304570
1130+1004176982+1008631818+1012336483+1015948065+1018508071+1017473729
1121+1012020541+1006672510+1006313310+1010876703+1016836570+1022328328
1113+1028113987+1033066592+1034934693+1034198707+1033286872+1033241152
1104+1034215940+1034899875+1031968124+1026815285+1025046246+1028721134
1095+1034476900+1037798214+1037710524+1035636564+1033041739+1030914789
1087+1029089831+1026327715+1021786362+1016185461+1011843403+1011793696
1078+1017426367+1025203690+1028339074+1024862074+1019962106+1018061884
1070+1017360131+1013964022+1008355735+1004304882+1002931034+1001601852
1061+999354856+998855446+1001390834+1004013442+1003383904+999794830+995348083
1051+991139084+987414607+984357065+981970152+979913366+978218125+977735538
1041+979011379+981124027+982808365+984167500+985769014+986277803+983333508
1031+976953714+970377497+968136773+972792956+981988968+989630184+991266047
1021+987848250+982587440+976789061+971550702+969687349+973063822+979244907
1011+982943593+982305027+979844668+975880099+967967900+956764984+945756030
1001+936649935+929691364+925821694+924683132+922903190+917773447+910493542
991+903693176+898327912+893695704+889063436+884894238+882388627+881709675
981+881295961+879644448+877277113+876044296+876281223+875857193+873111079
971+869173180+866333105+865394424+865233347+864060377+860672298+855273096
961+849457308+844872402+841806127+839903326+839508135+841017738+843948434
951+847794189+852804589+858567389+862994851+864495954+864323857+865673672
941+871036826+880045500+888762559+893063293+894095760+896728451+902637556
931+908665652+912187962+915006408+920307076+928104270+934825269+937301689
921+936540088+935891323+936560135+937000636+935873973+933417248+930643878
911+928666400+927766347+926640446+924007755+921233975+921393763+925524510
901+931026232+934034067+932994390+929955254+928483458+930500737+935241034
891+940870188+945829534+948246400+946996584+944337457+944391619+948445344
881+953463833+955612354+954138155+950787180+947571258+946545063+949520776
871+956336558+963468633+965968851+962941086+958501256+955958073+955000048
861+955066754+957114513+960695322+962893725+961570814+958159172+955871145
851+956261295+958527692+961580251+966328051+973956840+981250989+982005498
841+975359645+967355594+964237502+967512276+974640834+982434452+989200058
831+994760396+999053217+1001581336+1001535967+997775851+991158896+986889288
821+989680125+997090745+1001718147+1001782273+1003500667+1010797688+1019155429
811+1021567489+1018453793+1015847362+1016548882+1018798339+1020553427
803+1023946019+1032553231+1043691610+1049186768+1044777652+1032921693
794+1018447697+1006434880+1001701500+1005071935+1010179756+1009940719
785+1005366188+1002042177+1001441712+999552276+992905778+983663049+977514203
776+977437240+979462373+976927102+970095025+965907304+968881669+975917320
766+979510438+976014095+969693621+966893405+968670767+972708490+979362256
756+989770394+1000216281+1003165265+995960623+984041944+975587662+975326761
746+981974021+990852216+998896712+1005402179+1010027119+1012919245+1015273626
736+1017001047+1015907268+1012710571+1011869194+1014783125+1018041720
727+1018111357+1015174213+1011639418+1007801577+1002166796+992958415+981170685
717+972432466+972163066+980131653+990452687+996541627+996435649+993613628
707+994125934+1002655069+1016823675+1025900872+1022368187+1011439302+999926130
697+988822452+980928072+981676016+991345413+1001240776+1002429279+997084297
687+992395582+991298755+989902750+981511011+967878510+957193469+955880406
677+964479001+976126521+982342483+979984292+972770916+966312225+962156918
667+960206638+958179101+952722807+945688855+943793030+950137947+959105590
657+964733982+967314387+966442001+960302241+952389339+947170909+943663781
647+940128751+938136033+939049333+939852844+936109082+929424484+926558207
637+931644516+943617591+958516497+969727619+969122406+955423082+935123684
627+914835072+901248350+899697716+909129658+921217973+927363536+926376380
617+923045980+921895987+923505355+926453753+927557849+920471964+906668244
607+898802587+902422727+912845636+924785065+934023457+941811272
##END=
