##TITLE=<SNM>
##JCAMP-DX=4.24
##DATA TYPE=INFRARED SPECTRUM
##DATE=29/4/2025
##SAMPLING PROCEDURE=Instrument type and / or accessory
##ORIGIN=Admin
##XUNITS=1/CM
##YUNITS=ABSORBANCE
##RESOLUTION=4
##FIRSTX=4497.3318
##LASTX=599.83466
##DELTAX=-1.4281778
##MAXY=2.1188164
##MINY=0.38430607
##XFACTOR=1
##YFACTOR=1.9733015e-09
##NPOINTS=2730
##FIRSTY=0.39925149
##XYDATA=(X++(Y..Y))
4497+202326652+201690554+201217384+201200031+201409914+201113582+199777470
4487+197769028+196208776+195947362+196862137+198171638+199069845+199149980
4477+198740257+198715111+199507493+200535554+200903593+200398043+199548074
4467+198908230+198511722+198099900+197827884+198256591+199394102+200380464
4457+200620673+200616112+201140209+202165188+203010203+203039352+202105532
4447+200756704+199820075+199499021+199197554+198340849+196999814+195804898
4437+195576076+196659533+198399040+199724580+200282869+200469887+200617124
4427+200706457+200545401+199901827+198796802+197711789+197202629+197348008
4417+197754590+198001324+197950926+197772351+197824274+198447732+199526930
4407+200276300+199904485+198500214+196951243+196098918+196164298+196768590
4397+197322031+197382579+196777577+195783542+195192314+195600285+196608592
4387+197352509+197693665+198091623+198491243+198257225+197298622+196484945
4377+196605163+197375057+197807374+197396292+196572707+196044730+196088935
4367+196444530+196644566+196537171+196474464+196737811+197044729+197027754
4357+196843530+196811981+196855069+196779087+196723071+196958810+197490020
4347+197985043+197981162+197335971+196607127+196638450+197610842+198726212
4337+199019598+198411561+197703497+197537926+197671298+197430771+196630883
4327+195761538+195329704+195231189+195010386+194752839+195163015+196431210
4317+197754409+198456793+198746042+198972417+199112269+199204365+199397968
4307+199549177+199448200+199267012+199265607+199359743+199362053+199356722
4297+199546413+199892342+200134938+200207778+200442823+201136493+202022286
4287+202509169+202456340+202253358+202073620+201655893+200961513+200463287
4277+200572616+201160325+201785444+202238316+202688801+203190138+203332044
4267+202845100+202231082+202136418+202360769+202127054+201212385+200323345
4257+200251924+200908608+201498688+201595451+201530494+201692109+202036331
4247+202340229+202458590+202419172+202575017+203409083+204935762+206455795
4237+207034594+206313300+204869491+203650712+203173812+203408433+204045498
4227+204590618+204615598+204212807+203885998+204016033+204684663+205722057
4217+206745194+207371854+207455191+207104474+206556636+206011910+205568734
4207+205387606+205749257+206638342+207426692+207381112+206414489+205106498
4197+204195741+204154163+204949037+206048277+206834920+207109262+207113355
4187+207150311+207357506+207747143+208145403+208187192+207736978+207184172
4177+207040529+207479808+208426163+209703208+210944052+211736087+211960212
4167+211797177+211514136+211333265+211257797+211051282+210644579+210314538
4157+210197537+210126448+210196601+210836203+211968337+212722509+212412041
4147+211368395+210443184+210069314+210108869+210244703+210250246+210148181
4137+210191843+210467152+210691352+210717873+210895119+211551757+212450372
4127+213064904+213145417+212741946+211941424+210910463+210106075+210103371
4117+211009749+212200497+212926034+213171409+213571617+214482586+215539629
4107+216125194+215926592+215132866+214417131+214498565+215352158+216139949
4097+216201810+215723067+215213590+214866619+214649275+214618405+215000641
4087+216003767+217407374+218461034+218558265+217913770+217231577+216894408
4077+216838286+217003148+217457470+218105590+218603649+218640953+218191978
4067+217547089+217166243+217296293+217652265+217777814+217677321+217679405
4057+217824059+217884938+217870379+218110664+218815722+219718460+220410182
4047+220949140+221691456+222496615+222736326+222220249+221432262+220804908
4037+220352037+219984133+219763708+219824482+220140039+220429182+220482117
4027+220545684+221084113+222170456+223332991+223966991+223831398+223231305
4017+222704656+222461531+222256783+221861226+221420407+221280117+221614900
4007+222241121+222737051+222770625+222459281+222377983+222907713+223618343
3997+223755446+223280373+222839493+222775896+222791149+222526277+222042913
3987+221738834+221927482+222519194+223212698+223877975+224423683+224565091
3977+224249700+223978816+224217923+224821808+225358243+225632298+225630757
3967+225377846+225170349+225608511+226947447+228531501+229342067+229145807
3957+228589617+228226848+228066427+228036040+228302000+228920473+229516444
3947+229687619+229637598+229911140+230438619+230420420+229468870+228268079
3937+227744149+228277443+229815297+231976368+233770895+234130189+233309218
3927+232825703+233575918+234682135+234790317+234091587+233914809+234774398
3917+235669509+235239065+233392902+231384959+230348501+230387526+231262475
3907+233389383+237388114+242675368+247231980+249310680+248566264+245310379
3897+240371803+235672817+233559003+235044149+238285415+239818633+239191038
3887+239241058+241202576+243020315+243334830+243606605+244242794+243480904
3878+241483049+240803198+242536166+245562535+248836377+251459004+251605878
3868+249444309+248035281+248760652+249293750+247337941+244033530+241704305
3858+241693522+245260509+253461360+262327351+263131664+256166900+248019484
3848+242438964+240556509+242315605+246663436+251873243+256610016+260091567
3838+261211075+259389741+256065017+253158383+251173275+249589402+248349570
3828+247886972+248174212+249489406+253341625+259858864+264697943+264347951
3818+261697596+259704997+257099134+252605184+248166857+246419103+248476645
3808+252989020+256594581+258147871+260089664+263412093+265326158+264143701
3798+261698683+259071103+255766466+252224216+249833191+249195204+249983040
3788+251895761+254635298+257201621+258665654+259539682+260851025+262262288
3778+262600319+261897073+261478606+262713650+266116576+270762219+274940038
3768+278061902+280465508+281960834+282826978+284768529+288922819+293848588
3758+297131084+298980630+302148527+309026571+319292529+328562097+332507636
3748+333113136+334692795+338114872+339938471+338426563+337128661+339865102
3738+348014406+359953691+371280347+377466503+377338310+373806074+371157682
3728+372067624+376604859+382760628+388097223+391258324+392270572+392523634
3718+394149598+398744949+406891746+418129115+429815307+437269612+438734551
3708+437409041+437329208+440705342+447067445+453309028+456616233+457736798
3698+458896781+460952933+464168464+469220311+476236425+483459506+487765216
3688+487830943+485610322+483202518+481530611+480958155+481582262+483913858
3678+488908798+495615455+499974297+500767162+501649979+503294127+501871658
3668+496424330+491088158+489057500+490002178+491973180+494362107+498267472
3658+503749144+508511289+511241810+514424508+521309438+531823626+540604921
3648+541655047+536808990+532243301+530676902+530666632+529912883+528103450
3638+526783770+527482183+530540977+535231657+541130074+548832125+556938629
3628+559548931+554703298+548102541+544946364+546753320+551881677+556829224
3618+559341601+560718913+562643127+564275193+564692935+565643625+568694203
3608+571606078+571490451+569905566+570393084+573309248+576016692+577426868
3598+579361714+582374113+583907527+582628021+581809148+585681378+594256490
3588+602186533+603651683+599085450+593003141+588486869+586736397+587791900
3578+590302162+592282558+592779258+592572290+593269252+595949994+600201968
3568+603758369+604430563+603166401+602711807+603836057+604946172+604911677
3558+604411171+604181730+604426878+605502316+607514670+610340700+614346801
3548+619545115+624347555+626901433+626812266+624036196+618917685+614016473
3538+612299047+613468726+614758019+615112270+616040245+619214002+625015641
3528+631674453+635277672+633407164+628408811+624455570+623154617+623435287
3518+623455041+622134757+620082834+618536189+617844422+617798449+618590861
3508+620316625+622499700+624695824+626523018+627360618+626570320+624012696
3498+620706397+619152986+621867619+628621458+635700066+639140659+638657008
3488+637475548+638325230+640217970+639974090+636846729+633728369+633389644
3478+635471290+637265438+636838997+635110454+634086245+634361236+634764117
3468+633729094+631507899+630015866+630541685+632576753+634399959+634438622
3458+632365797+629569972+628260199+629302774+631984845+635450206+638602396
3448+639603227+637589302+634009341+630890317+629214755+629185879+630722314
3438+633042160+634797464+634823743+632535975+628582855+625029837+624049486
3428+625744863+627947089+628802389+628751342+629190591+629996233+629773437
3418+628079449+626025110+625001867+625638721+627380554+628508791+627924374
3408+626696881+626163149+626064136+625852153+626087273+627405443+629542606
3398+631878703+633432899+633068197+631170020+629639626+629603259+630746599
3388+632319402+633374904+632930883+631284137+630357974+631902323+635535507
3378+638672715+639285042+638203623+637002529+635719277+634562344+635031618
3368+637574381+640807763+643991367+647289873+649390366+648364405+645024276
3358+642339668+641836020+642669391+643939112+645891296+648141851+649332855
3348+649724500+651477086+655332643+658340933+656904056+652239112+649432111
3338+651035058+654339424+655384234+654068118+652884785+652312330+650524162
3328+646869231+643457635+642838240+645291293+648732067+650591943+650079597
3318+648919462+649101783+650016890+649410302+647144645+645570694+646360569
3308+648806433+650600401+649918178+647222756+645281748+646641481+650309944
3298+652541288+651450203+648756110+646658940+645608149+645502128+646742549
3288+648918314+650121461+649366504+648509452+650080805+654077844+657882715
3278+659414076+659764883+661115313+662666911+661363904+657052788+653505147
3268+653361731+655326904+656844068+657418215+657942643+658209479+657248761
3258+655662487+655390335+656723427+657473672+656309429+655208619+656961326
3248+661508951+665949468+667437212+665255164+661053210+657695743+656963017
3238+657797355+657270872+653785575+648858749+645335151+644613964+645862842
3228+647234476+647627692+647095410+646118079+645455188+646045405+647929022
3218+649411027+648549565+645770715+643752502+644014203+645111208+645391515
3208+645595523+646952477+648853493+650193471+651502519+653855410+656163174
3198+655798775+652481541+649014066+647350828+646478733+644725785+642035437
3188+639306427+637290026+636499547+636854401+637445161+637581751+637521823
3178+637627663+637640410+637238374+636500876+635312408+633137307+630157349
3168+628231504+629204243+632150432+633733988+631842335+628155688+625953946
3158+626161700+626848030+626127446+624219181+622418568+621315401+620492663
3148+619311384+617606765+615858709+614714765+614161098+613285137+611343222
3138+609199897+608718361+610283552+611888130+611573207+609766433+608025083
3128+606887663+605828778+604478650+603230980+602646322+602605000+602423163
3118+601615225+600273736+599022079+598436394+598182546+597394182+596121260
3108+595347877+595488635+596035959+596416972+596150378+594863682+593138281
3098+592466751+593550164+595280096+596042967+595367571+593668872+591439642
3088+589392612+588591561+589596862+591561431+592807893+592490251+591327519
3078+590364808+589557716+588288237+586800675+585892515+585429222+584636931
3068+583756620+583899976+585264360+586706675+587172505+586648620+585485767
3058+583710708+581495494+579570495+578513482+577957941+577116415+576088339
3048+575899857+576756425+577000788+574933762+571313266+568582745+568157270
3038+569592637+571705636+573732669+575351445+576188078+575818120+574283860
3028+572162223+569931966+567865605+566564592+566646570+567597380+567954409
3018+567090651+565828845+565074250+564868611+564992695+565354678+565403732
3008+564421629+562769990+561573851+561044408+560469778+559776379+559623720
2998+560060855+560305037+559727507+558363605+556557012+554472829+552154071
2988+550022345+548831340+548759511+549058365+549010580+548849282+549322301
2978+550483644+551175774+550075446+547396396+544857922+543706003+543518789
2968+543302095+542989346+543122794+543648794+543873100+543296114+542030683
2958+540686778+539967825+539948615+539815710+538825573+537278686+536008120
2948+535296659+534836931+534456280+534277101+534212099+533826314+532844150
2938+531515227+530420336+530092606+530694724+531735607+532255021+531626323
2928+530078047+528347813+527013453+526223880+525913851+525947983+525899533
2918+525134729+523570807+522016007+521311734+521378730+521359459+520628001
2908+519561262+519106911+519487682+519797470+519064140+517322730+515408181
2898+514019331+513272408+512962801+512927581+513009257+512920211+512387204
2888+511314545+509765182+508043707+506715509+506182925+506194192+505926963
2878+504727139+502936011+501772976+501970943+502805462+503031369+502459156
2868+501834898+501433949+500715994+499377073+497920380+496897379+496143146
2858+495148478+493896790+492977726+492978300+493946569+495345237+496373705
2848+496348393+495074263+493140292+491516714+490542283+489773250+489042608
2838+488814405+489044149+488801175+487653184+486390622+485802520+485539369
2828+484644983+482842830+480922331+479854324+479767906+480073102+480395758
2818+480851801+481436037+481720332+481328233+480290945+478870469+477448875
2808+476495830+476109501+475786785+475155489+474517910+474181692+473837017
2798+473079734+472047006+471239461+471012648+471184366+471072455+470259503
2788+469143045+468262705+467560456+466772454+465904920+465003617+464069904
2778+463269275+462722827+462233497+461575228+460804382+460128322+459744530
2768+459735046+459852424+459644459+459027571+458453545+458267358+458138532
2758+457406259+455919240+454230478+452954686+452317923+452330277+452843047
2748+453318331+453112843+452158529+450911010+449649384+448298442+446830784
2738+445451539+444402621+443724990+443220859+442737722+442421953+442398181
2728+442350154+441880579+441104085+440416818+439879673+439206150+438236884
2718+437201680+436528096+436382778+436406851+436133068+435678052+435523520
2708+435496396+434671966+432719419+430694047+429907887+430438870+431179873
2698+431127134+430268028+429287616+428753129+428655022+428546614+428027501
2688+427118949+426201304+425652017+425603084+425923867+426228248+425981197
2678+424918354+423353979+421876112+420866552+420387070+420229246+420000680
2668+419501111+419015466+418951763+419278768+419498725+419121941+418145969
2658+417068266+416349495+415973768+415697448+415498333+415529928+415818995
2648+416160468+416203390+415713396+414895883+414220729+413773143+413150486
2638+412189466+411367241+411190780+411487701+411570162+411009789+410089456
2628+409463899+409438164+409669931+409663407+409391376+409141093+408919807
2618+408440838+407651597+406886642+406457753+406320469+406198469+405932509
2608+405631420+405492233+405553580+405666972+405665190+405514464+405323474
2598+405194497+405097507+404936964+404648018+404206292+403676578+403205703
2588+402821126+402384505+401902364+401636254+401719198+401907499+401903361
2578+401741097+401645617+401611364+401390229+400922617+400486298+400290325
2568+400195026+399978785+399644409+399341267+399161000+399088325+399054918
2558+399005864+398928025+398817200+398704836+398728759+399007133+399391468
2548+399511626+399119981+398334304+397626105+397576447+398370732+399449946
2538+399961507+399653652+399050146+398739844+398795211+398898000+398808924
2528+398615669+398568005+398783431+399174894+399550591+399703250+399538086
2518+399193501+398909116+398780048+398766002+398807082+398777480+398507080
2508+398025302+397656099+397702797+398093989+398492461+398697375+398723503
2498+398579845+398296396+398090123+398134283+398225685+398042670+397655344
2488+397453088+397634412+398057320+398556376+399140853+399791329+400243446
2478+400199164+399726478+399278228+399268381+399682348+400154460+400395349
2468+400435644+400436338+400443860+400437969+400466272+400583741+400729906
2458+400773946+400645089+400361731+400012826+399749585+399666308+399671141
2448+399636043+399613690+399702223+399826579+399853341+399753965+399547873
2438+399300459+399163296+399202472+399298375+399344197+399343230+399274241
2428+399115148+399004324+399155351+399580192+400013008+400158749+399990988
2418+399746625+399635136+399685791+399900885+400378314+401159399+402033879
2408+402629925+402724982+402436519+402116612+402076016+402370701+402827741
2398+403267866+403600732+403709320+403508001+403203015+403184862+403524311
2388+403858022+403831260+403373858+402501582+401120162+399147105+396689945
2378+393966976+391116297+388213363+385406453+382884652+380734924+378860066
2368+376993001+374973307+373109897+371960153+371754695+372441690+374090822
2358+376712874+379925445+383348247+387092526+391234975+394955633+396903679
2348+396327901+393697874+390545684+388348775+387326106+386882205+386731358
2338+386940079+387378089+387635954+387534735+387471878+388007573+389170788
2328+390416676+391273940+391839871+392572053+393721163+395115330+396466363
2318+397673558+398776181+399760912+400478052+400794637+400920110+401432276
2308+402725798+404500766+406036325+406935786+407378056+407713881+408117095
2298+408629411+409283723+410096766+411041082+412012432+412783489+413124992
2288+413067844+412926633+412989792+413274600+413595927+413752271+413641175
2278+413317281+412936540+412563864+412125642+411628459+411212951+410902287
2268+410595097+410350613+410325059+410452829+410553172+410656746+410911258
2258+411352833+412001346+412908237+413938730+414769956+415228657+415446077
2248+415622870+415774290+415734419+415334528+414567972+413648938+412906395
2238+412491763+412181160+411656882+410974479+410477899+410288964+410238611
2228+410244743+410345297+410445731+410451560+410522181+410836741+411287046
2218+411660356+411896231+412017083+412069460+412178079+412415948+412686831
2208+412929714+413279131+413868502+414646597+415492080+416376921+417334105
2198+418315966+419175193+419852160+420505566+421322112+422232145+422930286
2188+423196185+423149246+423133025+423323260+423574328+423698654+423677178
2178+423572002+423525063+423801021+424468835+425186308+425677329+426159832
2168+426900533+427662679+428012821+427925890+427746620+427732544+427911754
2158+428285819+428910047+429737890+430595003+431430730+432412712+433619303
2148+434815019+435724266+436400840+437130516+438034447+438969701+439874236
2138+441028904+442768592+445009179+447310841+449413600+451441389+453524937
2128+455555746+457492314+459610327+462158164+464942783+467540279+469802704
2118+471904164+473964515+475838708+477306003+478443091+479730239+481645543
2108+484300942+487697223+492025225+497367498+503454670+510051772+517130622
2098+524230435+530086746+533434729+534068743+532791411+530440030+527159346
2088+522488300+516017548+508019362+499483789+491463160+484402856+478220385
2078+472865637+468468948+465054181+462449557+460432824+458796348+457429064
2068+456412919+455805214+455360014+454768590+454087878+453603079+453371312
2058+453213185+453069890+453056872+453216991+453488328+453886376+454510725
2048+455378349+456397635+457538801+458956588+460910283+463621049+467302954
2038+472277807+478803352+486712009+495453705+504551131+513738238+522680710
2028+530953948+538283141+544452745+549099203+552001472+553455023+553955106
2018+553578745+552013313+549165595+545445480+541377941+537143788+532620931
2008+527785265+522923623+518390073+514282481+510548412+507294308+504652350
1998+502434357+500400527+498803348+498095451+498135141+498271127+498196851
1988+498123422+498199570+498316677+498426836+498736987+499560118+500969992
1978+502622447+504113332+505459986+506939755+508635857+510489209+512504100
1968+514563574+516375182+517874222+519347166+521001221+522720823+524335611
1958+525916086+527687822+529744518+531958826+534167757+536377776+538756764
1948+541459919+544491528+547655740+550560064+552862149+554759903+556903651
1938+559496072+561924779+563610490+564820342+566255589+568162707+570189136
1928+572072029+574273530+577429224+581069837+583844639+585440338+586867671
1918+588495870+589500386+589599279+589662952+590398759+591666425+592962726
1908+594056348+595169664+596537009+597839049+598445274+598261987+597949782
1898+598305181+599566323+601208236+602544408+603472141+604125064+604189946
1888+603455770+602434520+601523702+600490189+599336640+598603249+598438146
1878+598339434+598017322+597826483+598377312+600133039+602949404+605392066
1868+605284534+602187378+598014362+594507619+591838899+589470966+587232493
1858+585390801+584157508+583342563+582507561+581578861+581057876+581401978
1848+582690063+584781313+586658527+586062512+582122984+577068630+573260194
1838+571070111+569647913+568519555+568341946+569851015+572063148+572555982
1828+570686138+568316090+566384627+563954350+560771954+558069403+556603287
1818+555827004+555089325+554705714+555429983+557238389+559002996+559498307
1808+558639624+557498398+557425180+559180363+562244232+564870967+565573306
1798+564808804+564641465+566951041+571791601+576331071+576985323+574388432
1788+572305880+572665809+574663060+577054192+579798607+582982754+585757375
1778+587616406+589655280+593570401+599648965+605371284+607189296+604869389
1768+600929680+597579462+596374563+598102139+601775314+605089104+607215695
1758+609122752+611001416+612572890+614992173+619614708+625409944+629329596
1748+629968806+628800879+627834422+628301641+630489610+633476213+635728762
1738+637471682+641283682+648580797+655536228+656335406+652411042+648345798
1728+645893471+645404987+646849476+649427519+652766500+658246692+667252354
1718+677766843+683971002+683047014+678393004+673845137+671486748+672626162
1708+677654177+684921932+691126816+695345443+700675392+709345470+718043579
1698+722374994+722969620+720639625+715850234+712006760+712267615+716715260
1688+723930942+733828030+745954710+754149897+752769564+747150668+743894812
1678+744751804+748889722+754305093+759005740+762931433+766895186+769744898
1668+769649025+768395677+769550012+773643890+777279127+777342015+775494644
1658+775557955+780094827+790313967+803704265+810275360+807501525+804902459
1648+806162876+807761957+805550972+801223967+798577116+799099551+803071459
1638+810078601+816950785+817109123+809179624+800351631+795865323+795802314
1628+797225539+797197085+795441780+792946017+790053716+787813673+788274670
1618+791445225+792783572+787532821+778495021+771433206+768717426+769242036
1608+770085979+769243002+767161659+765365456+764639678+764633697+764468050
1598+763728678+762914397+762754670+763393155+764350671+764961306+764751619
1588+763785042+762701871+762171583+762399272+763154048+764236796+766040309
1578+769130698+772239151+772052239+768704679+766367495+766977828+768147629
1568+766893132+764322157+762939589+763597466+767325917+776267483+788729746
1558+793107798+785079527+775200563+769022985+766088638+764848881+764697854
1548+766434733+771202255+778718179+787207689+795489928+802328040+802742279
1538+795487270+788356043+786811573+790241896+794375102+796489490+798112736
1528+801069979+805310838+810803293+818590282+827952853+834546844+836035796
1518+835986923+837304368+839090301+840335253+842271065+846977995+855959432
1508+868575805+877965741+875788103+867648917+863341123+865918381+873657223
1498+881522505+884353731+882944642+882902656+887310249+894677925+900634096
1488+901857058+899689266+897795741+898446731+901627616+905961810+910778084
1478+917165831+926359734+937861340+948929437+955108524+954076039+949328271
1468+945655216+944227763+942898840+940182395+938671393+941733449+949385722
1458+957352071+958974955+953487332+946498676+941721367+940345323+942413074
1448+946470101+949933469+951343403+951360500+951062613+951160902+952792243
1438+957091820+962908200+966950366+969128729+972752005+979006305+985238191
1428+988260377+988313599+988017222+989191493+991922799+995409485+998379476
1418+999229943+997875043+996521955+997344211+1000114542+1001694111+999127606
1408+993784004+989654786+988478582+989259637+990869592+992824918+994698507
1398+996309913+997421054+996368330+991736068+986363892+985081425+988795982
1388+993197171+993269664+990251526+989931952+994812926+1002380381+1008973285
1378+1013154155+1015289264+1015795025+1015555556+1016618428+1019871565
1370+1023311494+1024792290+1025054233+1025889839+1027050577+1027235798
1361+1026654160+1026183678+1025816500+1024976665+1024016733+1024980773
1352+1029602704+1036967903+1043673775+1047013421+1046788692+1044398829
1344+1042433173+1043270108+1046928000+1051372806+1054850189+1056851850
1335+1057318827+1056489504+1055262434+1054920991+1056733565+1061176075
1327+1066378799+1068312195+1064534328+1057959185+1054812130+1058528378
1318+1066652582+1073060507+1073741823+1070036932+1064628086+1057910977
1310+1051040666+1048117615+1051451944+1057469493+1060301202+1058583111
1301+1055470369+1053440315+1052826538+1053070357+1052734351+1049992896
1293+1045040637+1040988744+1040487453+1041418267+1037940642+1027910952
1284+1016151572+1007736005+1003011435+999789047+996246360+991668710+986612725
1274+982592971+980361869+978354831+974262826+967861124+960876877+954320522
1264+947371314+939135773+930140199+921896502+915545122+910848221+906059555
1254+899551589+892135826+886356841+883069633+880081459+874732057+866808599
1244+857873618+848990832+840480662+832864153+826689898+821897366+818221593
1234+815598604+813485001+810587565+806264608+801729306+798886662+798128986
1224+798047734+797553269+797401395+798817612+801415108+803582476+804689691
1214+805743925+807708795+810433335+813652401+817798534+822960480+828075366
1204+832233824+835915517+839852870+843607057+846276381+847816562+848948363
1194+850402277+852429613+854571971+856152687+857386644+859555644+863555462
1184+868901239+875004088+882309057+890558070+897530838+902088553+906569243
1174+913332748+921232705+927937067+933295410+937748130+940440471+941087836
1164+941249255+942679245+945741785+949511679+952748626+954968069+957060407
1154+960109777+963710640+966919617+969741419+971575499+970062262+964779856
1144+960195078+961182980+967163678+973386926+977337025+980544673+984069177
1134+986512926+986819029+985039077+982019187+979859128+980472119+984128379
1124+989118456+992257114+991721026+989607846+989113502+990276537+991401572
1114+992635952+994818725+997469503+1000494528+1004600730+1008618792+1010175405
1104+1009510822+1008936132+1008796643+1007217436+1003241058+997413986+990854731
1094+985609538+983873626+985641194+988442275+990386908+991329864+991376804
1084+990202352+988329064+987073662+985652128+981755674+975765310+970396335
1074+966483026+962524771+957507932+951600392+944986466+938147145+932257548
1064+928484513+928304850+933387477+942787562+951652708+955901541+956199186
1054+954207131+948944781+939822043+929810174+923434388+923969207+930800553
1044+938026504+938815533+933211378+927630844+927246025+932871807+942129142
1034+950588446+953770963+950778439+945345549+941552881+940034992+939397715
1024+939325886+940639465+943537506+947304499+951238711+955172741+959653432
1014+964986885+968412375+965100277+954441224+941400041+930854863+923840833
1004+919071378+915372347+911042986+903666913+893101739+882139906+873455631
994+867790944+864487968+862047783+858727831+854002234+848953861+844906499
984+842242068+840423272+838839474+837114073+835105344+833245347+831786842
974+829600323+825151409+819001983+813618268+810362775+808617197+807544900
964+806688996+805359589+803351887+801583594+801013012+801754195+803403176
954+805547166+808200481+811938055+816898349+822341508+827825929+833381091
944+838347184+841992631+845239908+849973902+856818478+864456735+870957089
934+875968068+881224497+887857513+894292804+898470654+900602380+902232513
924+903933387+904816597+904094201+902300173+900323099+898023128+895204045
914+893065191+892732023+893466199+893932331+894392966+896232483+899245486
904+900897246+899211294+895363953+892616759+893198337+896579545+900378557
894+902695201+903585238+904221125+905633294+908388402+912364177+916463915
884+919000939+919036521+916853204+913853310+912347926+913468673+915529657
874+916710936+918418213+923023471+929452842+933873182+934261625+932101143
864+929956670+928955175+928941039+929985728+931943772+933888707+935941174
854+939728587+945027485+948934934+950505320+952335716+955191650+955311808
844+950329403+943782352+940375469+941102878+944185717+948326232+953639085
834+959353611+962748715+962146356+960006172+961019749+967554779+977633463
824+986175228+987995595+982867177+977400034+977354061+982185136+988543826
814+994735720+1001165393+1008791991+1016288221+1018045942+1009223386+994462179
804+984442155+984273426+990112037+995524810+998271702+998616166+995525475
794+989007058+982103702+977844056+976606474+977143347+977477964+974934597
784+968239539+958620100+947642439+936259540+926270265+920165060+918225019
774+917675519+916164638+914420268+914817833+919188696+927289823+935926313
764+941050200+941743901+940658495+940531692+942557336+947075964+953219107
754+959249100+964987066+971079826+975581117+974302758+966072593+955907703
744+950863135+953387473+959218653+962180548+960901162+959263780+961034852
734+965675692+969660166+971666720+973140207+973905494+972776713+970609164
724+968665256+965755314+961180866+957589668+958469495+964918681+974043836
714+980301760+981213061+979574290+977817354+974475594+969327301+965626759
704+964231928+962475958+959429427+956712982+954599017+951429248+947179207
694+944267936+944545888+947950052+953066569+957373578+955954461+945263632
684+929656548+916843900+909406450+905962897+906985415+913519418+923097656
674+932947684+941264116+944102168+936666711+922886399+917412308+919609097
664+917969963+913684642+916994384+932065682+950278356+957636003+949119430
654+933890580+921327793+914489801+914204540+919331206+925870767+931306798
644+937199174+942972360+943719343+937668871+929200022+923002025+921710497
634+928764639+942925904+952773817+947594110+931067208+912577609+896504696
624+884797450+879916778+880446825+881330941+880831221+881687789+887819817
614+897990990+906954847+911454748+909273787+900301110+890039562+885761611
604+889292156+896110211+897792962+889553434
##END=
