##TITLE=<SNM>
##JCAMP-DX=4.24
##DATA TYPE=INFRARED SPECTRUM
##DATE=29/4/2025
##SAMPLING PROCEDURE=Instrument type and / or accessory
##ORIGIN=Admin
##XUNITS=1/CM
##YUNITS=ABSORBANCE
##RESOLUTION=4
##FIRSTX=4497.3318
##LASTX=599.83466
##DELTAX=-1.4281778
##MAXY=2.1931453
##MINY=0.65357226
##XFACTOR=1
##YFACTOR=2.0425257e-09
##NPOINTS=2730
##FIRSTY=0.67132145
##XYDATA=(X++(Y..Y))
4497+328672217+328378472+327099987+325473421+324961367+326347796+328703091
4487+330321720+330367652+329319791+328469899+328783341+329820843+330225828
4477+329514842+328793467+329226672+330392924+330844133+329863478+328012912
4467+326222694+324816159+323610978+322745707+322878456+324299990+326248578
4457+327642536+328084378+327663547+326595229+325457838+324874726+324761793
4447+324702203+324857363+325475551+326111394+326232761+325940826+325722896
4437+326066600+327093159+328199763+328597686+328328834+328040664+327860407
4427+327362478+326461489+325491981+324613812+323905656+323880531+325151341
4417+327393469+329351833+330058500+329509444+328238166+326636755+324877645
4407+323187841+322103503+322293301+324024806+326856115+329506204+330274066
4397+328537397+325664270+323724145+323737977+325325236+327210499+328041072
4387+327526217+326701130+326675216+327593627+328836773+329709456+329929516
4377+329645606+329099526+328418889+327784418+327569931+327983380+328447342
4367+327723428+325411410+323241303+323460721+325879603+327994790+328169268
4357+327160394+326361162+326254268+326614898+326999748+327041302+326735419
4347+326355238+326101589+325922792+325540364+324773582+323987249+323944147
4337+325049467+326855385+328385038+329077144+329266738+329488783+329628243
4327+329164398+327842373+325757710+323287527+321127721+319982392+319995962
4317+320754135+321863103+323095685+324078092+324397662+324084103+323720993
4307+323851465+324310175+324469916+324173662+324186356+325282601+326937153
4297+327714615+327046351+325816307+325026881+324756686+324655600+324741365
4287+325238974+325996534+326483083+326340092+325758177+325193888+324757824
4277+324187757+323577623+323595570+324593647+326069810+327294163+327915240
4267+327838171+327236441+326672181+326437209+326017633+324856021+323338449
4257+322443909+322587513+323351406+324259515+325269002+326407852+327421075
4247+328084699+328414716+328363502+327789145+326812313+325941089+325873183
4237+326970828+328646858+329534628+328553826+325788556+322516309+320537051
4227+320931269+323034987+325063066+325987809+326294452+326880160+327855271
4217+328715727+329278965+329735982+329968240+329671082+328951925+327938907
4207+326525980+325337171+325721175+327798659+329624187+329437277+327968030
4197+327320135+328205453+329389214+329597689+329035239+328746718+329042388
4187+329171168+328322648+326607485+324948644+324160180+324344493+324995072
4177+325460143+325453986+325338951+325810938+327069667+328408034+328777417
4167+327722698+325909719+324652478+324619765+325353951+326327777+327623159
4157+328975328+329369108+328488692+327370736+327068850+327784360+329248383
4147+330795137+331425202+330793707+329707851+329042651+328729472+328124299
4137+326983143+325956847+326010863+327256373+328668598+329191245+328751300
4127+328004361+327492395+327115541+326429943+325654553+325867230+327677787
4117+330177124+331756649+331636478+330256615+328464121+326715779+325205123
4107+324450773+325031666+326633837+328039029+328286316+327531966+326792702
4097+326974126+327987319+328933540+329292447+329341094+329150186+328278554
4087+326908642+326069343+326334694+327168360+327724770+327765917+327573579
4077+327295039+326738103+325803934+324848550+324393576+324561897+325108502
4067+325858300+326605968+326848381+326329879+325513663+324865826+324317324
4057+323969798+324319921+325292202+326139088+326558547+326888944+327281294
4047+327561498+327572441+327106057+326068409+324958537+324616234+325381060
4037+326714991+327750479+328130514+328107023+327921835+327549738+327003016
4027+326340355+325520404+324808367+324781315+325434755+326119448+326637893
4017+327312431+327787219+327060066+325116906+323484825+323619470+325340148
4007+327193486+328042940+327967826+327785352+328114698+328863416+329412968
3997+329338584+328843981+328308611+327738865+327042032+326519911+326581484
3987+327060212+327289231+326887164+326146412+325626947+325578534+325831307
3977+326147346+326558022+327249106+328151000+328866393+329076765+328832308
3967+328434939+328317745+328915885+330123138+331100029+331078551+330107117
3957+328794197+327712835+327221646+327513056+328551958+329867300+330627691
3947+330439206+329959223+330091796+330786207+331252212+331129123+330680481
3937+330161833+329881600+330460217+332063613+333593558+333760828+332967053
3927+332824500+333933176+335026152+334602345+333051535+332212644+333070153
3917+334477505+334387362+332275152+329572710+328001093+328186339+329696908
3907+332013478+334859583+337594095+339428057+340547180+341390068+340931680
3897+338187041+334745686+333421443+335235182+338192848+339371444+338897356
3887+339273714+341308943+342978844+342991801+342569890+342057048+340310049
3878+337972642+337371205+339258627+342203570+344784032+346128089+345358827
3868+343363928+342672873+343929588+344826609+343390979+340620923+338500775
3858+338290783+341356480+348781447+356584553+356258475+348352387+339779465
3848+334443333+333061544+334859787+338618057+343303404+348090947+351627172
3838+352108643+349570845+346262180+343709032+341834975+340536179+340491209
3828+341927685+343826022+345501818+347713421+350455288+351402997+349993894
3818+349101018+349416911+348001008+343804194+339784163+339000835+342327155
3808+347671458+350993226+351345567+351734824+353309768+353209470+349994653
3798+345918359+342565863+340049863+338737731+339126755+340878890+343151951
3788+345388271+347167838+348119837+348962258+351471721+356011538+360041871
3778+361255572+361166072+362792346+367280658+373941966+381156736+386863565
3768+389978842+390846797+390154079+389175350+389855549+392906101+396478512
3758+398260559+398824702+400934111+406842819+416372702+425135714+428473387
3748+428816273+431354596+436902472+440755845+440623447+440885442+445404073
3738+453498939+461071595+465454882+468097764+470422155+471475473+470673469
3728+469211459+468529597+469037390+470436046+472181907+473435938+473696999
3718+473225099+472633175+472783257+474459987+477024341+478198968+476823862
3708+473985286+471487701+470931028+472464942+473914958+473302869+471898493
3698+471978218+474066441+477875575+483363773+489841644+495122213+496628813
3688+494034665+489485450+484813468+480980726+479301866+481296328+487498547
3678+496691612+505053900+507493268+504817469+502687487+502164082+499082480
3668+491941861+484856307+481359652+481251767+482092350+482598100+484045256
3658+487357278+490380341+490799567+490746164+494170535+501555932+507508968
3648+505776384+497776068+488941151+482468620+478977889+477842191+478289957
3638+479980460+482585523+485101872+486708128+488636084+493281423+499667576
3628+501803277+497471935+491431704+488045969+488992073+493766367+499202009
3618+501479242+500609040+499268952+498480459+497896297+498682747+501955665
3608+505014680+504323129+501592410+501480935+505692282+511951552+517291302
3598+520518521+521195364+518788564+514296370+511023686+511776461+515807231
3588+518838931+517516761+513284987+509198654+506400700+504673894+503815773
3578+504151014+506273993+509944659+513370839+514812013+515019613+516481273
3568+519883933+522280987+520670150+516498432+513467782+513242498+514615270
3558+515520782+515097003+513883973+512893366+512812533+513857126+516104419
3548+519235746+521609104+520968855+517312313+513447296+511660142+511524155
3538+511261285+509892307+507929478+506829673+507983464+511525030+515749918
3528+518375874+518701543+517352117+514321525+509778789+505746327+504126677
3518+504304219+504271127+503246261+502008951+501466227+502005216+503344779
3508+504604909+505458419+506785959+509143851+511335873+511674149+509983412
3498+507373739+504878809+502973119+501702658+500919360+500564567+500789150
3488+501721627+503294236+505157204+506640400+507041241+506228586+504787295
3478+503367774+502223262+501404887+500941480+500816231+500884984+500631160
3468+499423441+497594090+496468138+496572492+497072610+497406684+497958104
3458+498823170+499194830+498457522+497081132+495932068+495196102+494480913
3448+493682265+493040965+492379821+491077495+489024874+487064526+486172612
3438+486422233+486863813+486543513+485523462+484472887+483597082+482735605
3428+482214184+482604024+483640271+484229715+483722243+482625035+481839227
3418+481742168+482375238+483754780+485267275+485620579+484467634+483036674
3408+482250982+481616102+480565381+479524524+478980545+478718288+478474065
3398+478345373+478404962+478687764+479372019+480445356+481640294+482959634
3388+484714046+486845691+488572438+488853810+487386693+485142289+483688596
3378+483904542+485243200+486241394+486075320+485657524+486599717+488790281
3368+490095176+489215927+487625167+487606695+489537978+491962813+493507466
3358+493993402+494068866+494481497+495493873+496654960+497389408+497634011
3348+497652629+497462538+496925417+496356780+496387188+497122920+497716829
3338+497042728+495077974+493207710+492701639+493367977+494078029+494141179
3328+493771853+493632889+494228549+495323335+496034029+495859755+495168496
3318+494345160+493198956+491852214+491267468+491966723+492981434+492999118
3308+491957677+490731748+490052454+490320226+491642980+493362491+494197324
3298+493562970+492192241+491017263+490222525+489882265+490628386+492738174
3288+495142641+496428392+496431719+496003972+495835884+496095778+496683792
3278+497369156+497977247+498621232+499534273+500691099+501630696+501708378
3268+500741000+499331985+498289493+497910129+497973687+498025047+497565375
3258+496504148+495479574+495209350+495620756+496055565+496131204+495965919
3248+495753883+495623090+495636631+495493581+494690322+493340487+492228776
3238+491790407+491603701+491208346+490937247+491296709+491805348+491377601
3228+489881156+488343945+487657325+488023149+489369219+491262041+492670939
3218+492712961+491434038+489591147+488100948+487495891+487449376+487228761
3208+486782717+486613900+486493933+485354120+482782267+479868256+478221555
3198+478392531+479275894+479179944+477706291+476127262+475667852+476148944
3188+476625571+476683205+476601438+476664149+476852051+476982465+476705296
3178+475580453+473643100+471686867+470391252+469508997+468493615+467307520
3168+466238414+465514033+465334711+465768616+466496323+466966063+466799522
3158+465959202+464672750+463322332+462220922+461347335+460467619+459542146
3148+458783915+458301831+457964401+457737717+457759924+457814699+457258697
3138+455908804+454552403+454032412+454174031+454162650+453723610+453402522
3128+453602622+453730380+452758333+450637018+448600389+447849540+448368422
3118+449170485+449397053+449018039+448553289+448340174+448265148+448104531
3108+447727735+446913796+445484907+443875208+443100197+443750222+445255275
3098+446376850+446213753+444727142+442729675+441404149+441414858+442366624
3088+443246631+443401966+442961087+442322238+441650910+441009056+440500416
3078+440097999+439677810+439349018+439387188+439777232+440145274+440145740
3068+439767165+439310761+439071265+438954538+438548035+437671821+436622968
3058+435784603+435250109+434865404+434458289+434105013+434186402+434831466
3048+435359482+434933923+433740474+432680648+432066487+431537362+431034676
3038+430904379+431213882+431762179+432474012+433146419+433219549+432315467
3028+430670837+428883420+427527428+426825021+426431680+425854550+425160694
3018+424832982+425002266+425324375+425498182+425473903+425313607+425178758
3008+425254222+425432202+425254105+424401499+423099639+421850161+420982468
2998+420656011+421006572+421922619+422822908+423037278+422435461+421445380
2988+420500910+419744808+419230595+419011119+418884674+418473473+417786299
2978+417272990+417133472+417074174+416894239+416762075+416764263+416720053
2968+416584182+416554037+416670502+416703974+416469352+415972268+415341882
2958+414810890+414521610+414278905+413829855+413327927+413146154+413378324
2948+413794195+414045421+413802132+412997677+411964202+411106081+410592393
2938+410489877+410840380+411460582+411900440+411693015+410680727+409190177
2928+407868182+407238321+407361848+407823738+408039216+407820207+407611031
2918+407847112+408268848+408245415+407543125+406456423+405466137+404974394
2908+405058321+405373777+405521233+405476701+405438239+405326561+404780627
2898+403761072+402794686+402343477+402278139+402229172+402092513+401981126
2888+402032311+402381005+402967589+403390083+403346748+403139265+403330465
2878+403950520+404342228+403836186+402458278+400879658+399760680+399285688
2868+399262897+399457102+399727705+399977764+400100444+400023083+399813383
2858+399677950+399745126+399835590+399594782+398950476+398245384+397745004
2848+397287841+396675840+396138981+396071192+396493336+397001450+397102128
2838+396594860+395798517+395295451+395328864+395616247+395794840+395813108
2828+395776222+395607084+395088698+394262006+393521050+393135412+392918007
2818+392549674+392024664+391579991+391361857+391372975+391609436+392043749
2808+392502516+392712976+392507506+391919901+391128402+390395588+389939972
2798+389701761+389387647+388942333+388748157+389044994+389392929+389120254
2788+388211970+387361757+387114062+387268842+387225595+386731750+386130517
2778+385878503+385964239+385942499+385491989+384726492+383967414+383484221
2768+383469659+383926238+384482473+384611953+384139470+383366297+382726631
2758+382471465+382558807+382671740+382462623+381911437+381341691+381036595
2748+380950742+380843528+380676403+380747782+381213116+381635085+381452115
2738+380770223+380144185+379733947+379244567+378587042+378123139+378219147
2728+378740130+379067550+378683459+377680625+376596695+375881478+375655435
2718+375766589+375919443+375908909+375754391+375491813+375022773+374365073
2708+373819052+373650468+373827194+374209300+374667251+374903361+374638419
2698+374124673+373944038+374186159+374330872+373992421+373313652+372638909
2688+372243408+372316771+372797104+373241310+373203578+372772591+372383539
2678+372069864+371401541+370332611+369536618+369581178+370203890+370661577
2668+370548644+370116081+369879825+370020190+370260561+370317173+370213841
2658+370067815+369848338+369481347+369013767+368597342+368389101+368456977
2648+368724312+368987853+369013942+368729623+368370424+368275350+368464302
2638+368596204+368399664+367975565+367636414+367569791+367666617+367675751
2628+367566552+367590335+367822564+367891813+367465262+366779664+366361547
2618+366382441+366540869+366506259+366317453+366283194+366557940+366971476
2608+367269277+367300881+367002263+366473576+366027415+365910717+366068795
2598+366326879+366607812+366830703+366803652+366376284+365625873+364859645
2588+364442462+364556096+365077925+365671922+366003311+365943254+365658527
2578+365504593+365723398+366176797+366490297+366525753+366509353+366606616
2568+366669590+366546209+366334116+366173003+366039379+365859999+365683769
2558+365669441+365887342+366160513+366244528+366142537+366023942+365922535
2548+365799242+365730110+365736997+365640697+365311701+364869421+364518918
2538+364358185+364373943+364519123+364769532+365078947+365286400+365223718
2528+364944098+364686539+364619537+364701801+364736790+364553499+364211604
2518+363970183+363988918+364177929+364371754+364483521+364485097+364439660
2508+364542760+364916725+365365162+365550905+365436891+365298861+365292645
2498+365360376+365563511+366001093+366360700+366135183+365396883+364817769
2488+364834782+365240848+365618782+365782171+365719663+365429975+364975993
2478+364545532+364305920+364250445+364287419+364412842+364643320+364837467
2468+364842953+364836096+365182221+365836186+366217593+365897964+365146678
2458+364589567+364554578+364915295+365378002+365723107+365812724+365542471
2448+364945440+364326406+364106900+364423990+364973133+365341496+365397904
2438+365249048+365012091+364870063+365113352+365745868+366260140+366220278
2428+365841410+365581370+365472201+365288677+365078859+365087964+365327138
2418+365561994+365669237+365799505+366179073+366829186+367503257+367913728
2408+368025174+368075775+368290262+368646893+368950617+369059261+369027453
2398+369070321+369335380+369753059+370297155+371352428+373556678+377316582
2388+382778312+390226538+400164148+412900443+428278977+445915777+465572164
2378+487197390+510723755+535852874+561727705+586607845+608281484+625531216
2368+639248020+651113704+660659140+664998420+662990009+657223212+649724065
2358+639119562+623368375+602402045+577839229+553286743+533774194+522983044
2348+522348339+531603766+547817192+564563479+575958752+581453049+583918622
2338+585800792+587969002+590300280+592469308+594064912+594588201+593629519
2328+590851875+586213365+580570940+575103082+569653316+562970443+554984893
2318+547150446+540335437+534047394+527677350+521135717+514195868+506334049
2308+497441410+488092251+479073168+470911418+463730177+457310495+451270206
2298+445306694+439411992+433869428+428928477+424528966+420438023+416531101
2288+412847711+409549113+406861262+404873425+403448213+402442929+401804868
2278+401329496+400657350+399700478+398770015+398118122+397618033+397007228
2268+396199767+395284596+394429889+393828597+393554726+393481479+393435401
2258+393298713+392913659+392163102+391240723+390570446+390344578+390324647
2248+390172697+389834071+389508810+389356423+389367570+389500348+389768587
2238+390155100+390559794+390856807+390940238+390753707+390354733+389925439
2228+389637882+389484035+389298468+388988557+388637879+388325896+388005304
2218+387625736+387197901+386710856+386186225+385788798+385670261+385715201
2208+385601976+385149716+384541595+384147203+384168885+384577343+385281618
2198+386098884+386698950+386945303+387129703+387505565+387837275+387801936
2188+387575952+387628596+388145552+388940786+389728491+390286594+390559240
2178+390732055+391032773+391451358+391819632+392056793+392155749+392093562
2168+391951855+391983401+392396003+393091668+393688466+393866913+393693310
2158+393494115+393439195+393429069+393337876+393151170+392936625+392858447
2148+393085774+393545679+393947922+394168040+394409403+394861605+395386528
2138+395715086+395834148+395974921+396272371+396633059+396931035+397173302
2128+397444022+397791840+398223527+398790705+399640801+400883889+402334839
2118+403501033+404027560+404105301+404212486+404526074+404850284+405042038
2108+405198102+405420088+405649895+405803829+405929807+406133088+406380433
2098+406515691+406514057+406568539+406852887+407336313+407850877+408221544
2088+408376617+408424446+408527253+408671849+408723122+408687578+408711274
2078+408850792+409066271+409396580+409922787+410581946+411179182+411563769
2068+411735271+411856375+412137046+412573606+412904908+413003075+413127127
2058+413559310+414197721+414748324+415152697+415608021+416262540+417054214
2048+417835645+418553752+419279066+420106838+421024607+421863526+422456034
2038+422859794+423297959+423899689+424677151+425676687+426912421+428208386
2028+429319835+430204307+431048041+432013522+433092141+434318158+435918694
2018+437915723+439794771+441068383+441982970+443183044+444907807+446848633
2008+448607363+450088808+451492775+452998325+454582694+456198258+457850009
1998+459420108+460831546+462403863+464496842+466785807+468461282+469237723
1988+469600191+470054814+470693984+471464735+472410080+473540351+474722186
1978+475853245+477079144+478711839+480876751+483347256+485870609+488492218
1968+491267410+493849302+495823803+497319664+498851068+500745436+503013156
1958+505516374+508031673+510393125+512730181+515309447+518068064+520605074
1948+522790035+525133803+528244703+531916887+535024869+536656892+537196989
1938+537840099+539381133+541777020+544547601+547279955+549756967+551928387
1928+554074128+556830468+560579692+564771487+568367740+571095015+573453258
1918+575442233+576423502+576495639+576844712+578466813+581159830+583680615
1908+584901816+584978798+585130368+586218150+587893888+589231467+589954067
1898+590723300+592203053+594166406+595893679+597296275+598816998+600272763
1888+600823600+600198933+599036738+598121946+597880787+598271123+598898357
1878+599493550+600228407+601362121+602939224+605122259+608200825+611555394
1868+613167574+611711342+608434455+605445769+603666844+602991927+603074686
1858+603367964+603193340+602296815+600958011+599626853+598755133+598690291
1848+599617339+601555538+603675132+603839075+600989819+597098889+594417370
1838+593128525+592169494+591062335+590487394+591184373+592666694+593439253
1828+592917657+591810557+590177658+587324901+583628496+580449019+578476210
1818+577420061+576804091+576454784+576423910+576630693+576634778+576034916
1808+575064387+574400033+574546117+575591878+577157716+578393275+578515314
1798+577711821+577196003+578222620+580938340+583609236+583830026+581670862
1788+579443296+578701961+579327327+580607710+582240958+584068208+585728713
1778+587258658+589481030+593340736+598742176+603571186+605172510+603723690
1768+601329554+599434428+599014093+600801071+604085136+606743777+607884086
1758+608534257+609377320+610552589+612964935+617522554+623095117+626574291
1748+626489256+624847077+624220076+625310543+627357357+629510101+631313188
1738+633043962+636001191+640962628+645572657+645997661+642752817+638694732
1728+635506325+634254366+635288220+637788695+641005292+645518554+652167576
1718+659651666+663783580+662017554+656946335+652450699+650696520+652097598
1708+655793769+659902163+662487498+663950792+666974380+672928175+679095055
1698+682033082+681838264+679050582+674531366+671046763+670451746+672289092
1688+675790971+681818478+690643007+697224035+695872508+689895660+685128574
1678+684157286+686783359+690478071+692931563+695328208+699422653+703021940
1668+702476298+699315672+697859966+699412439+701721481+702065360+700707354
1658+700223052+703192362+711215032+722373464+728293174+727028375+726604363
1648+729535445+731136361+726999777+720592147+716770086+716356929+718864407
1638+724553172+732681422+738434854+737634454+733970734+732693561+735121023
1628+739670179+744777409+750663734+757396801+763138268+766818914+770414233
1618+776055081+782522534+786423270+787804096+789391938+792177052+795107200
1608+796884549+797279437+796995439+796786673+796966433+797530109+798171642
1598+798291872+797849242+797975657+799742384+802607339+805025696+806348042
1588+807256998+808612786+810522970+812362243+813591031+814615897+816709052
1578+820862561+826014672+829007269+829393344+830429183+833992693+838743379
1568+842500481+845048231+846714397+847675821+850173961+858163072+872341591
1558+882877750+881744328+875838683+870878764+867785665+866214106+865623524
1548+865871803+867314670+870013814+873903344+879450927+884827914+883327384
1538+874443033+867053609+865531952+867365388+867727009+866122942+866292664
1528+869803997+874623377+878571445+881950585+885180080+886521394+885117573
1518+883111146+882416035+883355223+885875717+889750539+894516808+900312962
1508+907175245+911261927+907618050+900975098+898244028+900600053+905628958
1498+910047788+912331617+913528130+915211863+917565612+918895953+916943338
1488+912530170+909837562+911585145+916878613+922425321+925401401+926274521
1478+927772133+931604700+937454140+943384005+946064590+943606196+938760844
1468+935490903+935203929+937036957+939229913+941012106+943399355+947346256
1458+951166567+950691020+945659663+940252970+936269533+933679003+932927454
1448+933979751+935127064+934589885+932480739+929904041+927878530+927266470
1438+928334350+930394529+932095188+932462004+931721661+930515809+929358399
1428+928637958+928349175+928253750+928034536+928056948+929820698+933826897
1418+937260373+937234868+935068058+933193184+932015697+930897157+929714301
1408+928664980+927548717+926236293+925540015+926449204+928593952+930988555
1398+933749215+937190511+939729798+938956479+935313244+931839789+930293210
1388+930173039+930741443+932781662+937384337+943398830+947940982+949899317
1378+950979161+952739001+954844003+956668977+959063521+962636837+965615018
1368+965657740+963716973+963754851+967625588+972546812+975102207+976097716
1358+978410493+982765707+987555029+991066537+992938027+993956823+995374593
1348+997846178+1000741132+1003110931+1004689434+1005423999+1004946585
1340+1003505819+1002648574+1003739040+1006752357+1010674862+1014198860
1331+1016459868+1018192102+1021567390+1027612698+1034281448+1038591371
1322+1040820279+1043478628+1046626180+1048169899+1048397634+1049919992
1314+1053852769+1059063828+1064043533+1068070275+1070953907+1072737034
1305+1073631399+1073741823+1072751275+1070469255+1067484071+1064927392
1297+1063911747+1065267886+1069008646+1072991500+1073103558+1067898453
1288+1060809718+1055029965+1050634247+1047761237+1047266079+1048036947
1280+1047699721+1045773954+1043817487+1042596286+1040760048+1036890537
1271+1031920287+1027884906+1025027655+1022325767+1019671154+1017067201
1263+1013438848+1008611940+1004632822+1003205130+1003752931+1005002380
1254+1006085377+1006015690+1004011365+1000231734+995256232+989412044+982594584
1244+974386668+964524960+953741689+943960113+936599988+931185532+926009259
1234+919941130+913359868+906911033+900402141+893430076+886064056+878746478
1224+872185526+867474703+865509248+865945400+866942018+866204593+862908855
1214+858492418+855230356+854239749+854823036+856012779+857800283+860268483
1204+862843546+865036444+867009778+869076202+871687684+875817672+881718706
1194+887323661+889777269+889045739+887943600+888835455+892233504+897437968
1184+902921876+907101415+909992167+912739287+915654610+917971940+919054352
1174+919670497+922193209+928732741+938522254+948024676+954745544+959658656
1164+964621143+969419745+972827483+975045886+976989688+978383704+978406233
1154+977126376+975208312+973285930+972886547+976139913+982714580+989083807
1144+992033974+992086267+992419991+994553183+997321372+1000161698+1004676711
1134+1011247993+1016077820+1015050036+1009485527+1004899427+1004458198
1125+1005659555+1004969813+1003534884+1005194397+1011501291+1020094174
1117+1026761406+1027566358+1021935664+1014764404+1011767546+1014023652
1108+1018218132+1020694736+1020808779+1020496650+1021026125+1021643963
1100+1021934964+1023134571+1025076447+1026163295+1026375505+1026701992
1091+1026717867+1025608023+1025320173+1025930074+1023729297+1019210782
1083+1018025999+1021672328+1024597748+1022208339+1017875771+1016745267
1074+1018924449+1022544748+1025874628+1026444491+1024032554+1021522333
1065+1019608472+1015960392+1010269118+1005216108+1002970157+1004550996
1057+1010378725+1016616283+1015695888+1007050595+998226008+994223778+993836827
1047+993975966+993786168+994157010+995915274+999413943+1004463334+1009967377
1037+1013646623+1013129638+1009593967+1008048497+1011103485+1014752848
1028+1013516589+1008953017+1007933287+1011752839+1013743857+1009071612
1020+1000314961+992423259+986675255+982172732+979854644+981886166+988217807
1010+995252146+998372151+996090132+990749156+985151730+979951177+974172707
1000+967448629+961052438+955984196+951728317+947411915+942326806+935543547
990+926927377+918161913+910802722+904383652+898171540+893149172+890637025
980+890573642+892056429+893888114+894397921+892568220+889474770+887350275
970+887087405+887308836+885936181+882233007+877216883+872492636+869395860
960+868836094+870576440+872826535+873553221+872276982+869825883+867137536
950+865634205+867068550+871118755+874405564+874138200+872097981+872552167
940+877485940+885738679+895102078+903414465+908999168+912519081+917003570
930+923961686+931392140+936944742+940850380+943920017+945861426+947637024
920+951443561+956126603+956646156+951493987+945829618+944016843+944414416
910+943057636+939962902+938719931+940903841+944243002+945416287+943258874
900+939561185+937117907+937213740+938497041+939282265+940439325+943557287
890+947537106+949679110+949620046+949132360+948671462+947492924+946564592
880+948015162+951798645+956224771+961262139+967181207+970948582+969532737
870+964873274+961394274+960985087+962167534+962391534+961287761+961751693
860+965963274+971819367+975335603+975410250+974185080+973824335+974287742
850+973899332+971213202+966542183+961697298+958187541+956499547+957314129
840+962217961+972189918+985278029+997162272+1004905380+1008835356+1010131496
830+1008663300+1005463920+1003465432+1002744757+1000935834+999037380+999601173
820+1001006570+999740779+996874072+998108347+1006952661+1019812511+1029064903
810+1029607218+1022875319+1015293529+1013359824+1019412486+1030490261
801+1039754325+1040912494+1034369693+1027384263+1026015051+1028527490
793+1029152215+1024810425+1016643130+1009333081+1005021524+1002237577+999487481
783+995788275+990801683+985007338+979950710+977515661+977827557+978843610
773+979071520+979199803+980036038+980674770+979927248+978771005+980006973
763+985035586+991483371+994720336+993225410+990673867+990936036+993833909
753+996273861+996233356+995925079+998814197+1003729235+1005750019+1002131822
743+995690924+991582472+991468430+992496797+993303033+996017294+1000103801
733+1002236993+1003206297+1007223702+1015439788+1023029750+1023435961
724+1015710946+1006196734+1002188668+1003947982+1005553684+1002662581+995540113
714+986754396+981272064+984008853+993863675+1004127042+1010884504+1016576012
704+1022330670+1022913723+1015844365+1007179812+1001928133+999093876+996445450
694+992834023+987474954+981523611+977863042+976844538+976730670+976246952
684+974867994+974730197+977183222+976571979+965972904+949839961+940753905
674+944744579+956522250+965745052+966304234+959571869+953859175+957175632
664+965213067+970054684+969800218+969623668+974378964+980406414+979047766
654+968623898+956928286+950823739+951397745+956954959+964486615+968278852
644+964614956+955897409+947953414+946759643+954407209+964692872+965501034
634+950964337+929134808+912427099+909021696+919887318+936862391+949375911
624+956833737+966655584+980015144+987889336+979894448+954251145+919147034
614+888405315+873062324+875463288+890033427+907889791+923940909+934548738
604+937431320+932585443+923730624+920429575
##END=
