##TITLE=<SNM>
##JCAMP-DX=4.24
##DATA TYPE=INFRARED SPECTRUM
##DATE=29/4/2025
##SAMPLING PROCEDURE=Instrument type and / or accessory
##ORIGIN=Admin
##XUNITS=1/CM
##YUNITS=ABSORBANCE
##RESOLUTION=4
##FIRSTX=4497.3318
##LASTX=599.83466
##DELTAX=-1.4281778
##MAXY=2.1643281
##MINY=0.44869104
##XFACTOR=1
##YFACTOR=2.0156876e-09
##NPOINTS=2730
##FIRSTY=0.45414808
##XYDATA=(X++(Y..Y))
4497+225306779+224899875+225236549+226492684+227981286+228353755+227142892
4487+225502461+224992992+225982506+227482463+228451440+228821676+229053183
4477+229144851+228712015+227862591+227207459+226956525+226723170+226274055
4467+225957105+226274484+227261839+228431052+229145827+228995018+228113747
4457+227231071+227029637+227393324+227690905+227704005+227641981+227362112
4447+226411824+225013322+224240500+224900215+226634888+228333041+229288844
4437+229567116+229335299+228765005+228533631+229225342+230266308+230505000
4427+229734159+228755779+228246754+228252506+228410899+228292707+227743599
4417+226971502+226333447+226181840+226676878+227479270+227917606+227648501
4407+227012708+226752607+227345612+228462381+229282619+229433783+229145102
4397+228653983+228122189+227799635+227660048+227348805+226841466+226544491
4387+226665863+227022393+227354098+227543600+227614170+227587187+227293479
4377+226535117+225480933+224662854+224493534+224871118+225310416+225526383
4367+225744464+226173191+226537897+226537246+226315557+226108225+225858192
4357+225488311+225228728+225428934+226114760+226823162+226960694+226360001
4347+225369867+224435458+223858776+223905231+224724656+226030410+227120492
4337+227343128+226560607+225251142+224139798+223596635+223453973+223501581
4327+223891525+224704046+225361025+225137473+224227696+223647910+224004455
4317+224853701+225388201+225265957+224624442+223869821+223599902+224164283
4307+225121121+225587061+225242049+224629883+224539693+225360375+226748675
4297+227698091+227258423+225476246+223492769+222599492+223290877+225057382
4287+226816065+227677362+227497042+226748068+226027734+225763020+226092833
4277+226799743+227537686+228200580+228840808+229240142+229022149+228319364
4267+227827949+227960129+228391339+228599514+228383414+227907567+227666583
4257+228076843+228770253+228849502+228036952+226973868+226418610+226601606
4247+227079611+227019155+226128894+225217387+225204997+225974611+226808111
4237+227379470+227764668+228051205+228309177+228416148+227890963+226448284
4227+224599233+223318067+223325829+224866047+227640044+230535842+232011610
4217+231547962+230343131+229876082+230281551+230665981+230443316+229745159
4207+229052754+228905627+229519094+230486459+231216966+231552220+231626634
4197+231496391+231205714+230922238+230760961+230546783+229959308+229037259
4187+228377928+228483362+229052739+229329962+229068633+228749569+228855963
4177+229271871+229504515+229353943+229194189+229575869+230615889+231743732
4167+232166870+231846268+231721880+232466787+233417209+233438869+232468813
4157+231432327+231048060+231427315+232327614+233138331+233064272+231905438
4147+230418004+229576105+229604138+229861504+229618539+228862365+228269760
4137+228461480+229440451+230660362+231397818+231180905+230231237+229466917
4127+229729738+230949413+232148299+232288714+231252509+230010672+229634167
4117+230218374+231043402+231529332+231572106+231207296+230531036+229919403
4107+229906983+230721913+232079016+233467597+234566535+235293405+235517874
4097+235024093+233878241+232583132+231677184+231296199+231213846+231166992
4087+231072677+231088157+231505868+232417626+233434286+233869887+233297641
4077+231957999+230601370+229854111+229781812+230121649+230661383+231189465
4067+231483942+231591031+231741041+231929124+231958162+231823661+231664454
4057+231562052+231622316+231864808+232048159+232035222+232078099+232380412
4047+232817314+233313062+233888176+234142614+233435158+231917591+230687271
4037+230473744+230792557+230892830+230921188+231449566+232383192+233060886
4027+233087011+232638029+232239376+232395730+233163347+234051346+234515852
4017+234497296+234349651+234337779+234333373+234023786+233417135+232964516
4007+233047372+233575928+234246806+234867399+235190219+234804547+233633664
3997+232380353+231995199+232612673+233401359+233653653+233579742+233746194
3987+234259950+234818372+235125223+235035167+234586702+234076111+233917288
3977+234265967+234844364+235224447+235278442+235225689+235210356+235095269
3967+234841998+234845606+235597625+237066031+238534437+239144740+238609560
3957+237390758+236256956+235670634+235640339+236067291+236886642+237751236
3947+238087199+237816364+237469282+237397574+237493293+237646394+237770604
3937+237665230+237598785+238421744+240296343+241907884+241899974+240613205
3927+239405713+239048991+239374635+239940907+240667097+241674737+242780787
3917+243420261+243034708+241589515+239743155+238401296+237994895+238389571
3907+239547030+241761348+244982169+248316392+250679094+251482758+250459446
3897+247907862+245195135+244080538+245220506+247073859+247201647+245715825
3887+244932860+245815994+247129259+247965997+248914275+249690941+248818940
3878+246773631+245887658+247122044+249442727+251835089+253733951+253900225
3868+252116895+250422216+250304142+250767539+250146088+248577409+247297115
3858+247481487+250746012+258455453+266925356+267654384+260835011+253185391
3848+248512118+247354630+248625698+250896170+253450075+256493725+259959964
3838+262196609+261446024+258522312+255675926+254103847+253569480+253588731
3828+253940766+254289578+254919427+257196494+261149433+263405120+261813258
3818+259112980+257579046+255911247+252805175+249514524+247967786+249323825
3808+253124387+256917025+259228955+261601180+264922436+266821682+265779297
3798+263786401+262460051+261485619+260577453+260298013+260926945+262049940
3788+263362598+265049233+267311752+270276271+274345155+279615543+284871500
3778+288599822+291190542+294450439+299725026+307077464+314841788+320371478
3768+322914116+324062896+325006723+326053160+328054779+331819916+336452648
3758+340381900+344235335+350376186+360063057+371719907+381204517+386331636
3748+389966604+395461372+402671251+407560033+408180774+407957281+410574733
3738+417599442+428029477+437829514+442623641+442097140+439345025+437065327
3728+436378762+437142476+438197813+438578946+438072523+436388668+433635163
3718+431228164+430852117+433293950+438292349+443561554+444993795+441759328
3708+437505038+435077872+434909262+436469040+438672477+440197598+440984141
3698+442199809+444499320+447582830+451380997+456652094+463558759+469259987
3688+469446192+464482035+459158007+457294659+459551559+464269601+469788203
3678+475603424+480060893+479717522+475474261+472457875+472367538+471825128
3668+468183418+463623281+461007959+460665564+461173612+461442762+461698989
3658+462399068+462976962+463057778+464323538+469207145+477578253+483638406
3648+480971927+472317948+464641567+461218470+461251678+462163658+462136246
3638+461428243+461331222+462374436+464292666+467378158+472342019+477958735
3628+480926891+480560987+478827364+477392107+478019058+481962209+487237062
3618+489823405+489436684+489151744+490416824+492381479+494082249+494905459
3608+494285634+492836154+492429088+493990966+496303901+497627176+498144776
3598+499313693+500973064+501227961+499767480+499368339+502680044+508519129
3588+512081945+510718337+507729422+506839945+507927485+509150338+509383116
3578+508435740+507090702+506683577+507410062+508402917+509629733+511730117
3568+514149979+515238051+514533744+513052149+511653293+510445935+509029987
3558+507092654+505013974+503655038+503504407+504211671+505028050+505906586
3548+507582221+509897345+510902087+509269211+506736035+506035749+507444009
3538+508787214+508294098+506187091+503661544+501880283+501742663+503276774
3528+505391647+506876317+507225425+506505859+505189741+503793546+502327979
3518+500508159+498625531+497587551+497963214+499337526+500679903+501451690
3508+501925940+502155643+501493917+499649198+497524034+496409645+496882121
3498+498625531+500705393+502173858+502889106+503426400+504126981+504819106
3488+505218010+505035088+504368098+504059443+504501402+504414760+502318871
3478+498980612+496755086+496671934+497360155+496825700+494605201+491893272
3468+489980986+488941055+487941014+486745543+486222561+486905430+487924336
3458+488175004+487952162+488371588+489512414+490196761+489521344+487841214
3448+486259347+485678318+486143519+486711921+486228653+484590631+482805911
3438+481529062+480350801+478832924+477406685+476635667+476176203+475347256
3428+474351947+473974274+474399851+475213125+476306401+477813130+479178158
3418+479412533+478298143+476497573+474837581+474075227+474685175+476274672
3408+477768449+478509453+478526989+477807689+476370036+474888354+474077829
3398+473719525+473369915+473461878+474498971+475684211+475582903+474017861
3388+472309550+471707616+472311058+473359831+474117868+474399171+474418776
3378+474444118+474767529+475721174+477396276+479232242+480088216+479470461
3368+478845048+480532984+484748892+488824636+490274117+489579331+488694852
3358+488426855+488581242+489118329+489881008+490215745+489748947+488712830
3348+487413597+486322036+486358585+487909315+489781534+490283254+489190274
3338+487623221+486384222+485462129+484837485+484735822+484898015+484453099
3328+483083932+481797384+481851586+483268865+484940271+485966156+486252959
3318+485814726+484499052+482773088+481845376+482378974+483765706+485103174
3308+486072344+486456788+485926769+484982261+485137299+487264385+490209920
3298+491661204+490444768+487665418+485280331+484075426+483664605+483759023
3288+484385028+485333676+486321267+487237180+487799815+487857212+488142329
3278+489532758+491606558+493047523+493297806+492845320+492132556+491075918
3268+489752584+488764697+488406777+488147741+487627184+487386895+487971442
3258+489004394+489521255+488978727+487649687+486174894+485008963+484349721
3248+484285613+484605209+484664232+483983788+482911477+482174642+481987580
3238+482188925+482941107+484465401+486095615+486513090+485287280+483341342
3228+481776950+481167860+481752466+483325669+484911677+485333971+484350934
3218+482729058+481213516+479933651+478763345+477684647+476603968+475287435
3208+473739130+472271464+471099619+470294211+470001967+470085799+469802071
3198+468643563+467285868+466852101+467474439+468333074+468773702+468766162
3188+468516854+468115347+467629269+467214072+466894682+466354963+465153756
3178+463337425+461716081+461101342+461280391+461143391+459877750+457753473
3168+455695936+454415835+454084617+454545649+455345941+455553082+454338212
3158+452148822+450553529+450541051+451491856+451978703+451172112+449321332
3148+447249867+445688936+444890329+444553936+444131967+443438453+442898882
3138+442998002+443629359+444179930+444122770+443431652+442574229+442041430
3128+441840056+441637173+441298770+440957705+440691010+440431382+439969167
3118+438976046+437443236+436010610+435415211+435745837+436388668+436466083
3108+435473524+433818203+432478074+431903965+431556069+430725349+429552676
3098+428879211+429112107+429582631+429323151+428276005+427248730+426909735
3088+427333153+428201754+428948731+428934803+427985091+426651201+425595953
3078+424926657+424448740+424199994+424246420+424319222+424188610+424081447
3068+424288203+424696185+424967878+424792230+423934038+422461049+420878768
3058+419787917+419459863+419632850+419604137+418889835+417814774+417023766
3048+416717358+416811421+417278545+417887488+418212732+418195049+418157642
3038+418219799+418169234+417842629+417270738+416499986+415506096+414331797
3028+413168706+412248062+411724725+411547717+411344480+410652503+409454134
3018+408238851+407422974+407089420+407270539+407897431+408463171+408319400
3008+407442018+406539825+406260947+406496209+406583649+406062589+405055570
2998+403977670+403115783+402474993+401960379+401724053+402017273+402591145
2988+402788320+402414255+401909932+401562480+401201396+400677616+400069117
2978+399412950+398647669+397841758+397188282+396756850+396432522+396120259
2968+395906347+395956025+396218137+396243508+395540325+394299108+393384349
2958+393280586+393505528+393429029+393134302+393005168+392983729+392745599
2948+392328657+392102414+392144729+392088575+391687246+391125053+390611475
2938+390151124+389785397+389548184+389255644+388794760+388336922+387906998
2928+387268160+386515889+386138630+386231511+386276014+385910436+385345405
2918+384867607+384468407+384086416+383743193+383370547+382907534+382510641
2908+382367047+382495205+382856525+383332786+383611605+383448317+382900112
2898+382112742+381250174+380675680+380641290+380813981+380640137+380109999
2888+379730907+379862229+380389794+380878977+380799373+379840228+378314249
2878+377040949+376547596+376597275+376693497+376715615+376841230+377175878
2868+377572033+377603022+376913234+375822058+375191972+375466829+376204343
2858+376662596+376509244+375918073+375254484+374752408+374437986+374302791
2848+374348536+374380738+374069717+373423427+372898612+372804696+372913249
2838+372907838+372849614+372867888+372771193+372337100+371654556+370877210
2828+369958488+368904038+368049661+367803222+368125213+368452587+368251834
2818+367557551+366821958+366337211+366037988+365823869+365804560+366122619
2808+366638356+366920487+366638356+365911959+365106728+364357888+363567649
2798+362803758+362341898+362309193+362559033+362834422+362907432+362751270
2788+362622403+362692810+362685890+362234912+361457951+360800099+360458295
2778+360278862+360068587+359746299+359284528+358720059+358198526+357847733
2768+357624950+357418696+357241097+357178555+357175007+356958788+356231446
2758+354990968+353658083+352764112+352551678+352929617+353592703+354059797
2748+353891394+353076050+352041353+351251587+350896358+350848158+350796292
2738+350510672+350032459+349570925+349253487+349049067+348913812+348898702
2728+349015593+349094664+348953377+348614412+348200545+347780468+347451971
2718+347314676+347211712+346790452+345990484+345205864+344825175+344830971
2708+344945615+344947596+344731673+344310769+343889480+343719065+343799024
2698+343883772+343779921+343496962+343157494+342868267+342626292+342318228
2688+341833333+341123259+340215538+339364384+339026453+339341260+339805396
2678+339858268+339588586+339432632+339426363+339223895+338692663+338122753
2668+337901241+338140939+338568586+338750089+338491880+337973186+337481135
2658+337149267+336964334+336883222+336854864+336785876+336596715+336311745
2648+335991527+335645583+335353073+335269596+335312562+335146317+334708912
2638+334364269+334373259+334624223+334934209+335208711+335311113+335128605
2628+334746289+334344842+334015280+333809470+333826148+334087313+334409128
2618+334529716+334332156+333894633+333436085+333221315+333312569+333428367
2608+333295921+333050694+333000661+333141889+333204756+333054597+332821849
2598+332719683+332843080+333068170+333122609+332858280+332469843+332328645
2588+332581530+333017989+333336876+333395071+333209162+332919609+332759248
2578+332865317+333095286+333142244+332865081+332457838+332226302+332196376
2568+332098528+331784343+331412584+331154168+330980915+330822507+330699642
2558+330627697+330563944+330501491+330494985+330573643+330714427+330886231
2548+331067882+331250302+331433165+331567444+331534177+331272006+330889306
2538+330568468+330423691+330485198+330706887+330951463+331065161+331017110
2528+330940581+331008534+331238385+331455904+331534503+331597133+331814357
2518+332060412+332009817+331613751+331222062+331109724+331165996+331215320
2508+331317308+331555616+331854040+332130346+332325481+332316314+332110829
2498+331961499+332012744+332068189+331916315+331662690+331566853+331670704
2488+331739189+331598966+331392713+331348653+331449015+331523147+331518682
2478+331514306+331599055+331806461+332048643+332163257+332125674+332098380
2468+332198564+332351532+332417267+332322346+332022088+331496031+330899213
2458+330573613+330711411+331089971+331320886+331263904+331040884+330807042
2448+330704876+330883747+331343360+331820064+331999645+331858121+331681881
2438+331711806+331872315+331938138+331872788+331834228+331895675+331985125
2428+332095393+332298246+332518753+332580555+332535371+332648773+332987266
2418+333310440+333420945+333361213+333272058+333303994+333596563+334108042
2408+334579808+334854517+335061568+335372974+335788113+336199821+336480769
2398+336561940+336579948+336819320+337410698+338239024+339204260+340446630
2388+342317075+345227155+349490553+355248260+362592152+371727004+382846412
2378+395808440+410104505+425235608+440931801+456862488+472396162+486937780
2368+500094942+511076375+518648876+522314597+522778911+520972693+516929772
2358+509605426+498195578+483351662+466651968+450252059+437101816+429806745
2348+429541676+436042192+447372525+459922283+470340725+477401924+481529062
2338+483737614+484973331+485624264+485496934+484308264+482131470+479385594
2328+476476638+473491183+470152539+465980898+460714857+454634301+448317595
2318+442227339+436580077+431344464+426259542+421035461+415606044+410125855
2308+404788697+399739969+395096503+390940032+387273807+384014767+381045458
2298+378309400+375877886+373869969+372246467+370735716+369067474+367282635
2288+365730841+364712821+364184281+363884585+363659465+363524625+363489584
2278+363442419+363186576+362612585+361872941+361250603+360814292+360402821
2268+359945929+359572691+359426052+359515887+359654601+359496222+358853658
2258+358012883+357523849+357626073+357995348+358112506+357849359+357579677
2248+357688171+358152071+358688507+359105598+359361529+359438708+359325601
2238+359084277+358872347+358868798+359080374+359217640+358943168+358280732
2228+357560250+356937705+356278285+355578118+355150382+355240749+355709942
2218+356211840+356496899+356497402+356332902+356310399+356747537+357693257
2208+358893460+360053210+361056296+361943230+362800564+363695630+364634371
2198+365561550+366448514+367368951+368409799+369503045+370479075+371323250
2188+372206281+373222792+374305984+375395446+376452675+377361580+378039511
2178+378557702+378987774+379257160+379290279+379219901+379319819+379637435
2168+379808618+379472462+378780249+378199871+377929568+377777990+377521112
2158+377170378+376920952+376904540+377037578+377168367+377312168+377636792
2148+378255818+379182110+380569050+382839020+386293372+390662780+395378072
2138+400207595+405272557+410584373+415949179+421250881+426610187+432251092
2128+438187966+444083471+449541986+454463472+458984014+463179046+466886728
2118+469767415+471601931+472516602+472854503+472988841+473261687+473849635
2108+474689788+475669603+476843399+478442772+480612439+482999626+484810723
2098+485530792+485319393+484579306+483538724+482223670+480427920+477797901
2088+474187713+469802869+464928577+459670195+454017315+448073728+442068102
2078+436156895+430447328+425170760+420574903+416734627+413612143+411106763
2068+409010992+407136171+405434219+403908712+402575532+401501122+400734007
2058+400284892+400172022+400312393+400490170+400609664+400840017+401426043
2048+402460769+403845432+405472276+407470553+410131887+413624947+418016326
2038+423423683+429844240+436978656+444375745+451575511+458157818+463869514
2028+468635549+472459975+475496853+478047446+480308279+482249337+483688498
2018+484350165+484075988+483098125+481880861+480681812+479415845+477886051
2008+476049464+474013987+471808687+469332050+466594868+463842546+461351153
1998+459252987+457661391+456787142+456657181+456743023+456293997+455242563
1988+454306868+454071547+454463384+455160476+456035936+457051531+458071561
1978+459016512+460054817+461442969+463204151+465149054+467238201+469677077
1968+472506193+475303226+477546908+479204623+480716379+482494683+484649979
1958+487080191+489581253+491914829+493974081+495901212+497943106+500180933
1948+502491917+504882623+507659577+510891501+513919863+516094113+517753071
1938+519601160+521641694+523513794+525369868+527728342+530735295+534028429
1928+537219014+540329995+543624017+546980965+549905771+552345031+554669618
1918+556598967+557274650+556869003+556860724+558378039+561118148+563831526
1908+565553468+566326083+566861485+567699864+568737429+569564454+570199330
1898+571185975+572781119+574428012+575568719+576586295+578053636+579471240
1888+579867897+579376023+578969786+579108116+579573021+580111320+580590065
1878+580839580+580731175+580349184+580171467+581032497+583370035+586104645
1868+586851711+584523398+580786885+577883252+576539041+576100631+575675645
1858+574842352+573684140+572591573+571890992+571484517+570947638+570095065
1848+569473732+569936567+571170066+571041790+568199899+564372309+561843214
1838+560881349+560174380+558829105+557608913+557859966+559412884+560135820
1828+558544875+555681930+552988423+550564303+548124215+545923824+544301652
1818+543274791+542704260+542493423+542666469+543210623+543690196+543433820
1808+542397201+541336216+541126089+542290807+544710019+547327175+548734192
1798+548667955+548399278+549440865+552141469+554887433+555290123+553400516
1788+551562836+551369445+552674504+554615090+556614994+558314758+559515493
1778+560694287+562881548+566854624+572382688+577510724+579684916+578868063
1768+577097921+575916999+576026409+577563182+579681012+581096842+581883177
1758+582959598+584154064+585019885+586603260+590309789+595470470+599308528
1748+600317528+599898575+599851795+600710341+602351497+604523915+606582013
1738+608410704+611512460+616947791+621871554+621921942+618443224+615189240
1728+613461857+613189691+614068405+615539531+617488278+621013718+627396484
1718+635636092+641121575+640497462+636286641+632407007+630579676+631043813
1708+633566461+637132294+640041132+642286707+646221223+653015550+659499446
1698+661930959+660746843+657101170+652320823+649143368+649140292+651560391
1688+655314114+661027170+668949784+674595657+673306920+668486476+665163652
1678+665221551+668402023+672712083+675924135+678417096+681714784+684855632
1668+685449346+684307988+684318870+686105512+687427426+686491347+684855158
1658+685431071+690107331+699584637+711216263+715915233+711782240+707967366
1648+708552682+710783767+709643474+704972182+700513916+698822312+700978052
1638+707213794+715568668+720276627+717875453+713214629+711588259+713889839
1628+718188899+722556208+726648570+730168155+732125182+733232356+736200867
1618+742590139+750216103+754689332+755456979+755022886+754414387+753372031
1608+751825263+750129698+749127676+750038976+753191297+757197196+760417469
1598+762835498+765608135+769180710+772727617+775435850+777499626+779610832
1588+782164116+785054621+787740380+789563039+790727047+792745758+796973257
1578+802691045+806636206+806127064+803842042+804351421+809048144+815694441
1568+820549956+822863720+824616356+827526969+833294020+844024401+857872031
1558+863350654+856481928+848187496+844343110+844516866+846200012+846933180
1548+846191732+845544200+846388907+848777070+852652150+857292866+858146681
1538+852687220+846619320+844743079+846294400+847251357+846301024+846283578
1528+848599411+851196696+852319365+853418910+856097690+859254506+861416159
1518+862969018+864070456+864320207+864664525+866755505+871312419+878371341
1508+887287875+894253118+894702529+891700662+889976472+890121190+891191046
1498+892254279+891737507+888994913+886691795+888036123+893517703+900819339
1488+906675397+909146002+908553234+907374027+908543240+912852176+918483795
1478+923315950+926807798+929362797+931046475+931459573+930512966+928898956
1468+927479873+926653559+926192615+925942273+926799636+930030318+935819193
1458+941675725+941819791+934379115+925348854+919611373+917517554+916503408
1448+914012163+910741738+909396168+910523213+911941527+911910241+911290387
1438+911578580+911942650+910439825+908018306+907451797+909954575+914322652
1428+918112924+920021396+920732682+921586142+923300455+925656919+927371468
1418+926543675+922978020+918578835+915256898+913574285+912491181+911317119
1408+911923666+916442907+922900723+926435152+925818255+924067747+923399812
1398+923903277+924871056+924898083+922627019+919162672+917421509+918542522
1388+920450048+920243588+918492312+918783935+922617793+927663860+930987807
1378+932531854+934667841+938938986+943924493+946783948+946823099+945864842
1368+945993709+948338995+952622619+957447145+961966563+966654355+971399100
1358+974708498+975793435+975590878+975174527+974893845+975205458+976581308
1348+978706709+980925374+983299639+986595376+990679282+993913039+995205146
1338+995699681+997378569+1000704882+1004465169+1007330539+1009023857+1010456246
1328+1013270045+1018563616+1024688706+1027687734+1026697244+1026442466
1320+1031450387+1039916859+1046502774+1050256911+1053720903+1056527487
1311+1057069334+1057816045+1062034201+1067642282+1069342697+1066362121
1302+1063702207+1065308233+1070006020+1073737447+1073741823+1070509899
1294+1066403520+1062621942+1058209331+1053014289+1049681589+1049900528
1285+1051126043+1049232593+1043203547+1035508389+1029576216+1027553957
1277+1028646760+1029111488+1025685582+1018799942+1011236431+1005777266
1268+1003809417+1004159530+1003553101+999665069+993624669+987999673+983703689
1258+980224852+977192646+974090773+969615888+963043398+955469005+948835659
1248+944212449+940670864+935684825+927518906+917213156+907194062+898447676
1238+890220842+881717998+872761604+863701772+855511428+849127243+844291480
1228+839750062+835023119+831226519+829473054+829198700+829082193+828784893
1218+828506044+827821490+826373960+824795612+823843328+823455009+823420057
1208+824316690+827061886+831566105+836438239+840423084+843759391+847350240
1198+851097399+854244751+856913833+860146940+864487043+869173948+873092615
1188+875906295+877676555+878433143+879071095+881442225+886182948+891558547
1178+895893091+899949851+905245492+911677818+918320981+925362812+933750035
1168+942983681+950493375+954275722+955526963+957199641+960635423+964650016
1158+967340388+968433486+969651017+972407864+975729327+977303417+976488103
1148+975408606+976455102+979696252+982904224+983817830+982865783+981928165
1138+981221670+979825652+977939121+976867254+977431279+979696370+983694759
1128+989016894+994165689+998052419+1001685436+1006958425+1012866824+1014615024
1118+1009553404+1002387910+999174556+999924106+1000859476+1000740603+1001094974
1108+1002659129+1004950360+1007511628+1009326776+1009485037+1009081933
1100+1010301771+1014048929+1018967311+1021749055+1019716033+1014534593
1091+1010591560+1009708471+1009592200+1007591350+1004811616+1004487288
1083+1006828197+1007996227+1004573397+997396193+990066465+985361286+983263031
1073+982620940+983869046+987372663+990056944+988443702+983905832+980481227
1063+979658638+979860072+979044284+977319326+976950524+978256589+978165689
1053+975283642+972909909+973993723+976594852+977512243+976438779+974320830
1043+972017180+971205414+972609238+974126612+973500134+971424116+970631334
1033+972681212+975761972+976134973+972400648+966266569+959858668+955549140
1023+956111155+961520228+966952247+967656199+965180567+964224675+966073475
1013+967991646+966965081+962740302+957104128+951099922+944382656+936733332
1003+928802970+921755285+916741213+914155816+912943075+911082093+907908364
993+904454011+900610749+895047792+888474593+883539652+881464817+880807704
983+879165720+875489885+870537497+865611841+861826774+859919898+859099675
973+856917914+852446044+848017348+845658401+844129139+841656523+839100696
963+837741701+836455863+833503024+829669579+827407800+827865372+830276541
953+833290176+835916617+838087024+840986991+845788274+851947015+857929812
943+863116634+867472469+870462566+872044226+873742572+877441826+883760483
933+891543466+898640238+904045230+908937945+914525505+920030740+924245170
923+927368748+929670861+930449922+929277870+926556745+922604073+917980212
913+914352400+912833133+912529800+912205058+912122083+912794750+913756142
903+914835934+916364427+917887716+919046401+920858592+923792920+925845104
893+925233471+923553459+923912444+927671016+933279157+936559813+933535118
883+925730904+920029321+921643035+929724383+939453511+947390732+953698922
873+958968363+961738753+960473673+956633782+953666335+953497489+954980798
863+955527318+954449359+953259151+953603173+955537726+957968589+959761263
853+960088903+959252594+958217631+957423843+956952373+957947594+961955740
843+968321829+973722681+975533748+974501387+972549328+970166547+967298575
833+965614720+967669270+973078697+977712908+979128087+980229642+984120099
823+989586065+992937926+992056493+988987324+987857854+991180914+998428909
813+1006328813+1011383928+1011993906+1008961168+1004685646+1001823825
804+1001940332+1004020431+1005664307+1005602210+1004896779+1004887553
795+1004276629+1001342538+997522991+995387655+995598078+997380935+998961886
785+996664977+987019120+972520704+961279407+958338869+960584148+960794038
776+955676766+948230827+942991665+942505410+946953268+953800467+959368214
766+962372801+963290725+962482093+961249481+962220632+967085077+974625524
756+980935133+981772329+976671143+970331372+967544956+969313323+975100306
746+984149847+992893807+996074634+993147876+988653947+985977000+984321355
736+980167072+973054095+967346184+967228612+973017546+981111490+986472304
726+986877951+985403394+986301683+989711207+992963830+994694525+995573357
716+995403386+992638201+987792799+984288295+984934467+988162961+989258484
706+987124863+985045829+983578488+979791764+973723154+969742094+969939742
696+971074949+969751852+968334662+969974813+972054320+970868962+967958231
686+966538143+966853482+969207402+974876754+980842932+980025607+970334270
676+958015369+950021845+948770250+951751653+954255732+955370121+960908535
666+972184371+979770651+975631804+963169604+950031131+941567320+938552738
656+937963164+938914797+941230158+939902448+931392803+921423387+917221318
646+920770000+931518536+946845632+956313416+951147176+939119484+933907823
636+940863367+956318089+967537090+961600009+949779013+944591364+940530168
626+931930511+920933465+912160702+906573616+901472726+894092610+883944529
616+876062131+875315716+880850226+888231347+891905112+889707855+886581143
606+888121168+895000480+904651305+914617587+923870927
##END=
