##TITLE=<SNM>
##JCAMP-DX=4.24
##DATA TYPE=INFRARED SPECTRUM
##DATE=29/4/2025
##SAMPLING PROCEDURE=Instrument type and / or accessory
##ORIGIN=Admin
##XUNITS=1/CM
##YUNITS=ABSORBANCE
##RESOLUTION=4
##FIRSTX=4497.3318
##LASTX=599.83466
##DELTAX=-1.4281778
##MAXY=2.1673245
##MINY=0.54476184
##XFACTOR=1
##YFACTOR=2.0184783e-09
##NPOINTS=2730
##FIRSTY=0.5502249
##XYDATA=(X++(Y..Y))
4497+272593917+273153649+273513820+272447776+270917055+270446149+270926682
4487+271435859+272146191+273885419+276440695+278500082+279015431+278229474
4477+277399341+277380353+277774159+277750801+277224142+276639665+276162793
4467+275824858+275952986+276806034+277922220+278367820+277825186+276811231
4457+275710785+274559873+273704197+273608137+274146519+274780960+275210969
4447+275481607+275795564+276311858+276816251+276876964+276484045+276095289
4437+276091716+276456789+276739977+276425960+275624057+275031607+275147658
4427+275815585+276431452+276546411+276370061+276337578+276194331+275424851
4417+274546378+274687647+275857311+276871206+277104577+277049446+276964519
4407+276228112+274450584+272444912+271520107+272121623+273467488+274412698
4397+274505657+274112649+273853291+274308488+275815467+277840836+278996975
4387+278401217+276560703+274581459+273341516+273309653+274036758+274122837
4377+272786273+270990023+270186023+270621259+271409814+271753331+271734166
4367+272071865+273198239+274568525+275132982+274602661+273877565+273984520
4357+274830895+275530419+275730629+275821373+276051821+276208446+276045679
4347+275479746+274509053+273297340+272195328+271606658+271724658+272194236
4337+272338960+272010887+271772820+272029048+272483654+272618811+272396749
4327+272445620+273465274+275210880+276423096+276250378+275229720+274296086
4317+273585045+272838510+272195387+271933963+272081315+272777798+274357537
4307+276559876+278305276+278760296+278171537+277357586+276725300+276039862
4297+274998622+273815287+273059804+272966639+273142753+273149249+273130232
4287+273416816+273818181+273837818+273341014+272601684+272044875+272090942
4277+272689002+273042470+272394859+270988399+269887392+270083792+271722177
4267+273817502+275042710+275050122+274516110+274029405+273721383+273573056
4257+273420832+273203613+273394196+274448901+275966097+277104991+277487929
4247+277212035+276533004+275685803+274616068+273223014+271952862+271549548
4237+272240272+273633208+275215871+276564424+277440062+277971032+278242733
4227+277800588+276331968+274541122+273497490+273507826+274240364+275243835
4217+275811067+275254820+273822817+272516786+271928706+272066904+272795072
4207+273669323+274129983+274386535+275213508+276648376+277832568+278034786
4197+277139717+275521324+274027545+273651191+274625222+275989485+276442497
4187+275632000+274339435+273440085+273107140+273124710+273509302+274426666
4177+275724132+276883579+277420425+277228217+276567259+275865638+275456329
4167+275313909+275206982+275180613+275478211+275950063+276086518+275672279
4157+274914522+274046739+273292703+273004289+273433470+274503324+275935534
4147+277336089+278145758+277920448+276778542+275440531+274794190+275368745
4137+277046375+279023965+280182289+279974933+278967652+278116760+277718112
4127+277503580+277429549+277663836+277981928+277955883+277624178+277274756
4117+276895774+276533034+276630570+277379733+278224779+278448051+277883063
4107+276869345+275862006+275275432+275394347+276097710+276801428+276991981
4097+276763482+276573194+276655670+277028273+277744275+278680330+279347313
4087+279259197+278419939+277333549+276492549+276003629+275807524+275996601
4077+276554945+277017377+276895981+276313335+275805368+275688372+275961963
4067+276503180+276915589+276585626+275520172+274752405+275172640+276317764
4057+277070855+277121055+276927518+276794606+276811025+277151529+277713033
4047+277905919+277327584+276317498+275584222+275538008+275981157+276275773
4037+276002478+275399928+274885879+274487142+274150506+274065077+274232598
4027+274475242+275047848+276312331+277799200+278565254+278298898+277315447
4017+276043287+275056648+274876075+275324894+275711996+275779235+275913505
4007+276491102+277394882+278128483+278349334+278220408+278048251+277847598
3997+277611569+277539429+277607347+277487309+277221278+277321973+277981810
3987+278788202+279274907+279240032+278640908+277686574+276900883+276693172
3977+277025822+277622111+278268955+278934048+279675356+280302208+280303567
3967+279522984+278643035+278521550+279151798+279691036+279551037+279025589
3957+278668991+278544849+278438425+278498310+279082994+279952845+280315762
3947+279990495+279860949+280613626+281545813+281446949+280391240+279575222
3937+279679195+280470910+281705332+283315811+284694603+284997044+284506825
3927+284521944+285509292+286160329+285155026+283420169+283015201+284299203
3917+285472823+284852526+282765175+280634917+279346959+279060582+279868656
3907+282272003+286720680+292362881+296648585+297470982+295180674+291494537
3897+287928141+285685199+285714788+288021041+290724909+291277436+290060850
3887+289785310+291215631+292367842+292336304+292558337+292960824+291569896
3878+288879286+287831521+289588644+292600534+295325989+297074164+296754596
3868+294593539+292953619+293084611+293366648+291894100+289361533+287813035
3858+288801506+293600994+302654855+311405891+311468583+303562208+294753057
3848+289212231+287929559+290051725+293784342+297631091+301200203+304264360
3838+305563894+304103218+300951358+297833988+295355282+293396413+292129155
3828+291703251+291795029+292832016+296501617+302759183+307213943+306758835
3818+304340310+302298877+298926402+293433384+288538782+287151486+289973915
3808+294774230+297953759+299319912+301890986+306087039+308273462+306910941
3798+304512703+302138237+298970873+295450190+293170778+292960676+294657795
3788+297738667+301335270+304288131+306301275+308562792+311972238+315358473
3778+317198899+318440674+321245946+326499096+333587976+340817298+345986348
3768+348463400+349685242+350703980+351539222+352706198+355119821+358632679
3758+362185077+365600016+370269072+378240116+390054572+401744945+407759188
3748+409284622+411371708+415976597+420560992+422773194+424550604+429074611
3738+437634680+448223603+456543952+460066909+459634892+457343669+455248020
3728+454702669+455354503+455614865+454751216+453151455+450862920+447831687
3718+445015016+444036527+446118209+451249136+457011049+459216932+456793003
3708+452948735+450678242+450892301+452984525+455353559+456635759+457175587
3698+457946041+458938971+460087875+462658742+468208870+475889876+480959145
3688+478985039+472406517+466715563+464346796+464711662+466453991+469615389
3678+475460930+483051930+487404814+486659460+484681545+482953626+479065920
3668+472779445+467602511+465471899+465166357+464842124+464477257+465269091
3658+467274350+468873431+469294788+470552183+475064881+482437185+487558397
3648+484937270+477076223+470321233+467588987+467685017+467808037+466899650
3638+466621896+468815406+473015386+477298255+481459256+487209949+493204613
3628+493413298+487263958+481306471+480257760+484740810+492205394+497889438
3618+498474358+495769457+493351168+492542680+493034376+494432686+495965001
3608+496383965+495798455+495934822+497582213+499530392+500386629+500622570
3598+501961674+505079811+508402883+509422005+508101387+507682954+510937636
3588+516166719+518518803+516591944+513260426+510541528+508294215+506199511
3578+504719197+504342814+504906060+506083283+508255354+512123186+517107352
3568+520581615+520674220+519488138+519504792+519564737+517282816+513055255
3558+509588434+508566241+509767678+512113560+513905469+513687009+512268531
3548+512090999+513825680+515068635+513645845+510638207+508453556+508034592
3538+509094287+511325536+513901925+515081569+514335064+513444454+513637931
3528+513502273+511641619+509175139+507782469+507463845+507187272+506368715
3518+505111526+503811401+502822636+502095619+501137151+499530333+497481222
3508+495816172+495374588+496290829+497747578+498525090+498167724+497313967
3498+496621678+496137748+495815405+495839323+496240865+496828502+497576721
3488+498568439+499749974+501045551+502233050+502577836+501243930+498371655
3478+495176534+492846450+491778693+491754626+492310519+492922459+493252599
3468+493253396+492849314+491778221+489931505+487603104+485521186+484519044
3458+484707294+485368814+486092966+487245384+488860824+490077233+490137532
3448+489126826+487559991+485916911+484424904+483009053+481558535+480194449
3438+479202140+478709293+478525235+478312623+478034957+478088258+478775882
3428+479850371+480470373+479831384+478135535+476570412+476068883+476413995
3418+476666944+476066993+474760638+473894863+474445972+476052347+477479566
3408+478035075+478004394+477837700+477696342+477855270+478674418+479820074
3398+480268066+479510930+478261271+477449653+476923821+475852462+474194883
3388+472841841+472185164+471506931+470352829+469519123+469777713+470723986
3378+471654873+472649368+474184902+476310582+478590141+480341476+481035626
3368+480877112+480698665+481195470+482456586+484148655+486001454+488022128
3358+490072597+491562065+492002586+491500082+490417974+489219047+488580324
3348+488883031+489679500+490086210+489497185+487895505+486141276+485678992
3338+487181571+489650738+491165838+490548908+488398156+486635777+486722033
3328+487948481+488145295+486610470+484914680+484332565+484474218+484733841
3318+485345161+486327784+486770432+486035620+484724717+483836174+483590400
3308+483487785+483170520+482789029+482634383+482766882+482993668+483146040
3298+483472312+484587582+486641033+488666786+489402602+488729566+487692165
3288+487174956+487265641+487736046+488434625+489365454+490595062+491777807
3278+492133549+491593041+491320041+492136915+493221593+493375412+492886079
3268+492988369+493922682+494503025+493658984+491864004+490472515+490010998
3258+490023460+490166944+490365589+490274815+489572485+488539337+487619109
3248+486769664+485911241+485371088+485215172+484864952+484056937+483585410
3238+484327870+485963213+487256015+487313568+486198002+484648501+483525022
3228+483201526+483378585+483531636+483251106+482244003+480637480+479186017
3218+478594895+478697717+478632782+477796684+476475682+475599128+475737297
3208+476311793+476182985+474895027+472865347+470888347+469885702+470306468
3198+471373280+471665977+470724960+469509910+469190578+469938353+470892688
3188+471015619+469901176+467885965+465694817+464113247+463584167+463714067
3178+463552866+462639607+461448535+460750133+460782704+461037337+460807361
3168+459889230+458602482+457346061+456346901+455613182+455019787+454466640
3158+453840024+453013405+452100176+451450704+451218012+451117198+450656804
3148+449564951+448115052+446912729+446265089+446050616+446107431+446169620
3138+445656249+444259416+442544106+441396206+441116887+441320256+441442390
3128+441262113+440997174+440850797+440637535+440082587+439344320+438936458
3118+439070581+439339979+439289897+439054163+439004110+438941272+438178643
3108+436424207+434270267+432813665+432784490+433904928+435175493+435900531
3098+436206368+436479014+436640097+436124276+434471569+431986869+429853688
3088+429337630+430542168+432022954+432127075+430808288+429513980+429335504
3078+429987870+430525100+430471622+430124473+429922728+429800594+429462127
3068+429082997+429106060+429386383+429258432+428380461+426982299+425600850
3058+424833998+424912399+425330360+425236869+424381400+423373824+422831308
3048+422611313+422203658+421505345+420699219+419826564+419084753+419004758
3038+419707028+420457255+420450551+419684881+418777794+418206428+417925396
3028+417658921+417381551+417282745+417324559+417211638+416770054+416025320
3018+415073142+414133041+413582050+413604906+413902238+414068932+414075842
3008+413980285+413488294+412410260+411217800+410490312+410137405+409712682
2998+409156671+408778310+408749430+408906113+408916124+408512337+407647743
2988+406540801+405592963+405168477+405343675+405800614+405967043+405461261
2978+404536516+403851786+403681076+403662856+403458423+403229717+403243006
2968+403338032+403069579+402322985+401571075+401357164+401707679+402255392
2958+402651530+402627788+402009323+400930581+399785840+398932644+398599729
2948+398771856+399021056+398844676+398197094+397374639+396592284+396009106
2938+395841585+396110570+396481726+396494453+395872444+394767627+393766341
2928+393352662+393346993+393197190+392735112+392271647+392072972+392150723
2918+392488600+393052052+393536454+393485338+392821663+391957748+391216233
2908+390472326+389575781+388783357+388472146+388685024+389143174+389467378
2898+389348286+388787078+388159812+387803155+387604953+387190920+386425751
2888+385576719+385064826+385153444+385732547+386290477+386326946+385955494
2878+385797364+386122306+386471640+386324967+385753926+385194874+384919157
2868+384839899+384620732+384069239+383518720+383503660+383979528+384285099
2858+384004510+383458775+383229006+383530591+384144007+384669544+384694526
2848+383946987+382582133+381248286+380610478+380785234+381318448+381633114
2838+381436212+380820787+380107945+379596908+379403283+379431011+379451623
2828+379343427+379280086+379454369+379612913+379205760+378115620+376924489
2818+376331418+376525427+377132258+377534952+377242433+376205711+374899563
2808+373956125+373613967+373594270+373542830+373453356+373523636+373778623
2798+374039162+374108910+373828616+373100094+372065912+371151856+370704041
2788+370626792+370568944+370415479+370349038+370437508+370433758+370072022
2778+369398838+368728489+368342213+368251971+368233456+368065168+367689434
2768+367188585+366728338+366459856+366339434+366151479+365802145+365388496
2758+364930582+364363291+363822695+363557195+363552854+363593309+363613124
2748+363693857+363810587+363777042+363354504+362457457+361433581+360909698
2738+361081058+361437597+361446722+361149685+360818718+360461352+359984569
2728+359470077+359012369+358577016+358159439+357839222+357652507+357629710
2718+357893408+358443720+358886308+358690084+357772426+356617498+355806618
2708+355601270+355891131+356303038+356429926+356174201+355793920+355491361
2698+355157382+354665007+354176560+353937932+353919417+353878962+353723371
2688+353578352+353483621+353316750+353129119+353185609+353499242+353705742
2678+353546755+353135586+352673627+352229828+351817803+351446056+351084704
2668+350656733+350105270+349559653+349337827+349573620+349949059+350024152
2658+349727883+349307619+348924060+348545876+348184140+347969608+347926111
2648+347894721+347812659+347815464+347906090+347828545+347465274+347083428
2638+347004968+347215956+347413125+347368387+347199331+347198770+347378398
2628+347391420+347027765+346548147+346331754+346402271+346497179+346438208
2618+346254062+346029756+345751441+345311628+344716255+344247474+344225386
2608+344620874+345126183+345543967+345850837+346002323+345967833+345832706
2598+345658128+345404026+345097540+344885813+344875862+345056464+345339120
2588+345584983+345673955+345632496+345654702+345912967+346291594+346398402
2578+346018742+345467662+345242736+345448291+345798097+346007078+345939868
2568+345561123+344975022+344409237+344066222+344027214+344217000+344400112
2558+344355345+344126108+343976777+344078447+344346752+344560309+344530219
2548+344224530+343861937+343806481+344184133+344659499+344770235+344415526
2538+343870058+343454312+343352642+343593868+344032440+344427427+344631446
2528+344676656+344680199+344698183+344678870+344552986+344332224+344107061
2518+344019063+344214106+344670189+345122905+345364516+345503984+345696723
2508+345799072+345572728+345075806+344604988+344370789+344385643+344533408
2498+344640512+344596129+344466169+344395860+344426511+344526675+344718086
2488+345021088+345361947+345627565+345715031+345546742+345192949+344904919
2478+344849167+344896414+344812344+344554876+344287250+344179674+344237818
2468+344297025+344227630+344139662+344265694+344643110+345057350+345305634
2458+345375885+345339386+345185803+344848842+344381006+344009998+343915946
2448+343999751+344032470+344011651+344174448+344644852+345229655+345583949
2438+345497280+345031896+344455775+344063062+343999928+344185846+344422466
2428+344634871+344932174+345365667+345767830+345944682+345900151+345804033
2418+345864273+346215497+346790849+347326396+347577043+347503130+347254374
2408+347042116+347005824+347149692+347414453+347783306+348258820+348766668
2398+349172049+349413571+349593937+349953636+350791860+352394780+355016025
2388+359013403+365029949+373832928+385839680+400962650+419008213+440001056
2378+464002925+490867560+520181018+550980104+581451059+609378993+633024736
2368+651689858+666121926+677602580+686169441+690737949+690561836+684502265
2358+669511676+644305830+612577628+579298182+548511734+524742380+511996800
2348+512219394+525089588+546825600+569349163+584976172+592460954+595554937
2338+597843768+600126221+601644155+602124186+601287970+598162804+592794165
2328+587121549+582769492+579086750+573935389+565955693+555666435+544458161
2318+533278530+522499083+512308986+502772790+493641177+484440407+474933297
2308+465357059+456097495+447331989+439103507+431502733+424597674+418321563
2298+412574208+407367715+402790968+398866823+395508995+392573970+389905921
2288+387407223+385130647+383225020+381742757+380566745+379522582+378521149
2278+377651475+377121421+376971529+376908779+376584073+375947801+375214524
2268+374588942+374097276+373611545+373016437+372335044+371644644+370959088
2258+370298099+369763970+369454147+369374712+369464511+369637407+369807733
2248+369906893+369884332+369750268+369649514+369794120+370208241+370594694
2238+370614744+370281976+369882590+369522330+369037574+368374814+367727793
2228+367228213+366788017+366318232+365892624+365624082+365498730+365395938
2218+365239372+365063819+364923938+364818429+364741210+364739999+364889270
2208+365212235+365605184+365884208+366009826+366183223+366595071+367181763
2198+367726405+368113301+368435438+368898195+369610682+370452539+371180588
2188+371660325+371956063+372220735+372519662+372765850+372891823+373046380
2178+373436140+373990084+374434119+374697256+374949704+375227399+375317966
2168+375080017+374680926+374473688+374705849+375296528+375865531+376086235
2158+376029361+376075693+376509658+377260948+378010022+378531956+378954966
2148+379604468+380595153+381757817+383029978+384681592+386971191+389752220
2138+392633442+395460891+398458637+401902603+405789216+409842494+413788904
2128+417614302+421520848+425578230+429522012+433023679+436030697+438675477
2118+440984122+442857355+444226874+445087925+445443224+445288135+444615896
2108+443440474+441876622+440174010+438560548+437010338+435256758+433102523
2098+430619122+427995308+425377430+422921786+420755532+418755056+416589038
2088+414147983+411737136+409687907+407986712+406431955+404946680+403580085
2078+402361491+401267364+400257515+399328576+398562404+398068227+397888747
2068+398012535+398350382+398619898+398488314+397984541+397545851+397537789
2058+397907557+398362046+398707630+398950539+399207889+399611232+400236785
2048+401074330+402066964+403154919+404244558+405200073+405991523+406832582
2038+408028290+409662039+411512741+413282768+414832594+416200401+417508616
2028+418887437+420396069+421960601+423450660+424880271+426471409+428389497
2018+430415988+432068341+433128125+433837748+434513649+435259387+436112139
2008+437174050+438498182+440004629+441535940+442927990+444060771+444885736
1998+445467408+446077104+447103077+448631671+450200425+451228790+451640697
1988+451851921+452347013+453424662+455085401+457013707+458814681+460354792
1978+461823028+463461029+465306504+467257961+469346671+471763542+474499273
1968+477120547+479154184+480653810+482124024+483954765+486187490+488702222
1958+491341745+493894156+496181098+498152251+499884392+501680021+504013915
1948+507043582+510406873+513733902+516868399+519478216+521294280+522776306
1938+524630699+526917227+529289568+531648561+534033245+536327037+538448141
1928+540587907+543203276+546663896+550595808+554010126+556599331+558987440
1918+561268299+562660319+563092217+563654046+565192001+567485380+569640619
1908+570891430+571195997+571145797+571309922+571920060+573083050+574850508
1898+577005984+578969223+580100793+580445225+580991521+582469827+584090701
1888+584506712+583880155+583529936+584016641+584807145+585323085+585518511
1878+585621923+585813333+586221195+587124089+588902118+591468350+593704205
1868+594009835+592041281+589113668+586571001+584735270+583259623+581857267
1858+580542200+579386593+578298018+577165384+576179099+575695583+575803248
1848+576469079+577804284+579219988+578823761+575682236+571618269+568749892
1838+567354505+566371232+565060654+564056119+564520500+566299711+567522173
1828+566896207+565150896+563065405+560378162+557169546+554405644+552804909
1818+552227548+552136007+552216977+552476836+552893675+553188025+552997264
1808+552170970+550973549+550199285+550762826+552692225+554728638+555536328
1798+555244695+555203354+556616045+559508813+562063469+561878437+559313387
1788+557142379+557149229+558977873+561390787+563769211+565986817+567776954
1778+569193188+571088569+574521845+579601509+584388535+586089198+584541675
1768+581791180+579546052+579062536+581048159+584410269+586777235+587757437
1758+588983915+590690248+591898122+593270712+596550435+601479675+605208660
1748+605808640+604551393+603817348+604979216+607972148+611490233+613819107
1738+615070212+617798383+623651897+629331600+629427158+625322794+621519454
1728+619516409+619040099+619798003+621511658+624232211+628951615+636456890
1718+644640695+648169705+645104839+639717537+636023574+635077213+636425412
1708+639416159+643207982+646637951+649779299+654493093+661412090+667286983
1698+669104877+667919504+664744257+660479607+657596524+657618317+660067316
1688+664320390+670835306+678644853+682474534+679356160+674079534+671013782
1678+671355261+674769698+679323441+682770833+685578969+689174894+691872118
1668+690876797+688120632+687637589+689887677+691813532+691472053+690884593
1658+692706858+697924661+706589796+716210683+719731957+717067392+715916687
1648+718251230+719953605+717111628+712218236+709340173+709588575+712816385
1638+718908261+726225375+729689598+726443125+721259459+719171074+721173882
1628+725625749+730544831+735332803+740012165+744105130+747793836+752820052
1618+760509709+768692274+772703324+772445000+771837283+772751811+774147021
1608+774484071+773715359+772773368+772135413+771864982+772517170+774743753
1598+778037945+781108068+783651030+786564587+790194057+793488073+795066601
1588+794547178+792933922+791930392+792710148+795228128+798869233+803566785
1578+809379843+814520810+815983465+815002377+816173989+821276686+827729826
1568+831542556+832434170+832824609+834622482+839800952+850827384+866507191
1558+875271073+870393037+861305630+854644957+851419686+850802579+851400551
1548+852547654+854999311+859778896+867036301+875644975+881099841+876320787
1538+864388922+855368488+851932141+851013065+849148218+846611044+846290885
1528+849468082+854471973+858762313+862029575+865118714+867236924+867733079
1518+868163264+869266309+870326359+871873291+875573337+881972733+890144076
1508+897639666+899315228+893487819+887190004+885108234+886946150+891591080
1498+897575291+901384714+900325314+897575055+898495549+904648728+912249206
1488+915588461+913716586+910295653+908619323+909653800+912511074+916245551
1478+921212766+927780835+934466431+938770886+939530562+937264114+933633758
1468+931191610+931596636+933893086+935149980+934692391+935092102+937976602
1458+941537505+940923173+934476943+926844573+921526547+918343681+915915293
1448+914060073+913534802+913653157+912791073+911042454+910118122+910964083
1438+912669943+913112235+911269359+909464811+910727433+915129454+919491315
1428+920999386+920669719+920935957+922174188+923335288+924231212+924997621
1418+924190226+920881327+917422774+916669713+918589425+920674857+921211585
1408+920908081+920995843+921373348+921557494+922416330+924976832+928038096
1398+928971878+927129001+924237591+921901690+920981432+921881610+923903553
1388+925244960+924311946+921525543+919244389+919399301+922188834+926615188
1378+931353195+935267743+938083440+941149960+945991557+951339821+953969304
1368+953200829+952279745+954375098+959385663+964583504+967527890+968343258
1358+968270380+967585000+966263496+965576935+967066521+970246198+973270727
1348+975636630+978230501+981208492+984147681+987977006+994538283+1003370319
1338+1010500038+1012516903+1010633512+1008610033+1008894579+1011672950
1330+1015601436+1018757666+1020115905+1020806777+1023020781+1027512571
1321+1032546405+1035878750+1037468263+1039636201+1044208430+1050300010
1312+1055574569+1058962665+1060856569+1061146312+1059903593+1059770592
1304+1063709590+1070187299+1073741823+1071820516+1068573453+1068985566
1295+1071629873+1071025109+1066408350+1061712570+1058736823+1055602445
1287+1050065310+1042294682+1034248722+1027814481+1024145618+1023431477
1278+1024121640+1023323281+1019616266+1014468921+1010033591+1007544963
1270+1007584769+1009258973+1009434850+1005597906+999568692+995345265+993974034
1260+993393129+991950436+989527010+985958370+980748481+974506064+968824058
1250+964239781+959303158+952002522+941884949+930654645+920453918+911549239
1240+902809572+894444751+887887786+882767844+876567123+867994828+858776487
1230+851396240+846547497+843186390+840109358+836896903+833689528+830929347
1220+829315205+829155274+829725134+829933494+829501595+828897658+828631007
1210+829258804+831289370+834765464+839317141+844347077+849178575+853421254
1200+856934556+859288293+860269085+861043231+863162090+866394152+869264656
1190+871582012+874483462+878088600+881114783+883033669+885149398+889123477
1180+895437474+903477352+911884694+918592969+922121035+923549790+925928686
1170+931039828+937928705+945073544+952631736+960940037+967695677+969258968
1160+965287428+959780000+957015449+958008880+960603991+962948397+966260661
1150+972574304+980793130+986923040+988097959+984928559+980737024+978817075
1140+979362898+979921478+979358528+978852865+979654650+981597572+983368220
1130+983795335+983681115+985677604+990831623+997272714+1003957838+1012148139
1120+1020714645+1024884446+1022972707+1019357588+1018027815+1017732166
1111+1015827986+1013367352+1012210977+1011915682+1012515604+1015204323
1103+1018893384+1019718911+1016415978+1013014416+1013393929+1016796081
1094+1020502623+1023625545+1027360908+1032772483+1037126312+1033982602
1085+1021743925+1008520972+1002491639+1003441898+1006048054+1006838381
1077+1005835796+1004557168+1003431268+1001199310+996743191+989501260+980346408
1067+972867472+970070143+972019562+976869369+982590413+987197251+988485800
1057+985965044+981459374+977382355+974634222+972497232+970119103+967559546
1047+965262978+963022811+960630863+959261462+960444945+963818513+967554348
1037+970992468+975082893+979360300+980924772+978375786+974192638+971416511
1027+970283583+969171443+967878523+967907757+968997632+968078969+963450221
1017+957848594+955543699+957905527+962616131+966461226+967823185+966665688
1007+963837471+960250110+955610317+948968720+940909353+932977436+925337801
997+917348714+909935688+904965697+902149233+898831771+893247862+886276952
987+880002230+875881389+873904566+872603496+870373311+867105104+863921411
977+861555508+859717356+857813590+855667327+853559216+851669506+849480307
967+846605788+843768948+841611051+839260503+835599495+831378608+828552931
957+827952419+828919038+830911275+834017187+837911478+841713932+845137936
947+848771776+853066133+857883870+862978830+868155291+873123334+877717237
937+881941491+885694926+889120820+893041864+898399696+905350112+913009768
927+919899413+924954744+928216631+929731790+928608310+924968328+921553064
917+921231783+923555755+925350971+924412228+921163629+917456497+914964443
907+914447854+916118279+919300259+921685888+921331534+919023981+917113600
897+916790016+917655171+919281478+922028962+926213468+930796859+933683663
887+934155721+933965847+935285874+938386767+941669442+943565059+943624059
877+942837216+942275860+941020916+937947958+935054245+935823075+940927425
867+947221283+950625679+949713395+946668609+945186996+947514511+952943863
857+958693846+962378478+964007620+965156731+966898498+969917417+974761967
847+979527496+979805605+973807337+964816492+957033344+952983314+954040765
837+960130515+969067263+977435213+983272722+986121550+984849774+979885275
827+975977578+978042339+985556356+993857451+1000658448+1007555357+1014871939
817+1019648512+1020144135+1016671349+1010470981+1005011568+1003869013
808+1007670168+1012504382+1011749254+1004039221+996070864+994496469+1000274210
798+1008361394+1011826503+1008959307+1004258330+1002055548+1002595465
790+1003698096+1003428079+1000433197+993256703+981553987+969135358+962588314
780+964991070+971807895+974248272+969270898+962378950+958401327+956929104
770+957071673+959953338+964500999+966421656+964298072+961796333+961483911
760+961658785+960633816+959569159+960003066+962981883+969160281+976750424
750+981425770+981176541+979510073+981128880+986514233+991888188+993617672
740+991495682+987493254+983191634+979228716+976962446+977371606+978701260
730+978632988+976985301+975144196+974785945+976351303+977340896+974565241
720+969405848+966158784+966733665+970890000+977003728+981831328+984218551
710+985757983+986412888+983268351+976844918+972493216+973626499+979300060
700+986115526+989893234+986922390+977614162+968749880+967207318+972724845
690+977295420+973203164+963042537+955796707+955965144+961866377+969102934
680+971636742+965837504+956198781+950106787+948985139+947653713+940662959
670+928641856+921244599+929578413+946943647+958895474+961908250+961414044
660+962493465+962928021+959557820+954873202+953002981+953506104+950348161
650+942199733+937770722+942156266+947165177+942180185+930048641+922430209
640+923265775+925150997+924432367+927478335+938669718+951937675+955101878
630+945016906+928022859+909811960+893974228+884252941+882752134+885430932
620+884973048+878574360+870641498+867263028+867371992+867653349+872165338
610+884980607+900273638+907176571+903970140+898582011+898850257+907553780
600+916866438
##END=
