##TITLE=<SNM>
##JCAMP-DX=4.24
##DATA TYPE=INFRARED SPECTRUM
##DATE=29/4/2025
##SAMPLING PROCEDURE=Instrument type and / or accessory
##ORIGIN=Admin
##XUNITS=1/CM
##YUNITS=ABSORBANCE
##RESOLUTION=4
##FIRSTX=4497.3318
##LASTX=599.83466
##DELTAX=-1.4281778
##MAXY=2.2683728
##MINY=0.69320142
##XFACTOR=1
##YFACTOR=2.1125868e-09
##NPOINTS=2730
##FIRSTY=0.69732702
##XYDATA=(X++(Y..Y))
4497+330082071+330577341+333804634+338107870+341009658+341518329+340010259
4487+337307268+334917678+334525447+336364298+338772170+339684641+338635868
4477+337212779+337277897+338911999+340680371+341550211+341403498+340317539
4467+338903224+338490904+339207287+339169198+337217632+334684574+333333092
4457+333477238+334491844+335519738+335616512+334647924+333862529+334371398
4447+335549053+335891289+335057141+334093602+333965793+334782279+336094995
4437+337288082+337641379+336815299+335394778+334320359+333898163+333746880
4427+333765642+334674248+337054555+339894497+340823925+338607767+334863733
4417+332331804+332214151+333739488+335450670+336365003+336427920+336272122
4407+336350953+336410146+335940720+334971088+334280887+334664768+335737353
4397+335844764+333957498+331262322+329957732+330704699+331995746+332343625
4387+332376128+333570288+335435547+335767486+333944576+331928117+331368717
4377+331537606+330854346+329296507+328271716+328588475+329510878+329845412
4367+329553622+329834916+331461428+333657413+335189634+335968483+336442281
4357+336025927+334045159+331855296+331751074+333931992+336135820+336446655
4347+335463818+334873326+334940758+334773617+334366065+334661015+335528033
4337+335464551+333682128+330995727+328776776+328129207+329458456+331874341
4327+333554516+333449560+332205743+331164447+331180924+332344641+334091148
4317+335652626+336654564+337176806+337276317+336986841+336827883+337366461
4307+338065352+337555552+335426914+332916286+331509731+331562604+332368510
4297+332865585+332265106+330767729+329787065+330665820+332934597+334575414
4287+334379608+333287583+332736619+332821289+332858616+332563300+331831653
4277+330496677+329059453+328682964+329939957+332185937+334274454+335483286
4267+335862398+335969781+336112600+335838698+334452344+332070767+329793526
4257+328744894+329366732+331431324+334041519+335770166+335712384+334532020
4247+333741293+334007549+334791505+335456736+335968680+336307672+335995653
4237+334889521+333976711+334484959+336377869+338358298+339117143+338117237
4227+335814688+333683398+333136271+334075856+335403242+336715027+338131542
4217+339078067+338946505+338355787+338388685+339141492+339809347+339720247
4207+338822786+337599566+336761382+336600873+336712516+336590292+336148742
4197+335488844+334702631+333935152+333270203+332808847+332871172+333615543
4187+334459990+334599565+334147801+333903919+334000101+333811941+333380774
4177+333683454+334924534+335684734+334786370+333176448+332726885+333856773
4167+335408236+336370477+336730883+336883578+337056671+337373938+337818620
4157+337889634+337067251+335874643+335577126+336550003+337819720+338463988
4147+338483540+338013579+336832482+334980737+333076006+331885062+331799630
4137+332618205+333819672+335092436+336317547+337003544+336523030+335174596
4127+334231851+334504399+335247416+334926594+333198934+331610173+331784282
4117+333488749+335151037+335882486+336059925+336018140+335363376+333787254
4107+331800335+330474246+330547688+331727317+333086163+334100289+334695888
4097+334569432+333645309+332871144+333199414+334242996+334979439+335176683
4087+335242648+335329717+335322071+335213080+335264457+335795333+336460790
4077+336237842+334849062+333340823+332521346+332023424+331544688+331724581
4067+333077727+334900609+335702170+334630205+332315552+330301492+329909627
4057+331436148+333848704+335323566+334725682+332739807+331128474+330988561
4047+332132612+333769677+335212402+336107268+336528532+336858834+337177145
4037+336974201+335979740+334803553+334142187+333962125+333973185+334248046
4027+335001418+336237081+337653567+338617867+338626191+337937147+337140862
4017+336423745+335975480+336265887+337090161+337254367+336090480+334433779
4007+333467984+333545036+334398088+335506252+336080859+335699151+334977774
3997+334870476+335407418+335681743+335259266+335048366+336181922+338338548
3987+339862361+339715705+338489635+337173392+336013512+334885655+333889502
3977+333232932+333027478+333355269+334226970+335491750+336841285+337752119
3967+337658759+336571756+335259238+334540174+334643015+335216804+335616230
3957+335283022+334259191+333291843+333300900+334831908+337582891+340047558
3947+340524658+339168634+337833883+337659916+338081744+338282035+338287594
3937+338382167+338836301+340268700+342970901+345695589+346505530+345288799
3927+343798166+343238399+343236029+343055600+342911849+343613815+345199727
3917+346187022+344818358+341368061+337983813+336249692+336135510+337232585
3907+339850286+344229643+349233830+352840884+354154474+353516865+351125385
3897+347483627+344269679+343082968+343785977+344561356+344167996+343921010
3887+345497160+348007252+349121340+348691048+348323757+347748444+345589815
3878+342846647+341884322+343574626+347294790+352143094+356473613+357757184
3868+355768742+353141561+351535194+350243554+348127274+345365175+343000159
3858+342229323+344602323+351356091+359299533+360578731+354754869+347735748
3848+343135051+341597752+342281519+344282234+347528205+352123626+356839296
3838+359181740+358182228+355695470+353463173+351386816+349069793+347160520
3828+346273780+346076197+346726334+349501384+353980478+356603567+356261105
3818+356368601+357795329+356869541+352053148+346649027+343986749+344990859
3808+348252940+351116695+352857389+355046970+357757268+358548560+356638891
3798+353904582+351274158+348612923+346529202+345943196+346858375+348780768
3788+351648163+355211429+358243086+360082925+362013105+365129009+368133750
3778+369266375+369259462+370126904+372917584+377511087+382760115+387097546
3768+390321821+393204056+395388163+396359036+397539569+400687722+404645336
3758+406293799+405678591+406392407+411003035+418191300+423747494+426050382
3748+428262985+432924258+438408929+440373248+438795857+438150573+441050216
3738+447435537+455356606+461599671+464353025+464836614+464954718+465418416
3728+466443348+468298309+470562290+471933239+470992018+467375738+462967997
3718+461034318+463345614+468840076+474673247+477663881+476280264+472251804
3708+468404563+466315002+466486544+468543010+470883563+471838045+471933352
3698+473007320+475606625+478917996+482568839+487276749+493013400+497143318
3688+496679761+492422316+487353153+483654177+482800307+485417443+490843344
3678+497465297+501829729+499995025+494410673+491185299+491504174+491086663
3668+487156783+482784225+481464766+482772770+483399291+481404049+478588851
3658+477708290+479125539+481444565+484459688+489295747+495707279+500275473
3648+499574749+494818084+489398164+485363780+483283049+482783886+482931107
3638+482918298+482608902+482378676+482811310+484584959+487771624+490527742
3628+490086982+486786050+483478460+481706673+481371716+482269544+484711978
3618+488531372+492421865+494862155+495337562+494858826+495054857+496206442
3608+496624123+495053728+492664054+491431890+491838059+492822166+493681904
3598+495298175+498538108+502220663+504407309+505387353+507202363+510378024
3588+512627193+511473745+507757898+504086685+501786223+501182217+502531977
3578+505509519+508210451+508502975+506938279+506331395+508651324+513657852
3568+519117103+521683679+519664964+514747253+509836371+506689826+505535646
3558+505732072+506503049+507369672+507963240+507714448+506411410+505013347
3548+505098441+507091538+509353854+509915709+508915238+508058942+508237085
3538+508668478+508124737+506293080+504161621+503392619+504917363+507801404
3528+509879538+509925132+508425386+506247712+504060107+502589421+501751746
3518+500362260+498230293+497247541+498889712+502077900+504548379+505169822
3508+504364085+503260069+502603415+502073329+501129964+500441823+501045773
3498+502160398+501744241+499658545+498106941+498388968+499508954+500356053
3488+501096502+501908108+502385264+502579320+503021942+503481154+503041862
3478+501542623+499858131+498841748+498503856+498142152+497163406+495611238
3468+493874268+492348339+491378339+490897798+490371775+489731428+489712412
3458+490551498+491167073+490590095+489568408+489711735+491243984+492534157
3448+492150671+490482374+488652128+487032415+485733666+485288843+485961861
3438+487091270+487522550+486373504+483597918+480377058+478488014+478636702
3428+479901143+480984958+481482597+481758136+481972337+481632696+480231247
3418+478104810+476256000+475313086+475102722+475354053+476224287+477782832
3408+479465179+480328417+479805272+478344009+477291343+477799026+479734059
3398+481847462+483023367+482913445+481532028+479102177+476482051+474916791
3388+474838638+475538855+476492038+478025021+480037078+481218852+480659029
3378+479368462+478977753+479670860+480541038+481330636+482437812+483375817
3368+483029010+481736862+481218232+482167409+483600683+484646917+485368463
3358+485865708+486049438+486308781+487507540+489951950+492587255+493639809
3348+492379261+490051150+488657601+488947303+489857376+489914820+488944764
3338+487971548+487723942+488011048+488539949+489608754+491590453+494049759
3328+495700846+495396868+493272180+490703911+488875019+487770382+486566263
3318+484854234+483338518+482807981+482742524+482023404+480911150+480926611
3308+482691908+485132086+486723866+486808339+485790150+484657412+484347791
3298+485155447+486663714+488280492+489630084+490418836+490382778+489816014
3288+489794684+491187387+493515272+495115630+494735756+492929040+491366151
3278+491042592+491787161+493065314+494451979+495558139+496074908+495838587
3268+494899792+493590378+492305341+491371342+491091628+491405199+491621206
3258+491201099+490678292+490945874+491773901+491952552+490958289+489615074
3248+488996734+489290161+489850492+490140081+490258636+490524243+490935887
3238+491050549+490313710+488711829+486847670+485209110+483925201+483177698
3228+483043794+483110097+482993573+482781573+482471500+481896046+481529997
3218+482245167+483892642+485087225+484819417+483524618+482060421+480573992
3208+479007717+477877518+477806531+478628407+479448589+479488710+478668076
3198+477475073+476393402+475553075+474968931+474798687+475141601+475719820
3188+475953376+475412343+474200380+472741713+471203257+469515689+467961151
3178+467152678+467269286+467693287+467559327+466527510+464971759+463429522
3168+462076517+460887154+459877231+458958892+458005088+457202877+456859033
3158+456933377+457316834+458187604+459339246+459717540+458608389+456741041
3148+455282826+454387509+453547154+452792061+452701183+453458449+454514529
3138+455056916+454581707+453344351+452212459+451731523+451490208+450722249
3128+449372799+448217349+447999960+448681611+449542309+449856473+449364843
3118+448294627+447198991+446619982+446602771+446715656+446704088+446681319
3108+446538105+445752653+444122614+442265283+441061982+440917780+441684666
3098+442916464+443969610+444178507+443315467+441835132+440486105+439651646
3088+439075486+438370135+437810396+438122754+439294964+440283161+440328388
3078+439852360+439486114+439052125+438140755+436994164+436316518+436524258
3068+437405271+438392734+438921353+438480593+436841667+434706793+433502730
3058+433800897+434489037+434227267+433175588+432471930+432607922+433112332
3048+433426129+433443989+433283761+432993156+432601997+432208128+431830004
3038+431321389+430659713+430101893+429761885+429364462+428768383+428335693
3028+428395676+428759947+429015962+428840047+428012895+426663050+425364922
3018+424601703+424382339+424489468+424695938+424795844+424775981+424727679
3008+424466755+423706471+422605474+421672858+421256814+421338239+421565842
2998+421562852+421422317+421502361+421589852+420992956+419683626+418502050
2988+418005341+417864722+417589099+417264045+417230273+417386720+417301287
2978+416948330+416810053+417052524+417113749+416456954+415305905+414225842
2968+413468323+413185308+413582449+414279872+414297365+413326378+412206506
2958+411713888+411819973+412310644+413151084+414061411+414498108+414170120
2948+413209374+412015863+411106722+410824807+411047698+411309694+411212242
2938+410739177+410248140+410067203+410133619+410210051+410245516+410213465
2928+409903026+409225521+408430788+407792473+407299517+406737775+405934662
2918+404957666+404185475+404035715+404526724+405264268+405866751+406197476
2908+406228709+405965020+405520818+405042703+404570456+404161267+404005385
2898+404156668+404312241+404171932+403888071+403833166+403984281+403849502
2888+403117714+402134736+401505591+401390449+401456583+401402327+401185051
2878+400805600+400269900+399738883+399443933+399519886+399973229+400624438
2868+401094484+401043191+400438592+399595161+399002694+398929958+399066740
2858+398859253+398321042+398045080+398291953+398648184+398739287+398677978
2848+398580075+398212700+397476059+396808120+396691144+396958980+396979012
2838+396521493+396065469+396039823+396132873+395744168+394912107+394344750
2828+394565159+395333061+395968385+396083018+395815859+395409859+394913856
2818+394409925+394112097+394025170+393886582+393550271+393041599+392337433
2808+391533586+391020231+391094519+391634423+392327445+392866080+392926599
2798+392455988+391934085+391845916+392016893+391921896+391441467+390889121
2788+390477760+390184080+389991462+389870650+389654248+389257953+388882932
2778+388717795+388608127+388288659+387786816+387326645+386993606+386745266
2768+386550053+386293389+385823428+385305277+385184013+385577175+385984953
2758+385810393+385029371+384180975+383765523+383795486+383931224+383920644
2748+383803527+383733528+383723117+383609922+383252337+382699793+382121800
2738+381641879+381317361+381143336+380968550+380563481+379867722+379074315
2728+378481227+378342245+378715235+379302200+379586146+379310749+378768616
2718+378468813+378541662+378607739+378265446+377540909+376766264+376223736
2708+376020538+376085205+376186296+376141210+376049119+376138614+376384048
2698+376493265+376308265+375999321+375782101+375629971+375393537+375071050
2688+374798841+374659125+374603177+374494948+374231852+373904484+373726679
2678+373719795+373669574+373470382+373216823+372936826+372608584+372400675
2668+372500863+372766470+372865812+372675705+372352175+372141754+372177247
2658+372348958+372424600+372296283+371974896+371477087+370922399+370552654
2648+370489708+370644998+370871585+371005743+370869074+370483670+370166939
2638+370180821+370401821+370507850+370362547+370049484+369669243+369305254
2628+369083661+369095877+369317499+369644302+369907963+369925117+369700194
2618+369467146+369401351+369461221+369561240+369667635+369714076+369626414
2608+369393761+369024863+368576259+368232725+368158127+368269967+368335537
2598+368285908+368291805+368509081+368847086+369049324+368998257+368870842
2588+368923348+369154224+369292501+369158738+368907125+368779626+368741509
2578+368573804+368254308+368004388+367970673+368051308+368061494+367966835
2568+367904087+368007125+368276428+368594344+368801859+368834897+368828944
2558+368902301+368865058+368485918+367965763+367698097+367681478+367603184
2548+367362575+367159716+367183275+367429329+367780651+368179682+368624872
2538+368959265+368908000+368462472+367957581+367642402+367415871+367093808
2528+366782240+366809043+367232790+367610859+367518796+367179155+367192106
2518+367689886+368162895+368183773+367924627+367778986+367832593+367978911
2508+368261475+368756519+369276363+369477077+369218185+368695266+368229762
2498+367964945+367815298+367699366+367647255+367619661+367457318+367125097
2488+366853734+366959452+367541847+368347387+368953932+369093423+368779457
2478+368247988+367822492+367684949+367778168+368019003+368406805+368797965
2468+368877106+368508574+367938593+367590573+367692397+368070522+368356274
2458+368392078+368269544+368078253+367888400+367784742+367690987+367430994
2448+367085061+366962528+367176419+367513041+367709918+367708084+367647255
2438+367636195+367572459+367325332+367042063+367054026+367489538+368140070
2428+368680228+368902329+368790093+368494636+368246324+368232358+368518674
2418+369046108+369663121+370176448+370440136+370455090+370378996+370416126
2408+370686953+371160836+371659181+371978620+372060159+371999217+371906308
2398+371863676+371995239+372446635+373322456+374782223+377183606+380980118
2388+386468853+393757362+402985672+414438576+428346329+444631258+462858978
2378+482343521+502324491+522271378+542030473+561248873+578554699+592140219
2368+601598304+608319626+613823851+618099578+619465251+616351322+609288836
2358+600035133+588835732+574257585+555687600+535555290+518563317+508507489
2348+506915990+513614797+526357564+539991330+549217101+553141902+554516435
2338+555776023+557534549+559649587+562076786+564611989+566778377+568045527
2328+567970703+566403017+563432359+559259613+554271819+548845860+543089798
2318+537194527+531687820+526888044+522515317+517967944+512563090+505770725
2308+497803357+489633582+482062735+475133080+468538072+462195411+456196115
2298+450470890+444878695+439553348+434796373+430612482+426679499+422805173
2288+419128317+415862991+413081819+410742450+408784395+407187648+405921853
2278+404847320+403787403+402723197+401810782+401195660+400849755+400553028
2268+400065122+399386856+398761266+398332215+397933014+397334001+396590871
2258+395993044+395712370+395628490+395532901+395393721+395282896+395113640
2248+394684222+394013828+393392695+393030624+392902109+392981503+393315050
2238+393760889+393975908+393800699+393442013+393210884+393252951+393528715
2228+393896429+394164462+394135233+393719160+393069785+392518652+392288369
2218+392322733+392401902+392312887+391938571+391323928+390664424+390152931
2208+389849292+389720607+389751220+389953458+390254389+390441730+390359910
2198+390167462+390220024+390612933+391023617+391135571+391025874+390987729
2188+391166803+391520156+391971694+392481071+393039483+393602580+393981381
2178+393976924+393747120+393763936+394206473+394675983+394747675+394561857
2168+394596589+395039578+395665168+396216358+396652858+397034453+397370934
2158+397646726+397859827+397986367+398018418+398061416+398281994+398711271
2148+399160382+399382596+399305092+399094361+398995753+399126694+399461567
2138+399930936+400383349+400540896+400237990+399675317+399268442+399322500
2128+399915503+400885841+401859311+402497823+402774603+402886725+402982681
2118+403116049+403360750+403805121+404437596+405128022+405770089+406382616
2108+406992238+407516116+407893112+408221439+408612007+409006185+409275771
2098+409417687+409546626+409773946+410167871+410745074+411402038+411927215
2088+412184809+412219738+412147990+412084226+412181565+412561664+413174671
2078+413828842+414339968+414626990+414728786+414741736+414741511+414819353
2068+415139950+415824761+416777437+417681218+418201429+418288864+418297723
2058+418627800+419245405+419766378+419989551+420113693+420442105+421076074
2048+421903282+422750917+423507618+424159476+424763116+425368477+425954370
2038+426485302+427032598+427760239+428769568+429986243+431174422+432086582
2028+432725631+433469551+434758820+436577752+438388389+439689057+440511102
2018+441239025+442142242+443255766+444497241+445726330+446901078+448257864
2008+450055664+452092606+453812620+454958505+455821799+456811238+458076949
1998+459611088+461448585+463636218+466087766+468489375+470366372+471425979
1988+471873454+472237669+472896298+473874056+475022312+476221014+477427447
1978+478678684+480059085+481597993+483262284+485073118+487112769+489374916
1968+491702180+493912300+495944785+497885686+499872181+501911494+503791509
1958+505310102+506603604+508090146+510107282+512716970+515723516+518723235
1948+521315599+523503655+525754855+528396650+531052439+533087519+534587886
1938+536284849+538567648+541124181+543506406+545617382+547595865+549554033
1928+551617271+554089499+557197278+560576306+563548883+566143673+568980145
1918+571912997+573935437+574719336+574986523+575378078+576076376+577229823
1908+578975427+581188481+583546555+585679933+587247788+588182520+588911289
1898+590064172+591755097+593357881+594439608+595534370+597133881+598493347
1888+598648073+598063647+597911291+598526696+599476156+600319530+600813671
1878+600946221+600992887+601225315+601774417+602964260+605190180+607994544
1868+609795165+609628194+608500422+607879600+608030884+608252928+607913739
1858+606933865+605713494+604791289+604286314+603867730+603479618+603588637
1848+604553783+606128861+607348386+606849279+604331287+601210756+598931568
1838+597711592+596811451+595623639+594620799+594827438+596128502+596774152
1828+595638818+593702995+591975392+590073708+587572081+585118981+583597905
1818+583097783+582945652+582599579+582275964+582339107+582350505+581440884
1808+579619779+577979978+577701731+579174956+581585283+583250703+583076622
1798+581770368+581092892+582313770+585256158+587858171+587773755+585552518
1788+583720862+583487701+584258848+585273199+586608796+588289113+589592997
1778+590113377+590761454+593014008+597266657+601614838+603299838+602257611
1768+600462350+599206204+599118740+600632537+603114189+604932529+605682797
1758+606432670+607522072+608726191+610952337+615353899+620880525+624402768
1748+624655735+623604197+623203332+623731838+624742296+625981852+627279022
1738+628806982+631615917+636366657+640849306+641452918+638705264+635495237
1728+633441141+633098623+634224251+635975949+638144255+641797468+647975444
1718+655713770+661437725+662493156+660120072+656789797+654192298+653412180
1708+654984380+658380506+662047431+665217336+668873935+673487159+677017358
1698+677531531+675428455+671433401+667280122+665628584+667180019+670353705
1688+673837069+678472075+684723407+688837920+687141126+682547144+679222117
1678+679101869+682471756+687549891+691573611+694210723+696748182+698480638
1668+697672023+695459307+694409237+694973913+695344589+694315058+693412490
1658+694910826+700018925+709109776+719802848+724230028+721011199+717861608
1648+717557009+717702593+715934644+713461625+712259650+713140324+716850642
1638+723954208+732739952+737732881+735838702+731734065+730411277+732867254
1628+737372813+741761792+745519058+749149361+752446004+755321750+759241473
1618+765562268+772417156+775636831+775383074+775441928+777536201+780652106
1608+783168800+784658953+785943596+787574030+788693168+788250659+786819586
1598+785846426+785893036+786829630+788752079+791516323+794237174+796208998
1588+797575349+798624686+799310118+799828354+800879836+803027659+806336039
1578+810640150+815035618+817313170+817029280+817152688+820168827+825233251
1568+829155118+830748478+831431710+832897035+837228457+846780214+859951777
1558+866485984+862642439+857213716+854524747+854419960+856496627+860028124
1548+863612607+866409072+868565924+870884837+874272838+876395776+871294562
1538+861467323+855944817+857057466+860776135+861578374+858609917+855186253
1528+853544760+854403201+858349388+865130411+872207512+876148226+877225270
1518+878201645+878914953+877591544+875457997+876448819+883375595+895495790
1508+906987320+908019446+898539354+890522950+888630182+891069061+896340293
1498+903317968+909163188+911341990+911122993+910853379+910455109+909234682
1488+908726321+910367589+912940486+914854358+916030376+917253117+919722581
1478+924381681+930152076+933892132+933402279+929485717+924834460+922204064
1468+922918951+925843677+927650675+926293973+924028385+923620184+925327980
1458+927992347+929662280+928889667+926190371+922777881+919714681+917243919
1448+914882177+913074841+913038501+914681914+916903206+919415160+922712312
1438+926562571+929344703+929569738+927796936+925506858+923356664+921109471
1428+918811267+917596426+918553616+921530820+925858461+931198141+935998086
1418+936886264+933302684+928529655+924989073+923047212+922109716+921509998
1408+921341108+922198252+923491979+923410610+921728770+920368231+920506593
1398+921538550+922910374+924747109+926601676+926905654+924360803+919826465
1388+916061525+915669914+919186852+925091716+930949067+934836851+936677819
1378+937376794+937786462+939589622+944674190+951918601+957343713+958905869
1368+958323305+957792316+957184021+956297987+956910684+960604807+966313075
1358+971469250+974823563+976550263+976861972+976112043+975143398+974352840
1348+973486894+973111985+974893421+979718025+986866903+994843694+1001832429
1338+1005702495+1005545512+1003419752+1002519385+1003696362+1005537160
1330+1007378297+1009797934+1012472627+1013975759+1014147639+1014377076
1321+1015336580+1017063054+1020515101+1026464091+1033617370+1039264809
1312+1041781729+1041686817+1040246320+1038624350+1038257003+1040322610
1304+1045860353+1055374697+1066584481+1073741823+1072289025+1064214839
1295+1055203382+1048796985+1044939897+1042412369+1041061706+1040846489
1287+1041135965+1042129777+1043953872+1043848916+1038487455+1029945029
1278+1024319484+1024529961+1027769273+1028883616+1025628504+1020228897
1270+1015362311+1011733080+1009940810+1010601358+1011825735+1010509606
1261+1007002147+1004691303+1004613319+1004494933+1002713949+999450260+995714605
1251+992697507+990004080+985946673+980561399+975527334+970802157+964559966
1241+956433753+948037588+941328850+937316190+934875956+931579313+925783638
1231+917662560+908778856+900688531+893735064+887201591+880511530+873867345
1221+868030590+863935151+862214488+862626808+863786575+863764399+861777791
1211+859505939+859413284+861483405+863157910+863078177+862936260+864695350
1201+867813624+870059689+870205668+869288712+869642064+872754301+877997093
1191+883273178+886649498+888110084+889978024+894521502+901287459+907339826
1181+910092559+909683624+908046024+906957582+907561758+911353783+920006076
1171+932115267+942463788+947697214+950201494+953596660+958758253+965162844
1161+971952162+977946408+981585908+982246117+980697617+978380904+977015682
1151+977989857+981098708+984176185+985287480+984636187+984224261+985190085
1141+987636131+992324179+998478793+1002422667+1001794171+998545943+995896868
1131+995983993+1000092524+1007173350+1013189941+1015023742+1013738423
1123+1012046482+1011421033+1012441140+1013979709+1013242307+1009877385
1114+1006972127+1006666513+1008569833+1011941413+1016949295+1024049306
1105+1032483165+1039148454+1040184926+1035590210+1031077654+1029904288
1097+1027194384+1019634709+1011435027+1009056808+1013206531+1019162293
1088+1024127629+1028391224+1030385168+1027339630+1020301464+1014109832
1080+1014003183+1021133440+1030923605+1036328403+1034785094+1030140383
1071+1026017745+1022275996+1015982907+1005255020+992837787+985139300+987273185
1061+998282536+1010671103+1016602037+1015557891+1012161370+1008517468
1053+1004614899+1001386082+998756307+996181943+994598683+993928656+993644032
1043+994418565+996162983+998158846+999128506+999255695+1000821237+1003654831
1033+1003900294+998183561+987849203+977994485+973731340+976781280+983690903
1023+988465737+988304014+985331945+982721355+981437051+980690733+979728633
1013+979044950+979790704+981524402+982407389+982612787+984130703+986463667
1003+985860225+980457572+972958840+966291293+960331695+953900018+946648046
993+938867173+930942239+924056260+919227706+915609366+912138304+909157093
983+907149212+906126621+906305555+906684921+904355399+898308450+891754550
973+887871844+886095261+884468100+882667987+880911662+879238568+878296049
963+878101090+876892118+873374671+869371040+867771811+869090310+871462097
953+872953266+872996716+872367373+872643307+874681321+877170704+877970572
943+877491046+878921104+884091894+890804300+895547027+898076248+900790328
933+904689115+909263065+915008463+923073057+932420035+939122115+940413868
923+938117582+936764549+939020488+943530110+947258993+949062436+949823651
913+949492305+946735114+942370738+939946756+941687225+945046729+944316888
903+937262583+928540828+924037639+924719460+927605758+930706483+934766881
893+940252822+945839092+949948244+951943655+952361788+952087660+951915667
883+952985318+955764629+958478370+958995138+958437741+960177871+965341721
873+971332920+974805619+974548532+970779360+964029203+956635653+952837589
863+954720257+959429296+963182894+967140085+974685991+984111518+989054846
853+986807879+981251177+977145806+975603174+974356677+971701170+970017580
843+972468705+977387769+980762509+982708602+986930215+994442151+1001069295
833+1002025074+996005436+986149589+978263195+976947630+982062049+988302547
823+991610137+993968042+997742181+1000594396+998445049+992721884+989908152
813+993753728+1002150119+1009910904+1012824964+1009450789+1003060643+1000885904
803+1006982961+1016291682+1019870014+1017494842+1017119144+1021848046
794+1025252918+1021738236+1014907839+1010514572+1008719142+1005933963+999776414
784+990819692+982401633+978761004+981083924+985595352+986426876+980880331
774+971055632+961682584+957619534+960051021+965841336+971539108+975019707
764+975768734+976157749+977597343+978025633+974947818+969747290+966898911
754+968213574+971811317+976301077+981057177+983556717+982361118+981172065
744+984345469+990770374+994635587+991861017+985349212+982603646+988136987
734+997875802+1001015801+992916448+981960478+976868744+978720263+984104634
724+989336649+993401617+996626145+996436321+990824658+983532565+979785400
714+980547292+983085993+986028720+990658985+995955666+997263219+992314812
704+982084169+973747930+976640323+988964223+997882799+995899238+991021366
694+991571653+995061619+993677776+986355664+980368077+977827796+973816095
684+966856365+962335118+963677205+967178118+967399203+965936586+968873218
674+976038235+978263647+967575710+947614265+934480451+943313257+965184400
664+979481704+979487572+971873275+967531358+973107697+985580229+993280748
654+989064552+976992773+966071337+962339181+960098308+949381593+932068319
644+920207016+918661112+920237318+917908135+913844182+912307475+913694422
634+915093388+914797704+914996388+917145509+917763284+912032049+900143492
624+888215661+882468344+884132409+888262101+889700679+888591754+886963690
614+883566605+876412423+868620038+866988081+873930375+884478257+895977574
604+914097996+937553132+947590790+932610649
##END=
