##TITLE=<SNM>
##JCAMP-DX=4.24
##DATA TYPE=INFRARED SPECTRUM
##DATE=29/4/2025
##SAMPLING PROCEDURE=Instrument type and / or accessory
##ORIGIN=Admin
##XUNITS=1/CM
##YUNITS=ABSORBANCE
##RESOLUTION=4
##FIRSTX=4497.3318
##LASTX=599.83466
##DELTAX=-1.4281778
##MAXY=2.2522752
##MINY=0.67535865
##XFACTOR=1
##YFACTOR=2.0975948e-09
##NPOINTS=2730
##FIRSTY=0.68198001
##XYDATA=(X++(Y..Y))
4497+325124769+323585234+323556932+324113283+324525311+324523748+324264114
4487+324469105+325672993+327260238+327960941+327371969+326433199+326333005
4477+327420133+329062021+330331152+330723317+330442798+330067170+329894403
4467+329841322+329882354+330141989+330352833+329852433+328567758+327379328
4457+327146433+327908514+329132634+330157078+330500368+330205271+329726068
4447+329303725+328638400+327410443+326033191+325524749+326495429+328330885
4437+329890538+330779637+331140204+330845448+329909605+328960464+328484444
4427+328548180+329426595+331236477+333120012+333708274+332279816+329345070
4417+326379948+324774489+324878462+326226787+328236346+330191972+331257817
4407+331039726+329771164+328089494+326901319+326963777+328218359+329732234
4397+330419156+329779205+328247457+326857303+326235255+326099740+325915067
4387+325631137+325615423+325996876+326313654+326088033+325678648+326186323
4377+328226003+331017789+333016323+333058407+331070614+328347508+326755660
4367+327020409+328108390+328581853+328165932+327650386+327703012+328278344
4357+328915510+329187647+328830263+327791612+326498697+325778444+326110141
4347+327209999+328283914+328321139+326739549+324332027+322686957+322335085
4337+322519645+322657092+322770698+322722505+322320792+321995773+322300532
4327+322954860+323143881+322619697+321978837+321968125+322916272+324673329
4317+326788026+328798863+330295093+330594339+329054264+326315529+324278009
4307+324143915+325305237+326471702+327042204+327144103+327098780+327039988
4297+326692918+325812628+324886219+324778808+325737525+327112022+328045108
4287+328315427+328324975+328288631+327973245+327409222+327002792+326838435
4277+326741566+326738128+326900552+327243416+327676102+327731001+326967812
4267+325913475+325490053+325511535+325100076+324396645+324592372+326269439
4257+328557955+330096041+330348656+329701687+328637661+327369979+326133839
4247+325141250+324296281+323597680+323585121+324698391+326452095+327843470
4237+328311079+327887827+326817464+325546174+324768777+324916709+325768385
4227+326930474+328288688+329577056+330231015+330311318+330680978+331584086
4217+331936725+330682200+328160675+325598771+323903007+323264165+323444264
4207+324222343+325601926+327458722+329298582+330651284+331292427+331115966
4197+330268155+329287756+328692532+328601261+328805825+328899086+328659087
4187+328333784+328156271+327874046+327263506+326682490+326584740+326855229
4177+327003246+326859349+326834258+327338097+328038459+328211198+327862736
4167+327692441+327923432+328030076+327693265+327316728+327362705+327627255
4157+327461165+326660865+325902734+326033560+327002365+327821221+327623448
4147+326583489+325653955+325418218+325479056+325227975+325024802+325865737
4137+327734269+329175940+329066824+328040391+327525754+328119216+329145478
4127+329279032+327719720+325115278+323057043+322680989+324137494+326867220
4117+329713764+331379692+331600908+331367047+331354743+331078400+330187909
4107+329440774+329562848+330044296+329881616+328979275+328125837+327896352
4097+327922523+327228043+325381391+323233505+322136232+322466195+323383397
4087+324050144+324416337+324604875+324458051+324167330+324430488+325465587
4077+326596447+327184482+327256686+326877336+325781257+324199070+323339069
4067+324240131+326302856+327618077+327026348+325244967+323692589+323171047
4057+323870585+325537507+327287943+328174144+328233192+328259761+328578926
4047+328779029+328565514+328232709+328234272+328669828+329219160+329363967
4037+328840862+328044114+327633734+327675164+327714634+327663514+327748732
4027+327655444+326841504+325745737+325573766+326770209+328502175+329631586
4017+329760110+329375219+329203986+329440234+329590269+329121950+328124019
4007+327132055+326518957+326236392+325982923+325597834+325330556+325510029
3997+326033248+326568827+326947012+326989720+326632705+326437205+327034589
3987+327919795+327909111+326757877+325237324+324075405+323614446+323969812
3977+324962771+326131168+326972131+327191728+326986765+326896460+327143535
3967+327522288+327963044+328537240+328950603+328799034+328299685+328019506
3957+327936958+327520583+326816129+326751256+327953411+329737804+330745311
3947+330332175+328965323+327654478+327262000+327804257+328318695+327989698
3937+327139187+326683911+327062152+328007031+329018744+329830354+330480960
3927+330941664+330954366+330541315+330370593+331024552+332155469+332943039
3917+333039880+332618702+331951757+331297656+330806121+330374032+329965243
3907+330014175+331007247+332699488+334201201+335020966+335383522+335369826
3897+334625249+333136948+331594628+330739884+330590332+330563792+330517133
3887+330933366+331819766+332328947+332207186+332257908+332464604+331702949
3878+329991073+328896898+329266842+330356499+331528050+333055111+334440604
3868+334360500+332885810+331349941+330500567+329873063+328997802+328321764
3858+328770192+331214852+335911799+340542764+341072319+338185027+335115704
3848+333003934+331455846+330370480+330353515+331514894+333146069+334842430
3838+336649812+338144222+338589155+337742680+335900177+333767549+332273167
3828+331902854+332374583+333410563+335401026+338243223+340083424+339691600
3818+338556420+338145302+337575112+335616588+333100490+331813912+332823437
3808+335478971+337536922+337777716+337582074+338468929+339774062+340037390
3798+339350867+338668833+338527550+339003400+339958423+341192660+342570168
3788+343923523+344964987+345550805+345983889+346940618+349055230+352325622
3778+355940868+359094045+361746396+364511472+368043517+372159589+375775119
3768+378535904+381278645+384055599+385826380+386656347+387932297+389909604
3758+391115397+391154241+391956274+395647162+402213919+408470860+410964338
3748+410702630+411489915+415629090+421187487+424383459+425302707+426578629
3738+430128177+435978716+442114208+446427656+449062702+451483607+454457339
3728+457915588+461391568+463957393+464929040+464882694+464933870+465218368
3718+464909717+463748992+462689285+462753476+463445683+463052154+461172909
3708+459246324+458585602+459457254+461349086+463388425+464889087+465780573
3698+466409754+467216078+468581623+470611670+473106541+475579930+477108354
3688+477076358+476098261+474911905+473453355+471688654+470313049+470215044
3678+471846816+474793695+477283224+478096937+478524593+480024772+481776885
3668+481932432+480400939+478075056+475443989+472970828+471380741+471241419
3658+472314112+473200512+472653055+471580248+471913536+474167612+476709880
3648+477660471+476946498+475212827+473027744+471351956+471067998+471810813
3638+472374240+472402599+472484578+473111713+474743400+477857790+481311435
3628+482232843+479908211+476273870+473372739+472769474+474911422+477856142
3618+478893486+478379730+478992088+482049732+486376422+489876783+491495171
3608+491609743+491116447+490827857+491509720+493340260+495429838+496882335
3598+497807778+498366147+498296244+498107450+498751521+499855300+499991980
3588+498781130+497487988+497167117+497402172+497306866+497057887+497840115
3578+500045458+502217214+502602190+501252387+499875021+500232434+503074744
3568+507307434+509812052+508395528+504563158+501146510+499334213+498776526
3558+499181962+500752555+503158229+505435691+507184565+508935597+510993634
3548+512660272+512845088+511170493+508328126+505359480+503173176+502581674
3538+503835716+505784295+506514465+505698025+505154717+506224739+507800219
3528+507727361+505303842+501659414+498325740+496161315+495300148+495424609
3518+496086525+497093521+498486345+500112065+501450502+502089912+502185559
3508+502019725+501563596+500798759+499965951+499417073+499096317+498453610
3498+497238100+496021453+495790717+497054193+499302160+501333258+502146118
3488+501412027+499079438+495368460+491432316+488934347+488585459+489712938
3478+491301092+492725230+493531611+493458526+492887427+492471990+492015236
3468+490497268+487838183+485737466+485721440+487189054+488322557+488263850
3458+487519075+486842837+486326183+485350785+483620666+482064338+482050357
3448+483724611+485617495+486052028+484592541+482083831+479753231+478409509
3438+478172068+478677640+479507549+480351666+480891678+480811148+480128717
3428+479302217+478657465+478145243+477807324+477737478+477652003+477239123
3418+476843292+477204229+478440312+479640194+479728908+478706738+477513335
3408+476650492+475717973+474402326+473213185+472978784+473909342+475338851
3398+476391625+476806863+476748043+476133127+474927505+473728732+473275160
3388+473644820+474316482+474775936+474949414+475171823+475737466+476577605
3378+477441443+478102563+478368079+478330343+478420137+478750498+478911160
3368+478849214+479266073+480608487+482320761+483633340+484445063+485024687
3358+485424325+485481157+485067367+484361634+484044515+484836404+486549985
3348+488216453+489217027+489412982+488707363+487492591+486610113+486092663
3338+485104478+483646411+482901863+483429372+484222398+484055199+483148284
3328+482778766+483420222+484151188+484058609+483433066+483305309+484284798
3318+486065838+487662801+488175421+487462129+485870225+483944719+482784335
3308+483517915+485776566+487733443+488098471+487121709+485450638+483415050
3298+481768303+481688455+483479213+486160974+488566705+490125875+490734142
3288+490691234+490526423+490327285+489792786+489254990+489722542+491535578
3278+493548036+494167044+493205342+492186014+492518023+493708812+494049062
3268+492993077+491641228+490720218+489762893+488705885+488567103+489628714
3258+490267953+488738165+485529009+482881233+482477275+484275251+486963604
3248+489026983+489568018+488526355+486485993+484374308+483167379+483512289
3238+485184269+486798509+486650520+484533265+482205621+481372984+481890888
3228+482485743+482542915+482400382+482303541+481905949+480832460+479299205
3218+477872737+476858068+476292937+476246903+476567972+476569109+475727180
3208+474617745+474473962+475828510+477850004+478869844+477675361+474684551
3198+471611960+469712711+468847254+468411470+468456935+469365613+470854880
3188+471917429+471823742+470897958+469928414+468917724+467167260+464761359
3178+462933916+462513477+462954574+463278371+463131575+462575565+461607811
3168+460451548+459776476+460021533+460647844+460516648+459215180+457636204
3158+456873953+457025494+457508021+457950141+458210003+457962587+456896316
3148+455099676+452974011+451096869+449986695+449531731+449005586+448082360
3138+447327979+447229689+447376059+447067351+446172852+445044720+444101489
3128+443697730+443976290+444701828+445339675+445289010+444303042+442883365
3118+441929676+441773390+442006939+442264215+442479179+442459459+441863809
3108+440615166+439082564+437957274+437810990+438493450+439209895+439413409
3098+439210151+438803977+438137628+437259583+436605539+436551975+436806267
3088+436600566+435661654+434676311+434476889+435096608+435911939+436403048
3078+436456868+436149211+435587034+434877750+434086031+433217505+432268108
3068+431363550+430842889+431034440+431825476+432573946+432706733+432376059
3058+432153479+432126853+431817008+431042510+430227576+429676567+429197961
3048+428632602+428160844+427848413+427468410+426961957+426505487+426109883
3038+425671486+425319017+425262158+425393523+425331890+424786734+423847169
3028+422974693+422540529+422339630+421874067+421186947+420920436+421275803
3018+421449764+420671315+419429066+418847680+419107400+419341688+418952932
3008+418221370+417685933+417557010+417619525+417398195+416691695+416002444
2998+415995652+416547116+416860911+416535238+415910746+415318421+414686683
2988+414043635+413696253+413698100+413752971+413745952+413795964+413816508
2978+413569889+413084776+412664450+412579459+412839122+413106940+412959860
2968+412438972+412100086+412306498+412679056+412421666+411172711+409470354
2958+408271438+407996971+408191619+408179769+407881774+407795873+408269506
2948+409039515+409512835+409280565+408289170+406824908+405502782+404879427
2938+404828818+404701658+404243995+403854273+403862798+404118539+404394257
2928+404664462+404810405+404508261+403705147+402885411+402536324+402520923
2918+402345655+401913736+401557943+401455049+401390176+401035094+400343029
2908+399709444+399598822+399943817+400185862+399957968+399412272+398935826
2898+398879535+399395791+400213254+400705585+400410829+399432277+398314176
2888+397604067+397450793+397545247+397501941+397278821+397150240+397292716
2878+397470911+397257140+396591445+395889719+395478885+395231867+394932990
2868+394663439+394590126+394707114+395008548+395550634+396100904+396138925
2858+395512188+394701687+394222029+394189863+394534545+395076518+395344876
2848+394870959+393768032+392635864+391933826+391710081+391735427+391658193
2838+391248496+390695725+390419126+390475219+390509716+390353657+390210328
2828+390218966+390307225+390434585+390526197+390309953+389625476+388702477
2818+387868078+387246598+386903364+386931041+387236595+387567894+387853387
2808+388153542+388201650+387556982+386441779+385736615+385837065+386167028
2798+386070443+385622015+385275826+385138806+384919891+384425117+383787894
2788+383181816+382630323+382215284+382138021+382411210+382727505+382752170
2778+382428828+381964970+381585478+381361448+381249093+381121250+380762843
2768+380118545+379535767+379413267+379674578+379910798+379883604+379621270
2758+379246865+378913605+378702505+378463131+377950625+377234834+376782569
2748+376942010+377458607+377725687+377440791+376796465+376151002+375732495
2738+375558364+375488006+375356868+375066175+374622094+374204270+374038350
2728+374084157+374078161+373929660+373805825+373813071+373806336+373537012
2718+372934201+372217273+371665923+371365569+371290779+371425355+371645350
2708+371742759+371673936+371543877+371419104+371408704+371701357+372225400
2698+372521293+372226252+371497901+370796146+370416058+370322286+370298360
2688+370178275+370001672+369970329+370178673+370402447+370301116+369842686
2678+369352230+369102059+369036276+368932530+368667611+368267034+367792180
2668+367282998+366850824+366694282+366845737+367026490+367006315+366965254
2658+367197524+367624470+367879274+367706904+367136288+366416149+365834934
2648+365500879+365281225+364991215+364623032+364391956+364479590+364690520
2638+364610387+364221746+363978706+364114249+364369024+364564183+364856638
2628+365227946+365324190+365008037+364560802+364221490+363944067+363623538
2618+363256379+362955172+362934173+363265045+363637206+363653090+363294029
2608+362843697+362530613+362445451+362568292+362768282+362954888+363150416
2598+363292154+363206907+362913231+362690025+362728699+362909167+362998250
2588+362949688+362926501+363071449+363362511+363675596+363829666+363614900
2578+363040817+362479834+362215227+361987475+361438910+360840589+360826153
2568+361506624+362329856+362746288+362665389+362345712+362113328+362108725
2558+362175218+362078008+361802830+361501510+361271087+361152991+361164016
2548+361175269+361008099+360747300+360632841+360627187+360508295+360353231
2538+360456891+360837548+361263727+361635120+361918397+361920215+361551976
2528+361138925+361094938+361396684+361651573+361625374+361461017+361381141
2518+361408164+361443684+361461131+361544929+361790384+362141971+362351821
2508+362221876+361842413+361455334+361201099+361132759+361290182+361599260
2498+361869436+361994778+362011884+361959883+361873557+361884241+362114351
2488+362476538+362726284+362707103+362469803+362212215+362176354+362506488
2478+363071392+363475634+363414114+363019250+362696873+362636604+362686047
2468+362691162+362698777+362775670+362849892+362797579+362576391+362271149
2458+362051780+362034873+362182151+362397684+362638650+362822556+362775983
2448+362458210+362085452+361847840+361676067+361459540+361274838+361204224
2438+361162397+361111334+361223945+361623129+362127280+362426952+362428714
2428+362309738+362272257+362321019+362314483+362198263+362114976+362246570
2418+362543173+362752483+362847704+363175422+363898773+364587598+364745959
2408+364463393+364162925+364035964+364080036+364358169+364893834+365530545
2398+366106815+366621822+367148166+367750522+368612797+370202912+373210459
2388+378253310+385639973+395409266+407504413+421829511+438215516+456414499
2378+476057910+496522820+516860796+535997697+553232905+568715261+583150215
2368+596707123+608601711+618219975+625579189+629621608+627768619+618674058
2358+603802298+585748490+566105278+545273607+524774969+508197812+498790109
2348+497828976+504769286+516970935+529805686+539373881+544789290+547471904
2338+549734419+553022401+556838460+559912983+561865029+562871911+562740233
2328+561379632+559065627+555685237+550892132+545175175+539624792+534612488
2318+529624849+524184831+518334832+512373216+506415067+500231468+493475519
2308+486019123+478036013+469963962+462388789+455641535+449492262+443482339
2298+437547406+432056865+427283964+423136407+419379111+415842605+412413767
2288+409059719+405920806+403256151+401255543+399893208+398893515+397898568
2278+396762962+395569019+394364705+393181133+392249382+391801949+391694708
2268+391527083+391067459+390396138+389739138+389216460+388736291+388219211
2258+387783314+387498247+387236112+387002990+387002933+387150865+387007451
2248+386415097+385794129+385659609+386088686+386703914+387063174+387056468
2238+386920641+386893191+386986594+387090169+387099120+386941186+386665297
2228+386471985+386471957+386480340+386232782+385715815+385118119+384577254
2218+384104388+383641156+383157208+382752198+382586308+382673799+382867083
2208+383040135+383161697+383255128+383378367+383535591+383614530+383556079
2198+383492797+383571281+383751323+383887520+383923409+383966885+384203474
2188+384702539+385327798+385877443+386244717+386463574+386695361+387072125
2178+387483670+387715826+387839605+388177667+388850153+389634796+390272246
2168+390672822+390847692+390815668+390592945+390242750+389935747+389890424
2158+390160231+390541627+390802568+390954024+391187771+391574055+391942066
2148+392090624+392045841+392026347+392146830+392255264+392146375+391865088
2138+391696526+391897709+392486625+393226314+393800227+394080775+394203332
2128+394325718+394473679+394720924+395274036+396157992+397019385+397506431
2118+397720600+398047437+398627686+399240755+399663467+399904660+400093539
2108+400338227+400697316+401148643+401598947+401985997+402309481+402563717
2098+402744782+402909508+403132741+403429373+403755443+404051649+404298752
2088+404551794+404849761+405116328+405302110+405577856+406157253+406929109
2078+407502935+407682438+407696219+407860149+408164396+408331225+408219267
2068+408030615+408091112+408500441+409036048+409422559+409659262+409974903
2058+410473372+410992442+411398985+411817946+412378475+412943578+413329378
2048+413634904+414150308+415046312+416250683+417492052+418458243+419080860
2038+419631954+420434044+421541376+422727760+423688439+424287215+424743315
2028+425512670+426834939+428446621+429830921+430712376+431284924+431990174
2018+433080882+434438073+435852295+437307890+438823442+440260424+441527708
2008+442748390+444036843+445343426+446641626+448044254+449626952+451270119
1998+452762370+454068584+455449076+457156746+459008456+460522417+461569592
1988+462563972+463896697+465476667+466914786+468013821+468980893+470151620
1978+471582862+473055649+474458049+475936661+477651549+479651162+482000687
1968+484710636+487487988+489867008+491671974+493139588+494606350+496232184
1958+498015099+500022953+502467898+505335895+508087843+510163781+511715847
1948+513372995+515426371+517709175+520049777+522416579+524810943+527295215
1938+529932875+532587130+534990758+537071242+539043747+541144577+543384872
1928+545682453+548184683+551153557+554402836+557265094+559419573+561252784
1918+563136689+564952282+566580900+568232365+569984534+571544216+572698178
1908+573636067+574654542+575885625+577433713+579392805+581468232+582938290
1898+583451819+583627144+584435514+586165121+588292037+590097969+591138609
1888+591482383+591668506+592222101+593259729+594486719+595393919+595655912
1878+595492237+595327710+595152044+594833675+594893234+596093002+598175078
1868+599668892+599552444+598425364+597461957+597167969+597283905+597290554
1858+596816807+595777588+594363679+592899474+591670211+590837858+590422249
1848+590399233+590781651+591304841+591156909+589832623+587913256+586143810
1838+584627604+583169424+581806208+580872298+580718114+581232438+581587976
1828+580982153+579512379+577784874+576252074+575026106+573875952+572562862
1818+571283132+570416453+569899116+569378143+568785391+568241173+567682634
1808+567050783+566580389+566583742+567137223+568061473+569023003+569611720
1798+569534145+568911443+568335855+568478160+569343589+569986069+569778691
1788+569420482+569955777+571554900+573480974+575061626+576208257+577082835
1778+577932692+579096884+580788755+582936983+585102999+586634378+587367731
1768+587788284+588371772+589316992+590684015+592200789+593234552+593739897
1758+594559122+596199050+598214121+600082682+601860312+603647830+605171822
1748+606292310+607355626+608715261+610361610+612107130+613745239+614966944
1738+615805094+617141883+619914517+623458411+625680917+626224453+626260086
1728+626250709+626210302+626564248+627747478+629502830+631350420+633435735
1718+636155630+638787891+639800968+639207363+638456052+638652234+639947195
1708+641991478+644335376+646361700+647699342+648855691+650699870+653163114
1698+655029458+655460638+654587594+653439201+653281608+654439775+656238944
1688+658155073+660791710+664675114+668079941+668852962+668055504+667569823
1678+668130521+669823927+672081953+673940341+675503375+677831417+680918046
1668+683137312+683737623+683846455+684463758+685396361+686071689+686608519
1658+687381426+688537889+690581660+694094922+697418651+698368417+698393480
1648+699166558+700342457+701026877+701693396+703082584+705016614+707095280
1638+709409512+712105594+714397549+715320662+715590270+716614827+719002883
1628+722640662+727415240+733202327+739101769+743888509+747493724+750685093
1618+753955798+757811525+762792572+768518906+774039681+778521009+781003860
1608+780744083+778279930+775482005+774115210+774421758+775158634+775189096
1598+774999904+776183760+779649681+784715520+789679176+793217727+795299633
1588+796475361+796851926+796644094+796965134+798732989+801517559+804464097
1578+807203372+808980490+808721566+807322149+806802142+807862900+810084099
1568+813138845+817122785+821515569+824738877+825613285+824831455+824820259
1558+827647964+832089566+836496786+840647128+843826505+844961031+844119073
1548+842753073+842551037+844382714+847660750+850089441+848983729+844760359
1538+841153382+839797271+840074267+841277502+842733807+843788314+844143624
1528+843793713+843373047+844450514+848017368+852761086+855726720+855734790
1518+854303434+852655323+851372581+851520740+853890213+857957751+862401741
1508+866208537+868913883+870788638+873081672+876918816+882424871+888590569
1498+893776663+896865508+898138475+898911780+900113139+901326831+901259940
1488+899862342+899365408+901668672+906170971+910479531+912775236+913758590
1478+915609590+919282320+923538312+926181825+926103853+924118731+921877186
1468+920979363+922253581+924599354+925725185+925535709+926129938+927979289
1458+928453036+924821054+919170647+915380843+914039281+914046101+914399706
1448+914754788+915415795+916181314+915923072+914217390+912428792+911789211
1438+910963110+907412680+902439761+900716689+903903170+909270727+912779385
1428+913436527+913497223+914455628+915926198+917204109+917460930+915658976
1418+912577406+911215498+913115202+917147164+920937763+921854340+919074147
1408+915025590+912632646+912091157+911895997+911565864+911590301+911662250
1398+911075977+910267095+910314265+911402758+912764609+914109297+915737745
1388+917272477+917622104+917084365+918002931+921626901+926499683+930604503
1378+933692609+937129773+941440607+944985296+945767751+943841507+941214475
1368+940495728+943444540+949468556+955503485+958127619+957152960+955739676
1358+956510992+959567500+963570364+967552542+971340015+974617483+976765597
1348+977955647+979037831+980268117+981694359+984146521+988137564+992414924
1338+995208757+996754799+998740261+1002207205+1006676428+1010099157+1010726917
1328+1009459235+1009391379+1011829788+1014712504+1016111921+1016338906
1320+1016540430+1017355734+1019104891+1021420772+1023098435+1024344521
1311+1027695756+1034888341+1044161637+1051984255+1057263553+1062132528
1302+1068064705+1073116905+1073741823+1069045729+1061674126+1053902770
1294+1046074924+1039127851+1035112825+1034438918+1034769790+1034047008
1285+1032205216+1029349323+1025359757+1021293810+1018898593+1018692068
1277+1019196276+1018470880+1016498148+1015398573+1016393351+1017723433
1268+1017345391+1015143741+1011626558+1006463651+999355291+991577911+985168577
1258+980958619+978336304+976435406+974434031+971632128+968399330+965198130
1248+961523637+956980988+952449023+948817098+944715063+937958034+929079659
1238+921255735+916754004+914557242+911301541+904544512+894866576+884768940
1228+876556459+870921226+866819872+862945959+859162975+855777016+852147818
1218+847706954+843598327+841666968+842432430+844567075+845884768+845166419
1208+843431356+843092641+845792417+851234935+857825448+863673173+867019521
1198+867027932+865055143+864292068+867043447+872418449+877458942+880879568
1188+884180223+888549934+893072806+896564472+899024704+900698105+901451690
1178+901916798+903201245+905312305+908071754+912447035+918896264+925882324
1168+932403218+939561078+946990991+951499314+952362242+953597473+958340737
1158+964343726+967121873+966072538+964674940+966349307+971023805+975597370
1148+978099203+980237542+984443635+989972423+993933460+994755469+993028817
1138+990526530+989114610+989509134+990249988+988385690+982588431+975390618
1128+971380479+973591335+981522614+991912080+1001281876+1008580394+1014601797
1118+1018190133+1017081465+1013024384+1010898775+1012746478+1016756049
1110+1021010221+1024710402+1026038779+1022791318+1016010534+1009747939
1101+1006988546+1007041286+1007822490+1008931840+1010869109+1013611339
1093+1014556559+1010173038+1003334627+1001780287+1009527660+1023373272
1084+1037130567+1045426705+1043890892+1033228636+1022219480+1018800730
1075+1020396669+1018275380+1009542096+999488731+993588152+991875480+992993923
1065+997388355+1002538305+1002555241+996288440+989151664+985333047+984727224
1055+985663238+986378177+984750298+979520670+972656003+968512311+969436390
1045+974152716+980760050+988772712+996960415+1001720160+1000933272+997269464
1035+993702042+989780447+984845093+980721746+978725599+976817313+972855368
1025+968894559+968701446+972415720+976139997+976560776+974392544+972791376
1015+973789449+976375279+977922230+977219566+974716711+970949242+966711437
1005+963376114+961436231+959237537+954977112+949598700+945506611+942498353
995+937450700+929160587+920376212+914220914+910999539+908838524+905611238
985+900244704+894004102+889920822+889386095+890496467+890734989+889553407
975+887421774+884563494+881458055+878847049+876422621+873328661+870350411
965+868982422+868264186+865194096+858844606+852095249+848462642+848764758
955+851376389+854212788+855938758+856383407+856606641+858264357+862015003
945+866649378+870758290+874555027+878649844+882159355+883952897+885130956
935+887996510+893152370+899409964+905943475+913032399+920582453+927269465
925+932304956+936878237+941934813+945689153+945960694+943582640+940356320
915+936093509+930642182+925900567+923716365+923874583+924988820+925912103
905+926201830+926659891+928707584+931773639+933166236+931876504+929960262
895+929540108+930671166+932028471+932569109+932999038+935255643+939646609
885+943579060+944475859+943128102+942808596+945956432+951369852+954612937
875+953379013+951312054+952958290+957223317+959015553+957123294+955378001
865+955538266+956114536+956355274+956766847+957047254+956100897+954387998
855+953825594+955542017+959043060+962311093+964185394+966130847+970063581
845+975286616+979191617+981803475+984960006+986791000+984699377+980448728
835+978413367+980415879+983137195+982213911+979660021+982507616+993655327
825+1007666318+1016804810+1019939177+1020763118+1020794035+1019352790
817+1017049867+1014739670+1011861272+1008026402+1004549569+1003614351
808+1005122771+1005724047+1003082182+1000617176+1004213013+1014136234
800+1023399869+1024694375+1017252073+1006487407+999114212+998028050+999978618
790+999485321+996292077+995008369+998267992+1002877020+1002281086+992791830
780+978676156+968226335+965319067+968382621+974898571+983308826+991097572
770+993578491+987166429+974484043+962904300+958375518+960548069+963893735
760+965066508+967022759+973178625+981002493+984068434+980815972+976785261
750+976820269+980465095+983998191+984406240+981791995+978767200+977799019
740+978785499+979853475+978052033+972810244+969297721+972094168+978888932
730+982358150+980585237+979775162+985887381+999047492+1012257273+1017514975
720+1012381052+1002014888+996577144+997680469+1000592170+1005527410+1015034057
710+1023382479+1018827895+1003170839+991679071+993697155+1005092309+1012170321
700+1006567425+993803998+982365538+973939711+966863631+963210167+966964109
690+975637607+980933272+980074209+978320959+979641380+980992377+980425881
680+981895542+985730867+986368743+980131495+970571654+962062172+950910938
670+935099187+925341175+932869122+950147976+964061729+972916177+978096248
660+976528724+967120850+956161479+951418499+953829913+957831414+954848446
650+941181399+925979335+920278859+925091855+932436805+933282741+927678253
640+922998243+922918508+927715137+937873696+950504650+954205910+939096027
630+913907659+895358452+893527003+908274699+926482748+931346778+921850362
620+908920475+900132916+894687728+890709699+893124693+906366187+925170169
610+937824765+937434446+930258400+923448859+917186775+910908779+906314697
600+905046788
##END=
