##TITLE=<SNM>
##JCAMP-DX=4.24
##DATA TYPE=INFRARED SPECTRUM
##DATE=29/4/2025
##SAMPLING PROCEDURE=Instrument type and / or accessory
##ORIGIN=Admin
##XUNITS=1/CM
##YUNITS=ABSORBANCE
##RESOLUTION=4
##FIRSTX=4497.3318
##LASTX=599.83466
##DELTAX=-1.4281778
##MAXY=2.1340771
##MINY=0.38068441
##XFACTOR=1
##YFACTOR=1.9875142e-09
##NPOINTS=2730
##FIRSTY=0.39491713
##XYDATA=(X++(Y..Y))
4497+198699028+198740593+198324623+197515940+196726121+195775617+194287626
4487+192922577+193033238+194958702+197584766+199727729+201083721+201664484
4477+201271051+199927879+198287976+197164343+196753696+196613345+196412205
4467+196438266+197153847+198400182+199348077+199303737+198410798+197468452
4457+197163623+197540517+198070087+198043846+197057460+195492606+194296368
4447+193878793+193723133+193445025+193412741+193895258+194585437+195350890
4437+196447098+197735074+198624969+198864765+198645811+198106929+197354881
4427+196683760+196290178+196074238+195939990+195875182+195653710+194985812
4417+194116895+193727316+194046180+194586532+194867564+194840093+194562105
4407+194045880+193517659+193355071+193677069+194236943+194689726+194905126
4397+195064040+195320781+195391046+194884238+194093114+193808483+194222249
4387+194706595+194790101+194637484+194495378+194353408+194235999+194219834
4377+194172736+194033045+194090085+194480249+194777895+194565419+194115291
4367+194008543+194244336+194206759+193498781+192452476+191706681+191537959
4357+191758787+192092061+192478507+193002259+193656781+194271371+194543182
4347+194194148+193323357+192547797+192502393+193140766+193755776+193789799
4337+193373769+192990728+192931649+193209187+193678028+194047170+194045145
4327+193693218+193205213+192761968+192645623+193251682+194553648+195891077
4317+196686774+196986745+196987495+196612520+195907661+195279815+194993610
4307+194874236+194759196+194818606+195190086+195667805+195977687+196131233
4297+196271134+196268750+195796505+194966004+194532865+195059557+196216763
4287+197257505+197782577+197727891+197080222+195992366+194897433+194323853
4277+194608184+195537155+196286174+196202698+195653770+195600388+196358239
4267+197269456+197684736+197746635+197851523+197887496+197621893+197308818
4257+197247789+197345750+197603675+198256382+199111789+199592176+199563836
4247+199326304+198890691+198133965+197510767+197755527+198769578+199480720
4237+199117757+198077120+197213706+196882561+196981167+197308892+197553607
4227+197493658+197474810+198138703+199480121+200670376+200997861+200563478
4217+199825780+199038749+198499717+198688621+199557194+200181171+199808251
4207+198900753+198513797+199003902+199901908+200664228+201023083+200932154
4197+200657570+200616484+200779328+200669116+200203828+199940880+200228929
4187+200741046+201083976+201294608+201439667+201255906+200659204+200297561
4177+200952112+202415332+203604568+203930569+203923851+204242880+204739342
4167+204872616+204548878+204133493+203868821+203631918+203244273+202808285
4157+202585913+202576601+202482404+202236265+202261381+202837885+203476122
4147+203456014+202786348+202109964+201906485+202217626+202786228+203153135
4137+203057273+202857378+203091821+203715004+204216534+204269031+203901179
4127+203342924+202938890+202928528+203224750+203555280+203703893+203600594
4117+203407027+203457784+203934992+204717030+205498587+205888586+205640798
4107+205032925+204681597+204863049+205395828+206014722+206423945+206358657
4097+205978855+205778045+205863245+205773037+205186606+204436942+204182781
4087+204756856+205920810+207122791+207790343+207521937+206444458+205291420
4077+204715185+204726791+205086561+205736839+206418337+206479830+205708229
4067+204882422+204879138+205536674+205977250+205833930+205523824+205468208
4057+205704271+206131802+206565690+206694780+206439734+206168104+206260067
4047+206702398+207184779+207332283+206908936+206008155+205013551+204392678
4037+204522113+205416596+206547922+207285679+207558389+207704303+207838012
4027+207886145+208001650+208364643+208731460+208645435+208060309+207471225
4017+207367356+207655435+207786370+207506402+207184030+207179021+207293132
4007+207208636+207116538+207496971+208449499+209502551+210078906+210020591
3997+209535525+208779728+207861688+207158104+207111650+207709087+208530770
3987+209236259+209723664+209968184+209948856+209673702+209275486+209110003
3977+209514412+210317247+210815494+210456099+209471122+208654912+208499866
3967+208791244+209164689+209645797+210297499+210806797+210933203+210944404
3957+211079927+211056160+210676612+210489762+211196031+212617041+213763766
3947+213975537+213623985+213546866+214104252+214895361+215278763+214982121
3937+214166091+213272837+212920475+213485103+214484999+214875433+214398480
3927+213966915+214439115+215542641+216238818+216131425+215993638+216596443
3917+217405411+217045852+215256675+213406021+212804190+213387982+214301104
3907+215300730+216924319+219338822+221777902+223437898+224064635+223400801
3897+221403018+219048553+217780745+218213330+219438148+219810108+219222298
3887+219307708+220820726+222388324+222914551+223258606+223653823+222685775
3878+220414367+219182487+220502207+223551843+226708003+228751386+228677282
3868+226952928+225742160+226158955+226777969+225764757+223481068+221487168
3858+220883584+222783406+228528563+236115768+238574311+234414461+228504332
3848+224368594+222980708+223774141+225589423+227673771+230145255+233086419
3838+235238769+235070423+233179582+231424204+230573565+230032704+229271060
3828+228447757+227727528+227419775+228555509+231476311+233939307+233914371
3818+232998640+232956670+232594756+230389100+227299742+225346868+225956615
3808+228942644+232006931+233490723+234673646+236811511+238524828+238516326
3798+237724677+236746358+235158787+233296016+232200888+232208820+233053956
3788+234701656+237058430+239364056+241045510+242862771+245931601+249775226
3778+252582922+253684318+254365441+256445666+260887627+266890814+272338325
3768+276241374+279467560+282816972+286702987+292071536+299418764+307229271
3758+313446314+318539348+324933059+334442894+346723492+358189575+364984906
3748+368434813+372209507+377271982+381257563+382980612+384595069+388029172
3738+393503433+400196740+406719556+411301689+412860995+411963888+410227133
3728+409146010+409517431+411229144+413194868+413864415+412637783+410842459
3718+410328858+411664832+414622971+419073149+423993114+427037802+427345735
3708+426554791+426602534+428653039+432656104+436815744+439087602+439662051
3698+440056174+441141436+443510760+448005562+454612769+461209989+464246041
3688+462249877+457566559+453131405+450650041+450924625+453546791+457283908
3678+461493510+465366930+466595452+464802437+463294682+463928271+464230596
3668+461833142+458460967+456391899+455527900+454937406+455288194+458082619
3658+462980812+467416955+469853156+472104411+476587398+482641777+485842981
3648+483322270+478141036+474240146+472833967+473389403+474485641+474678624
3638+474222513+474931046+477558190+480897046+484186419+488308362+493102071
3628+495846744+495337611+493529691+492710377+494294245+498139774+501880820
3618+503549528+504563235+506885745+510042145+512379470+513317363+512975542
3608+511288690+509222531+508678400+510353196+513318503+516590542+520035861
3598+523486158+526195653+527715583+528558529+530080199+533908304+540286001
3588+545843423+545403417+538741060+530877441+526361555+526537354+529564739
3578+532438457+533966484+534875167+535526540+535861343+536893883+539850493
3568+543852418+546173848+545368329+542586379+539872385+538323545+537590001
3558+537097033+537442032+539497816+542513984+544577325+545022430+544863365
3548+544790311+544176425+542275867+539636547+537915387+538556864+541355548
3538+544365419+545790342+545691496+545189291+544499412+543057395+540963885
3528+539034657+538149306+539109931+541908315+544754863+545343858+543671221
3518+542036311+541906816+542446748+542547692+542610970+543407373+544601676
3508+545445702+545877192+545920796+545130752+543553542+542137675+541579990
3498+541823445+542635142+543832145+544890536+545175796+544796728+544548355
3488+545145027+546604438+548348030+549721192+550140505+549135916+546640725
3478+543397956+540804940+540266388+542267530+545730063+548643007+549602913
3468+548749290+547219464+545839405+544579484+543203204+541962656+541350750
3458+541492720+542341544+543895782+545318426+545040543+542971445+541092900
3448+540683362+540540132+539112450+536960760+535760039+536088844+536876969
3438+536592189+534974733+533400881+533256212+534330977+535304318+535354520
3428+534771044+534488722+535366636+537561931+540411117+542952611+544389530
3418+544105949+542084954+539371140+537411083+537148315+538612044+540568442
3408+541205300+540083751+538769130+538775667+539589884+539664318+538649112
3398+537628028+537733171+539180826+540878654+540799782+537913948+533720330
3388+530904791+530891956+533179918+536195487+538166640+538031807+536428146
3378+535283505+535834893+537634025+539717459+541593905+542763197+542806982
3368+542328589+542573363+544077279+546378857+548640128+550067451+550359429
3358+550255965+551145395+553700324+556893251+558685426+558057925+555988946
3348+553966811+552675701+552571218+553747828+554986156+554967203+554183876
3338+553732173+552990532+550881007+548524129+547922359+548983089+550048617
3328+550483106+550856416+551220969+550941046+549646278+547473055+545265345
3318+544682648+546762423+550300949+552767410+552865475+551310218+549429993
3308+548190645+548181708+549430293+551171966+552273422+552209184+551723773
3298+552101162+553589363+554944710+554893968+553629549+552360691+551929142
3288+552342098+553271594+554607748+556459182+558585681+560268874+561239756
3278+562154497+563265490+563486872+562052532+560036095+559093884+559441943
3268+559866115+559768589+560014623+561199270+562340732+562083422+560373478
3258+558275949+556922281+556650636+556613869+555725638+554414915+554386185
3248+556111484+557804573+557504258+555118950+551912348+549213708+547938193
3238+548457552+550436142+553004867+555108813+555659241+554240796+551953793
3228+550274499+549296360+548445496+548029001+548657222+549656354+549710335
3218+548841418+548180629+548242587+548437159+547858721+546105652+543702950
3208+541758787+541060031+541652385+543034843+544297642+544299502+542605272
3198+540307653+539084380+539449473+540531975+541471788+542394326+543747754
3188+545201647+545650531+544288286+541526608+538601548+536323662+534711064
3178+533723209+533460920+533514782+532895377+531024930+528449667+526170042
3168+524761073+524423691+525177688+526587077+527658963+527351570+525310902
3158+522309908+519930837+519372792+520443119+521851488+522313327+521262733
3148+519039848+516836276+515973717+516693286+517919618+518423623+517794082
3138+516174227+513840141+511451953+509950557+509788013+510600610+511602141
3128+512041968+511484462+510081611+508539309+507583962+507363779+507431435
3118+507405584+507359580+507315135+506867691+505881995+504912073+504351809
3108+503887211+503125446+502168870+501331681+500581643+499486125+497838979
3098+496241136+495607517+496033609+496617955+496452203+495522167+494695325
3088+494733112+495312270+495441435+494824640+494067614+493598577+493320964
3078+493199177+493214891+492987750+492292113+491633483+491722731+492635253
3068+493704710+494040293+493219000+491652616+490115742+488963723+488077052
3058+487390802+487111149+487282809+487284789+486304640+484634583+483706436
3048+484197785+484934028+484386149+482518760+480600149+479823630+480407376
3038+481533634+482056471+481595772+480759514+480198379+479881450+479271012
3028+477837152+475595854+473424431+472534791+473335812+474949039+476001612
3018+475866479+475017685+474271306+473914130+473626830+473161123+472698114
3008+472343338+471809974+470875229+469761388+468813898+468196263+467953168
2998+467873066+467338443+465873003+463886766+462433323+462124010+462568395
2988+462952831+462903739+462656415+462609091+462917684+463377124+463499001
2978+462887004+461631372+460260460+459421323+459424262+459860849+459956156
2968+459397931+458412804+457201766+455846509+454545323+453483243+452620564
2958+451837147+451137940+450618851+450283868+450013782+449917156+450443593
2948+451617263+452512481+452192583+450903182+449695833+449163609+449149394
2938+449383612+449777825+450105610+449922224+449137518+448308967+447968645
2928+447944084+447717663+447219177+446818636+446665240+446530737+446300417
2918+446096038+445821154+445175329+444309291+443789242+443696515+443510430
2908+443053359+442745666+442772117+442671232+441891294+440468710+439101097
2898+438466308+438451103+438380898+437986415+437572860+437240785+436644983
2888+435641323+434615861+433984851+433632773+433036731+431909214+430521118
2878+429407066+429023620+429557704+430696887+431686272+431930627+431505225
2868+430949759+430678953+430583676+430150867+429098534+427779264+426745884
2858+426253606+426401394+427194288+428229797+428817562+428544237+427489595
2848+426054505+424790416+424127977+424039508+424079394+423889890+423611227
2838+423578329+423642026+423254052+422320267+421383394+420860586+420717416
2828+420788761+420738199+420029696+418684035+417578140+417351599+417614938
2818+417714293+417584318+417364105+416830021+415759604+414491406+413684328
2808+413617751+413917826+414014963+413784193+413521095+413338368+412975795
2798+412293743+411553661+411027194+410624435+410058772+409213217+408320188
2788+407869205+408155815+408847134+409285341+409180138+408621013+407621222
2778+406254298+405074270+404745524+405219569+405676849+405373505+404354071
2768+403192576+402193084+401196471+400164501+399458247+399326713+399521166
2758+399577756+399183453+398280348+397146653+396312074+396125000+396428464
2748+396759398+396819467+396666341+396452395+396072578+395254253+394033919
2738+392872993+392185183+392002607+392132431+392309760+392200058+391655688
2728+390991959+390642191+390608363+390531200+390089304+389123341+387739593
2718+386448813+385750266+385488578+385085848+384405295+383846890+383622658
2708+383492354+383248809+383010512+382930380+382929990+382817439+382448478
2698+381724590+380702486+379754427+379300415+379345219+379560005+379703505
2688+379641456+379214075+378469105+377793021+377481189+377374397+377110129
2678+376543716+375843490+375292462+374983540+374706647+374221716+373562126
2668+372938433+372476864+372163143+371939901+371798830+371782306+371855810
2658+371829600+371533513+371011035+370451400+370015112+369770128+369675241
2648+369602666+369466903+369299892+369136449+368907598+368527901+368030644
2638+367542474+367159778+366914163+366803442+366735905+366506875+366013847
2628+365441287+365045845+364831419+364648873+364541750+364697726+365047254
2618+365210457+364946069+364425511+363976387+363745138+363653520+363527654
2608+363261677+362919106+362613992+362354673+362161780+362164389+362349485
2598+362468783+362442782+362535540+362869803+363101562+362852229+362215581
2588+361612881+361299611+361172875+360993927+360693222+360437531+360443169
2578+360747353+361139167+361340007+361278468+361099191+360864552+360454985
2568+359882575+359440679+359351160+359489862+359615758+359647217+359599983
2558+359488362+359370923+359303597+359215967+358980699+358637529+358431291
2548+358548280+358894059+359232521+359453664+359553889+359485963+359236630
2538+358924499+358669767+358522549+358569842+358878045+359286982+359484703
2528+359339104+359019506+358788586+358787327+359009819+359343363+359560607
2518+359426974+358954308+358413357+358012817+357775539+357755056+358064578
2508+358642717+359242358+359649646+359775722+359646857+359422835+359298198
2498+359329328+359428443+359476636+359401662+359257413+359204211+359288122
2488+359333226+359152449+358776950+358418095+358277684+358405050+358684972
2478+358943482+359028203+358850155+358503386+358282932+358397402+358714062
2468+358958897+359092680+359294870+359621606+359881825+359892501+359705756
2458+359488662+359285033+359010929+358636149+358307194+358280983+358675166
2448+359291961+359779111+359901858+359608680+359071328+358723599+358898768
2438+359378600+359675197+359698709+359720571+359847097+359981780+360101588
2428+360210210+360236391+360186129+360132987+360008831+359747382+359573382
2418+359740484+360090612+360288153+360354130+360594107+361149903+361906179
2408+362667764+363253939+363574438+363680721+363674303+363650491+363748287
2398+364060208+364479252+364818194+365028631+365152278+365193513+365184336
2388+365190964+365106573+364613425+363490317+361786101+359569154+356739430
2378+353299210+349598980+346022877+342567571+339036842+335547259+332512857
2368+330211069+328626451+327557234+326702952+325925833+325537258+326116357
2358+328116119+331669970+336622654+342711101+349426450+355472822+358991825
2348+358755238+355195329+350506044+347157891+345921602+346031514+346543825
2338+346858025+346830645+346680577+346653377+346990969+348014512+349763413
2328+351682533+353051286+353694652+354122063+355036534+356778477+359115832
2318+361402415+363021280+363861647+364334433+364898596+365728527+366780530
2308+367906817+368938637+369857607+370780775+371714350+372542931+373283193
2298+374090361+374985819+375786210+376351363+376767408+377205435+377694235
2288+378181205+378724076+379380307+379964024+380162195+379877714+379312351
2278+378770920+378452731+378324225+378161892+377804237+377325034+376891685
2268+376530191+376127611+375654016+375288714+375243459+375514025+375932469
2258+376411402+376947405+377451860+377845112+378274953+378953226+379788915
2248+380430031+380668688+380600192+380374491+379992814+379436388+378852551
2238+378437766+378187113+377927464+377550375+377073991+376579584+376197457
2228+376029605+376073090+376336278+376871772+377548876+378084669+378469195
2218+379040706+380022893+381290341+382628535+383967628+385347357+386825452
2208+388442578+390210581+392110839+394106763+396154809+398219199+400303593
2198+402453813+404693582+406971498+409201281+411312755+413243182+414961763
2188+416560925+418247237+420137628+422068505+423720839+424947561+425834772
2178+426501919+427082817+427773536+428601187+429281590+429525615+429318807
2168+428829498+428237624+427638493+427003584+426233783+425178871+423726297
2158+422068595+420618420+419457495+418253565+416791155+415164132+413530751
2148+411987010+410598734+409680454+410124479+412833944+417618986+423308123
2138+429004877+434585901+440164706+445772631+451408686+457037364+462592357
2128+467922279+472765201+477021797+480903853+484640311+488260678+491593686
2118+494285038+496117819+497388506+498669000+500353153+502644984+505762337
2108+510073574+516107230+524191512+533924679+544185062+553781416+561935453
2098+567928984+570666309+569510632+565403984+560115448+554671206+549032332
2088+542547572+534475647+524672124+513725521+502397480+491375992+481217004
2078+472089686+463997307+457152614+451593062+446899038+442790830+439439349
2068+436957264+435083008+433386619+431590425+429789343+428240653+426954521
2058+425852286+425081345+424731546+424668089+424873097+425438580+426311756
2048+427501291+429261887+431893680+435655178+440742035+447213179+455263842
2038+465375477+477705198+491664972+506394456+521122022+534973533+547018354
2028+556572543+563369853+567609535+569653383+569764584+568500165+566754893
2018+564903399+562499017+559064134+554742641+550141285+545702173+541200742
2008+536056216+530142577+523852750+517521597+511272796+505266190+499760559
1998+494993181+491086323+487993592+485471051+483124459+480661508+478214121
1988+476245577+475079884+474661649+474724567+475015796+475385597+475818676
1978+476441829+477479377+479084867+481094287+483058932+484702419+486232216
1968+488024031+490114962+492206163+494093015+495844255+497606080+499493532
1958+501589622+503812477+505898369+507673271+509266315+511096217+513669440
1948+517097125+520788778+524039645+526851585+529679359+532533584+534903777
1938+536480028+537562290+538778666+540492569+542576242+544761401+546949018
1928+549174902+551589720+554338922+557172454+559579655+561613006+563867440
1918+566353813+568221202+569003029+569304484+569965634+571231672+572726231
1908+573921195+574661217+575241634+575913220+576515590+576814466+577008978
1898+577565764+578591706+579672590+580471271+581192760+582074152+582770330
1888+582867496+582664287+582705552+582996271+583177828+583046293+582657329
1878+582247072+582068634+582174917+582552066+583361364+584615646+585598764
1868+585138064+582917998+579937757+577360516+575583215+574320595+573101341
1858+571618178+569884842+568186474+566731681+565466782+564389198+563799963
1848+564058293+565113145+566094643+565592858+563260451+560389552+558164508
1838+556615308+555050753+553054230+551263194+550791218+551568547+551929322
1828+550805553+548959277+546953696+544306879+541209739+538941450+538212164
1818+538416573+538528194+538189012+537817861+537910949+538386103+538644373
1808+538333382+537829497+537868724+538900064+540725348+542594896+543784941
1798+544290145+544920705+546653981+549631103+552337779+552740359+551184621
1788+549963327+550376403+551952953+553842475+556036810+558693583+561270405
1778+563402842+565860785+569695068+574688087+578751851+579856306+578662962
1768+576985826+575574638+574842114+575591552+577857862+580173415+581496134
1758+582523576+583954137+585680575+588089875+592062890+596980815+600243318
1748+600494870+599438998+599283593+600746183+603225538+605480092+606491220
1738+606966914+609243600+614550910+620062209+621138773+618459088+615545963
1728+613910333+613745511+614922421+616778953+618751905+621601632+626761693
1718+633858779+639128781+639318615+636078425+632769618+631289874+632248460
1708+635652633+640612544+645051777+647863716+650658862+655279591+660479598
1698+663544110+664080443+662442174+659515974+657777780+658805642+661668504
1688+664775660+668646171+674552552+679998893+680769684+678659080+677953066
1678+680401593+685242625+690040772+692891938+694888942+698041683+701547581
1668+702524640+701152438+700582397+702371933+705080049+706639865+707367412
1658+709134695+713398369+720761522+729181746+732250697+729409187+727465085
1648+728893787+730871897+729532564+725794127+722969592+722295247+723738584
1638+727299483+731686533+732750262+728519637+723147190+720385573+720474522
1628+721871435+723511983+725755801+728803398+731484584+733131310+735105581
1618+738810370+743106672+744862860+743382216+740731860+738538664+737084411
1608+736000949+735425930+736096076+738097158+740485646+742638475+745100977
1598+748392089+751766993+753947173+754637112+754550862+754177372+753326089
1588+751867638+750256239+749138289+748844571+749359672+750569510+752495139
1578+755116345+757552516+758214205+757357044+756893885+757401188+757775938
1568+757504532+757723576+758973240+760839430+764397809+772744559+786401618
1558+795824633+793675402+787561913+783491972+781686002+780789135+780056310
1548+780009526+782300608+788493149+798381661+809359694+816588554+815058128
1538+807457037+801677812+801114729+804804102+809150667+811031911+811099748
1528+812029723+815719997+822213753+830276142+838216114+843986462+847022724
1518+848766916+850055746+850964070+852509491+856452636+863559379+873088856
1508+882527766+886295592+881537931+874817574+871902290+873403807+877990468
1498+883837349+888902943+891855114+893348653+895154923+898384558+902593650
1488+905893040+906638400+905279514+904017254+904520059+906556169+909073491
1478+912033159+916362510+922469401+929183640+933683331+933883182+931452409
1468+929819898+930465093+931736950+930808654+927931936+926375719+928486023
1458+933467767+936686784+934377110+928994586+924465025+922813681+924161231
1448+926251622+926083801+923790860+922337567+923020789+924618572+926718979
1438+930319104+934109363+934318150+931368558+929763278+931899073+935854335
1428+938145656+938233645+938165089+939232297+941355377+944306648+947604358
1418+949826643+950067939+949332476+948918800+948793444+947831319+945579224
1408+943250416+942177810+942395834+943508686+945673331+948930256+952578364
1398+955630100+957746462+959395947+960622340+960125413+956919471+952152752
1388+948080352+946053179+946164620+948086170+951083625+954123545+956669358
1378+958637632+960385302+962823272+965726140+967085087+966395567+966433894
1368+970140241+977433039+985513002+991203638+992685602+990864157+989349984
1358+991531604+997876672+1005123705+1008331147+1005986864+1002177952+1001839670
1348+1005987944+1012098194+1016873969+1018772427+1019092955+1020340640
1340+1023601343+1027946708+1032028645+1035326056+1037721621+1038951912
1331+1038644459+1036906145+1035095736+1035091418+1037380939+1040796989
1322+1043924538+1045783650+1046192348+1046058354+1046815530+1049283070
1314+1053130489+1057325066+1060719523+1062424609+1062361750+1062184812
1305+1063948197+1067577052+1071327065+1073658332+1073741823+1071733243
1297+1068265012+1063234206+1056204897+1047884957+1040652919+1036354217
1288+1033894115+1030899719+1026999039+1023294011+1019278410+1012922067
1280+1004310089+996964150+993917692+993865570+992572061+988102539+982708320
1270+978649235+974929452+969433328+962453141+956269057+951956921+948393683
1260+944339876+939814214+934943672+929133438+922023336+914098299+906144832
1250+898682234+891805151+885427215+879479208+873499833+866432377+857610772
1240+847802212+838461848+830587853+824808988+821307229+819160457+816878373
1230+814110398+811773193+810321099+809041625+807121994+804619967+802248933
1220+800790782+800522435+800780105+800824910+801358064+803961336+808746048
1210+813788670+817365043+819754190+822477601+826574353+831537562+835445560
1200+836958772+837333642+839248894+843729272+849163737+853323287+855555349
1190+856692972+857912347+860205948+863894482+868148559+871794088+875215475
1180+880214852+887130081+894482618+902038304+911002539+920842468+928901738
1170+934595733+940437277+946907881+950643619+949112292+944409512+940985846
1160+941147249+943746143+946727884+949690131+953532871+958364907+962706853
1150+964706976+963904875+962272964+962594812+964919302+966412001+965479506
1140+963604560+962385305+962302294+964014757+967489346+970732595+971874837
1130+971882814+973054685+976145108+980451667+985002640+988855157+991309561
1120+992365553+992982678+994397825+996938179+999241616+998771080+995039781
1110+991884881+993601602+999251992+1003023297+1001165145+996427517+993791796
1100+994331368+995467732+995680477+996586941+999482372+1002191507+1002214300
1090+1001126339+1002287474+1005354025+1005717498+999775490+989385192+979891882
1080+975312178+975814203+977834659+976580496+971029072+964334506+960147545
1070+959285526+958397715+954637386+949907255+947169690+946098703+944458515
1060+942724519+944221298+949550620+954199959+953804816+949021004+942918372
1050+937634874+935326339+937745235+943024775+946396919+945923864+944640491
1040+946151485+951279817+958004792+962387224+961244563+955284860+948348819
1030+943582760+941810738+942356428+944287874+946867635+949054952+949381778
1020+947344829+944749473+944114835+945801147+948434409+950870879+951527290
1010+948687221+942945062+936131738+928304527+918932794+909302671+900814670
1000+892935277+884955839+877381140+870489183+863830724+857550014+852617453
990+849494162+847509754+845583406+842995608+839614167+835873751+832730247
980+831162273+831209477+831778438+831381797+829034875+825017775+820818039
970+817769602+815505452+812571514+808858089+805891883+804203652+802276524
960+799166848+796523749+796617317+799640443+803922350+808115908+812284335
950+816844665+821295053+824640387+827143314+830307631+834964468+840789037
940+847537404+855116302+862391286+868097876+872846481+878286164+884687013
930+890812018+896003448+900236472+902527133+902080169+900412990+899692102
920+899386928+897075154+892399664+887745707+885071479+884231772+884376621
910+885366276+887071242+888245032+887607335+886376444+888075771+894460486
900+902719006+908538178+911116979+912328016+912621554+911362953+909676221
890+909193029+909537789+910128823+912383977+917157893+922039471+924281309
880+924665595+924955594+924782974+923600607+922805944+924198958+927543992
870+930938268+932616243+932310410+931439214+931551914+932551766+933578308
860+935298448+938850230+943478876+947320597+949600222+950810240+950799324
850+947999021+942343172+937504659+937352552+941722509+946427988+947396051
840+945029816+943505447+945606515+949616117+951986490+951871091+951502759
830+953278260+958555880+966189539+971366694+970146239+965488623+964268109
820+969213445+976792342+982655358+986327578+990205946+996498472+1004701452
810+1010802765+1011154843+1007061870+1002733658+1000620535+999707833+997601008
800+994144533+991327675+990123535+989233385+987333188+984899356+982559332
790+979179570+972231472+960606205+948247574+941250653+942042497+946864156
780+947759404+940957775+931018460+923325422+919080043+917741969+919602700
770+923302810+924873723+922150192+917828759+915631245+916936630+922287484
760+932118417+944848619+955072295+958186769+957770034+961147876+968851831
750+973628505+971526418+967120534+965384679+967225558+971056662+974130530
740+973505308+967990711+959279468+950125999+943090992+940979968+945745486
730+955854542+965856655+970109052+967265444+961147577+957447467+958808812
720+963268737+967987112+972411110+975806166+974426047+966237822+956714342
710+952403825+954771080+961644263+969786665+975086237+974135449+968097474
700+961620632+957541454+955600111+953485608+947626730+937450498+928222775
690+927655853+938496353+953416212+959727632+955134673+948183336+942959158
680+938183083+933943581+932876613+934199751+931330052+919960056+903439595
670+888350236+881748217+885745884+893377863+901205314+910847852+920693720
660+926431140+928505277+930495923+931994980+931046291+929593837+929858405
650+929094871+923865234+917135221+915487115+920897709+926759525+925552386
640+919487480+913826774+908069561+901049728+893362748+885328009+880385013
630+882722218+890957347+899893991+904633959+902190711+894037693+887709959
620+887013422+881581236+862482094+842315325+836981444+850416281+874418413
610+893367966+897622343+892633163+890516381+896910571+905801932+904664848
600+892583080
##END=
