##TITLE=<SNM>
##JCAMP-DX=4.24
##DATA TYPE=INFRARED SPECTRUM
##DATE=29/4/2025
##SAMPLING PROCEDURE=Instrument type and / or accessory
##ORIGIN=Admin
##XUNITS=1/CM
##YUNITS=ABSORBANCE
##RESOLUTION=4
##FIRSTX=4497.3318
##LASTX=599.83466
##DELTAX=-1.4281778
##MAXY=2.0637169
##MINY=0.42476735
##XFACTOR=1
##YFACTOR=1.9219861e-09
##NPOINTS=2730
##FIRSTY=0.44627813
##XYDATA=(X++(Y..Y))
4497+232196330+231946993+231561080+231537743+231748610+231759836+231374295
4487+230607988+229586499+228692997+228399964+228792623+229415514+229626660
4477+229065358+227990187+227299302+227865209+229643127+231628826+232738900
4467+232681947+232122878+231908539+231963569+231416130+230124402+229153789
4457+229228636+229807103+230108385+229986647+229471848+228430697+227025543
4447+225952357+225858034+226518342+226940276+226674627+226491454+227113400
4437+228109196+228652573+228557552+228243431+228313363+229055232+229924049
4427+229973700+229049418+227935172+227171842+226364817+224937303+223181745
4417+222120219+222434340+223850627+225424765+226282092+226259299+225821595
4407+225300935+224542164+223348326+221941342+221004376+221278367+222748460
4397+224361193+225135687+225171568+225026943+224860936+224601784+224209188
4387+223717120+223515465+224094599+225254665+226092237+225889542+224838825
4377+223932111+223988227+224638472+224753340+224100987+223737030+224439343
4367+225608388+226047549+225299896+223902464+222620412+221786871+221368069
4357+221378939+221937822+222970057+224141861+225102194+225597968+225489053
4347+224986209+224640797+224738501+224972905+225008863+224910555+224685687
4337+224124479+223468420+223446975+224219391+224904524+224601567+223406628
4327+222142052+221545768+221872898+222909258+224128495+224972952+225178329
4317+224855152+224326754+223923428+223794914+223880182+224018402+223982909
4307+223593165+222986509+222525313+222312215+222130267+221897475+221740524
4297+221632292+221440700+221292772+221495064+222143075+223031243+223863513
4287+224443902+224734438+224733833+224396748+223884461+223746690+224417139
4277+225494636+225977865+225417695+224411975+223753885+223621433+223805675
4267+224187852+224707024+225168265+225305493+225031084+224634657+224563748
4257+224854486+225112273+225171785+225261673+225544146+226077832+226993120
4247+228055266+228458484+227753302+226542609+225733226+225599720+225901761
4237+226349264+226690614+226713345+226417770+226137638+226264245+226783882
4227+227338361+227740882+227949267+227594505+226369531+224951801+224582324
4217+225493442+226561014+226741117+226234194+225919252+226082546+226226534
4207+226112348+226322687+227300496+228418773+228649332+227812736+226630187
4197+225808756+225493364+225466663+225567607+225834558+226367763+227242798
4187+228415703+229422291+229584452+228971779+228553536+228948784+229697941
4177+230086351+230070612+230095995+230427607+230867217+230984427+230567130
4167+229776293+228923044+228368518+228463229+229085717+229450760+228958335
4157+228073392+227791013+228380163+229213285+229750940+230037414+230153430
4147+229890835+229128173+228048707+226996144+226334580+226222162+226500649
4137+227048368+227940041+228987952+229660060+229760461+229662246+229679876
4127+229719649+229616534+229351475+228962956+228584966+228428557+228470393
4117+228424743+228320000+228704952+229829618+230996615+231286717+230649094
4107+229777114+229213409+229065280+229358344+230039553+230616284+230431235
4097+229501898+228589742+228331211+228739654+229418616+229758228+229259881
4087+228174212+227434917+227636929+228428325+229045975+229118838+228817122
4077+228479774+228358873+228646618+229412103+230375476+231060500+231340926
4067+231464586+231527603+231414626+231148558+230839152+230470109+230081063
4057+229891580+229960628+229987763+229744180+229499402+229682853+230310862
4047+231133533+232037548+232780488+232750344+231692664+230273632+229344094
4037+229096633+229300894+229847713+230678013+231512097+232029780+232291909
4027+232691561+233330765+233760095+233663570+233433445+233499051+233522031
4017+233002146+232288436+232094626+232318052+232207742+231553125+230947089
4007+230908293+231403275+232165830+232969909+233643738+234142814+234556592
3997+234888777+234930240+234465323+233655631+233131885+233444858+234383452
3987+235168924+235379216+235240112+235082013+235030874+235103457+235205037
3977+235174614+235017570+234864991+234665459+234221910+233573310+233043609
3967+232884486+233079335+233464256+233885662+234260148+234607761+235035262
3957+235563412+235952659+235937665+235760230+236101641+237162717+238135858
3947+238126787+237392485+236931321+237074410+237249256+237062501+236831508
3937+236929956+237420178+238373797+239714974+240627874+240134892+238555869
3927+237293665+237179758+237735462+237968951+237631339+237491490+238356167
3917+239864498+240635534+239969722+238679173+237854160+237680679+237892879
3907+238847831+241330389+245044712+248050954+248875331+248104202+246662748
3897+244612235+242421826+241433473+242404971+244156761+244596604+243843292
3887+244123268+246307661+248447148+248863484+248579445+248277388+246805357
3878+244520842+243815024+245644593+248557349+251172514+252950138+252754437
3868+250573905+248838380+249130963+249966457+249236202+247239897+245414221
3858+244709612+246456813+252443014+260393515+262284721+257001794+250440073
3848+246244955+245145734+246581761+249408427+252422701+255203455+257826698
3838+259458814+258950341+256875576+254731390+253113261+251819518+250897252
3828+250637557+250999405+252159533+255037696+259467171+262315360+261465694
3818+259216625+257645945+255832363+252874794+250098475+249213889+250933505
3808+254440854+257361301+258441062+259127791+260458734+261012732+259941965
3798+258753275+258290870+257875372+257155893+256711243+257050437+258265503
3788+260283206+262610161+264275443+265038463+266156383+268763098+271957179
3778+273862464+274391373+275263927+278180234+283830126+291273503+298109728
3768+302759668+305659879+307729125+310062468+314514179+322201218+331434112
3758+338951578+344098051+349524811+358294293+371266801+384610244+392466050
3748+395254773+397900718+402570195+406296598+406871716+407470527+411550714
3738+419453131+428564521+435067459+437130409+436372537+435362662+435191569
3728+435786783+436786331+437445553+437121260+436468737+436708708+437679042
3718+438190864+438215798+439272656+442544702+446950112+449601298+449424064
3708+448256555+448314548+450895925+456130596+462323291+466320428+466382886
3698+463982774+462069302+462612137+465877763+471270378+477592982+482065192
3688+482062525+478745543+475331370+473841336+474363237+475590630+476417782
3678+476871240+476781088+475352520+473867262+475055797+478611634+480415571
3668+477866291+473320210+469925016+468777013+469425412+471256082+474385038
3658+478800155+482858914+484652338+484920778+486170655+489800579+494223511
3648+496197395+494906923+491847061+488675464+486298641+484718797+483802764
3638+483922471+485289790+487306252+489529844+492807255+498304164+504907706
3628+508945469+509149776+507561713+506284204+506795282+509740027+514217510
3618+518166765+520493285+522002019+523993362+526801871+529468842+530896014
3608+531331051+531979078+533383363+534874235+535345927+534678611+534265779
3598+535667274+539339033+544469659+549159977+551716111+552571422+553815003
3588+556273945+558145333+557908650+556533578+555529223+555249743+555284476
3578+555283670+555197580+555078432+555156955+556025849+558108615+560733285
3568+561910067+560094810+557144762+556450775+558319931+559818927+558585394
3558+555750524+554237325+555414292+558335809+561125959+562554186+563086104
3548+564402874+567293565+570446618+571875961+571029581+568947311+567070031
3538+566539415+567822506+570245660+572316394+572698089+570762382+566880733
3528+562564420+559643461+558813642+559330302+560145546+560582319+560065659
3518+558803036+558635075+561312776+565856717+569295700+570123225+569258114
3508+567908595+566793527+566690382+567629549+568351136+568019308+567234766
3498+566541524+565825333+565674676+567151220+569880525+572130446+572757818
3488+571990209+570677719+569822904+570394642+572406887+574214390+573889509
3478+571642503+569609728+569060877+569126437+568561150+567426296+566387270
3468+565813672+566244987+568351571+571781250+574808518+575290073+572291150
3458+567250582+562919384+561074479+561734167+563828346+565827193+566570303
3448+566283690+565834264+565193742+563907550+562532850+561937792+561407052
3438+559903032+558506189+559012305+560702397+561213289+560589576+561147854
3428+563052115+563602268+561500150+558446026+556069948+554533427+553844589
3418+554063223+554556686+554598801+554408759+554840446+556482904+558951522
3408+560709592+560324485+558328056+556855544+557171432+558452042+558987558
3398+557876956+555500878+553085229+551944669+552598836+554513455+556897969
3388+559343761+561444205+562464127+562206790+561576316+561332313+561152754
3378+560491578+559663495+559469918+560172030+561517269+563357583+565540084
3368+567601204+569207874+570572775+572045101+573665354+575300121+576898355
3358+578386746+579247577+578609288+576455132+574384770+574100204+575348685
3348+576485027+577069418+578478913+581681709+585673326+588226607+587727996
3338+584883265+582548991+582879331+584848221+585433418+583260716+579921406
3328+577638054+577176843+577849680+578475564+578524377+578519539+578811796
3318+578363611+576187560+573644700+573234783+575220730+577387787+578193603
3308+578053491+577527961+576800233+576773067+578602589+582097890+585488433
3298+586855380+585859150+584097917+583351830+583699288+583828484+582954256
3288+581606970+580771755+580922473+581815309+583202724+585251315+587935838
3278+590662476+592709578+593633612+593381298+592271131+590936188+590126030
3268+590228866+590656149+590050423+587884855+585433418+584265381+584387259
3258+584509942+583866691+583105780+583167618+583937833+584717226+585457049
3248+586551773+587560965+587090079+584469068+580862992+577972735+576384424
3238+576134158+577552833+580009108+581335739+580277796+578126431+576790558
3228+576796760+577401556+577596312+577103035+576501774+576185699+575796561
3218+574843190+573180140+571283011+570402705+571521804+573919342+575699989
3208+575932083+575480548+575484704+575569863+574377017+571939970+570011705
3198+569514459+569502116+569127863+569023911+570176689+572377859+574106655
3188+573923002+571783173+568692517+565706123+563824624+563868413+565508080
3178+567108547+567284075+566116411+564564074+563254872+562048629+560599748
3168+559015406+557640768+556612224+556208820+556909009+558405400+559403491
3158+559088036+558120400+557402100+556606766+554961765+552872548+551655141
3148+551764117+552099481+551258870+549052737+546736575+545877790+546855661
3138+548308015+548234331+546023423+543099673+541081101+539917779+538559949
3128+537168441+537166828+538815860+540371795+540195585+538621105+537079002
3118+536140269+535211025+533790923+532267427+531273989+530861343+530804033
3108+531210476+532043893+532500452+531977527+531220152+531257180+531782151
3098+531737494+530873934+529651999+528366985+527301537+526779977+526588261
3088+526228087+525765450+525603506+525607971+525314164+524549345+523277233
3078+521565060+519985774+519305401+519519136+519745152+519256154+518273756
3068+517673984+518064518+519194409+520233715+520598540+520358011+519896831
3058+519493954+519120105+518446741+517412149+516806826+517458791+518801363
3048+519264217+518199234+516430681+514956991+514048897+513333171+512289617
3038+510931819+509830086+509243432+508841672+508461650+508234208+507939098
3028+507305988+506756548+506741725+506708294+505821071+504342388+503311890
3018+503223847+503782993+504559906+505130279+504775408+502969393+500363175
3008+498390440+497593214+497192508+496576981+496155652+496324327+496749780
2998+497106729+497511063+497889068+497742103+496877581+495649102+494389953
2988+493268187+492533884+492354759+492519991+492605460+492324832+491585289
2978+490397715+488921854+487559993+486760224+486542210+486355548+485549267
2968+483953576+482111835+481047627+481426345+482707265+483525052+483148380
2958+482061471+481018909+480266496+479721367+479273058+478850829+478543159
2948+478526009+478641715+478358979+477389388+476108251+475082467+474459002
2938+474063320+473686369+473147070+472475164+472148545+472661949+473785979
2928+474676861+474660921+473755153+472530024+471530476+470870510+470328978
2918+469617035+468535709+467262914+466446585+466493444+466950685+467053800
2908+466642581+466131565+465831617+465668618+465471071+465275696+465240590
2898+465327455+465240094+464711929+463766559+462709948+461842109+461163132
2888+460511228+459980241+459837213+459905750+459538847+458449612+457155481
2878+456373762+456244131+456250024+455762422+454634422+453354774+452658926
2868+452895269+453619306+453862037+453058423+451651253+450532991+450151885
2858+450417348+451016841+451448063+451222047+450438994+449704723+449244412
2848+448663123+447746749+446839865+446223749+445797241+445574172+445830083
2838+446477924+446840392+446327577+444998279+443388849+442070249+441271194
2828+440752270+440178052+439574899+439193948+439077125+439054394+439004681
2818+438900078+438708176+438327720+437660187+436843083+436266724+436161129
2808+436306389+436290852+435883385+435074003+434005081+432986554+432337038
2798+432094121+431974880+431660511+431072183+430303860+429401349+428427603
2788+427663529+427421914+427636704+427921673+428022741+427890382+427408486
2778+426491957+425389698+424459306+423717623+422981584+422252585+421632004
2768+421129051+420808170+420821691+421060484+421007639+420214476+418879161
2758+417760465+417440173+417743284+417946444+417537768+416707049+416020133
2748+415670039+415281893+414526161+413563703+412710470+412055714+411560917
2738+411196650+410944398+410840229+410877723+410859146+410590210+410158027
2728+409766562+409417398+408955878+408295477+407483335+406683132+406160424
2718+406110929+406323703+406172550+405242190+403829407+402617737+402071367
2708+402200811+402599688+402706214+402300856+401647371+401024495+400425312
2698+399781720+399168240+398770449+398740275+398927990+398873782+398348624
2688+397712041+397456285+397582380+397609577+397090126+396045456+394916029
2678+394078364+393482096+392860212+392195036+391758635+391681291+391707031
2668+391507345+391091784+390717283+390479793+390215074+389820788+389471345
2658+389337249+389196733+388620530+387594126+386623388+386139322+386121676
2648+386334232+386616255+386893223+387076753+387035289+386679892+386085361
2638+385465028+384971409+384574673+384157716+383691482+383301599+383147624
2628+383218208+383311213+383243141+382981958+382569871+382089278+381705287
2618+381487831+381238091+380795643+380403341+380386936+380613913+380642816
2608+380297745+379820005+379524585+379450807+379352964+379051869+378705806
2598+378579029+378668498+378747734+378641704+378309162+377812040+377313708
2588+377010379+377001417+377213198+377416978+377397688+377162090+376869337
2578+376567156+376179320+375738825+375420549+375312069+375292593+375162684
2568+374838547+374430987+374150855+374101019+374180317+374215609+374108369
2558+373826222+373397853+372983315+372802981+372934099+373240963+373462668
2548+373360080+372897288+372311844+371927047+371888344+372103567+372396754
2538+372685507+372977702+373211998+373251228+373087609+372892450+372830612
2528+372940302+373137786+373262920+373217983+373079081+372993984+373043231
2518+373221364+373405327+373388580+373134499+372893133+372901258+373114248
2508+373339364+373451690+373395434+373147896+372792437+372534975+372529920
2498+372697788+372782606+372600534+372222994+371942491+372023649+372402151
2488+372695183+372625158+372328435+372121368+372114421+372215117+372381714
2478+372668358+373052224+373381138+373500007+373350094+372989301+372590052
2468+372350205+372326667+372396351+372399390+372262969+372003584+371695263
2458+371439848+371287517+371179285+371052136+370983847+371062835+371122347
2448+370900425+370519629+370453759+370914908+371571742+371933745+371815589
2438+371403564+370997121+370755847+370702538+370873104+371303271+371901617
2428+372481014+372880697+372984401+372749919+372342111+372124159+372337925
2418+372817463+373179994+373288381+373335984+373503139+373769222+374043926
2408+374269787+374418737+374501663+374525170+374457347+374354263+374427359
2398+374837957+375495660+376152618+376616062+376839100+376912040+377016117
2388+377293364+377650467+377730509+377191086+375980502+374229564+371956074
2378+369087742+365768527+362403539+359313471+356513428+353888603+351422374
2368+349228305+347563364+346722039+346660201+346968491+347491044+348634518
2358+350792768+353831138+357514434+362103187+367685411+372987068+375918571
2348+375300719+371786934+367587102+364919171+364266120+364637892+365072928
2338+365381963+365803757+366221241+366174226+365786204+365914315+367004015
2328+368513555+369800491+370894750+372081114+373308042+374418024+375539852
2318+376762035+377763723+378286865+378668498+379403018+380451503+381415046
2308+382109063+382635926+383165239+383844929+384693573+385533781+386224977
2298+386881687+387668865+388556056+389432983+390264104+391006067+391563011
2288+391944986+392310277+392725992+393010342+392934362+392492968+391884761
2278+391322358+390950245+390820863+390827810+390733161+390342162+389654532
2268+388854051+388174329+387763234+387648180+387809659+388230647+388845119
2258+389519537+390156617+390779214+391455865+392179096+392841853+393317050
2248+393555812+393596220+393482437+393233535+392906979+392561381+392109629
2238+391425969+390645769+390051858+389634158+389128414+388501382+388016199
2228+387837105+387892182+388054003+388200690+388180718+387929397+387592141
2218+387412302+387482669+387688030+387916558+388205621+388585363+388926805
2208+389134213+389368261+389876547+390685837+391616011+392506024+393287217
2198+393914559+394366497+394697798+395039767+395545015+396267657+397073721
2188+397785384+398391917+398950009+399386410+399640553+399858661+400199328
2178+400594421+400887422+401066733+401232400+401422348+401569128+401648581
2168+401801997+402182328+402737381+403304715+403818956+404252442+404512819
2158+404582658+404608863+404722212+404912935+405153216+405484270+405912142
2148+406326990+406609013+406750521+406819150+406875034+406972133+407181650
2138+407545110+408007686+408446753+408806183+409174946+409641367+410098422
2128+410360939+410479559+410749581+411378101+412263401+413125845+413794464
2118+414343190+414952824+415652610+416241249+416517628+416580117+416791929
2108+417376443+418145696+418737126+419005411+419053511+419013195+418950768
2098+418897210+418876835+418951078+419190460+419529111+419777982+419910217
2088+420164857+420683688+421221467+421437124+421318845+421094287+420883901
2078+420702140+420655653+420850656+421176127+421417525+421563405+421812928
2068+422262416+422743939+423048756+423178418+423291022+423513161+423868993
2058+424278848+424602427+424803540+425058582+425578499+426342790+427116663
2048+427737586+428290095+428950682+429761491+430639875+431481820+432160952
2038+432618007+433066099+433853184+435001652+436168634+437158506+438158178
2028+439359428+440681687+442015234+443445166+445060179+446756256+448377223
2018+449892035+451335427+452703398+454008755+455375857+456978061+458808204
2008+460575671+462000363+463137077+464187081+465154284+465976381+466778382
1998+467716217+468816709+470144674+471771315+473440878+474673605+475378012
1988+476014006+477055575+478529855+480084270+481409909+482618571+484166194
1978+486324288+488823670+491170938+493221389+495241387+497508737+500061583
1968+502729887+505236929+507389348+509282724+511189187+513195540+515117075
1958+516842025+518603662+520780332+523494441+526493426+529411284+532117701
1948+534823995+537869560+541369947+544968084+547967379+549977950+551370017
1938+552826712+554703311+556995098+559578956+562233584+564693022+566918320
1928+569192368+571865603+574983550+578087790+580553616+582283714+583644521
1918+584697006+585237236+585604976+586554378+588368952+590660925+592754422
1908+594060337+594494505+594598396+594877318+595282396+595695662+596390828
1898+597577037+598966126+600129325+600992699+601767875+602489462+602794248
1888+602343520+601367014+600469092+600090188+600311799+600888809+601369681
1878+601379233+600905431+600359744+600447942+601766511+604042544+605653245
1868+604726172+601391141+597664180+595043170+593468070+592051007+590152949
1858+587890871+585876827+584538783+583720749+582977639+582072088+581137386
1848+580682874+581289966+582612628+582867546+580793029+577504888+574785321
1838+573216300+572219512+571062206+569891379+569531267+569975731+569723976
1828+567716693+564840764+562237740+559978577+557930544+556411266+555580641
1818+555166320+554995692+555226546+555903848+556635297+556854304+556390302
1808+555632059+555078618+555060631+555844801+557460899+559270635+560232752
1798+560086623+559955690+561411394+564801998+568088217+568600969+566914164
1788+565863415+566756499+568813650+570969232+573072590+575240516+577245504
1778+579052077+581245494+584659792+589454744+593908254+595329349+593592862
1768+591003050+589364748+589381556+591172996+593938274+596044485+596873064
1758+597278205+597874318+598858701+600959020+604878007+609832361+613572099
1748+614839125+614742988+615074879+616699350+619375438+622096989+623636115
1738+624116181+625645941+629911704+635055666+637113685+636155786+634678436
1728+633660188+633365201+634009383+635168674+636477008+638815623+643452228
1718+649908990+654894418+655425468+652583155+649452865+648309639+650002708
1708+654162349+659410448+663952529+667486223+671665277+677249671+681941787
1698+683885495+684490478+684525769+683561420+682629757+683259301+685694426
1688+689719722+696021982+704345232+709991154+709134230+705852416+704629488
1678+706217179+709675762+713758244+717641505+721685161+726403700+730445804
1668+731552685+730389114+729830464+731452950+734420923+736653912+737534467
1658+738694006+742466678+750279409+759719897+762765462+758941930+756756266
1648+759155417+762714665+762363423+758260100+753898882+751222112+750980342
1638+753223688+755966576+755116723+749874392+744419504+741515726+740890524
1628+741023689+740855046+740536677+740321019+739840519+739405545+740231891
1618+742155131+742151348+737846447+732084479+728862952+729054854+730835315
1608+731836755+731458967+730795744+730688876+730881771+730884438+730892253
1598+731432544+732418230+733152408+733369244+733704360+734859185+736937982
1588+739801072+743278758+746740877+749188840+750284308+751016254+752984462
1578+756880686+760930358+761555312+758631624+755653045+754224322+752867795
1568+749807468+745650743+742007514+740123287+741595861+748191742+758108203
1558+761628004+754918805+746488563+741302984+739124452+738172508+737304978
1548+737029095+738719683+742992145+749314997+756873988+763693528+764891832
1538+759636103+754363752+753229022+755519879+758377760+760841167+764514105
1528+770114129+776347232+782135313+788232459+795111480+801001963+804340715
1518+806011146+806987218+807684864+809607981+814551480+822709685+832906804
1508+843433954+850643129+851124435+848488600+848110998+851441440+856991782
1498+862105972+864900216+865772025+866866315+869854198+874787836+880190871
1488+884123504+885795051+886146913+887381563+891205219+896794575+901767040
1478+905497536+909477121+914835127+921288416+927212329+930127023+929583135
1468+928260845+928991860+931594821+932863709+931577517+930410473+931731274
1458+934905911+936201903+932838961+926738217+920786269+916447379+913673293
1448+910947400+906892580+902079021+898510035+897732254+899787482+903608905
1438+907785354+910734348+911547607+911000307+910212478+909547704+909247260
1428+909589198+910324121+910916450+911331205+912122507+913785743+916184770
1418+918308162+918746051+916997098+914104670+912158729+912605302+914749596
1408+916775362+917728795+917626952+916826966+916239165+917045291+919519243
1398+922534602+924766846+926159533+927425629+928410075+928507514+928226918
1388+928398290+928428062+927875366+928915446+933569108+940056757+944447375
1378+945445031+945656037+948154054+953019342+957400594+958976872+958117281
1368+956698172+956477428+958163489+961229150+964796709+968608829+972550331
1358+975812297+977549094+977759107+977108351+976553298+977041179+978824121
1348+981359353+984198564+987165979+989698171+991320781+992801667+995565084
1338+999799774+1004365237+1008768136+1013590751+1018782533+1022828111
1330+1024177381+1023190765+1021884850+1021839076+1023385955+1026513639
1321+1030742499+1034341070+1035825676+1036136913+1037188034+1038994421
1312+1040587880+1042582200+1047023367+1055141070+1065149389+1072426046
1304+1073741823+1070699545+1067199034+1065325289+1064432267+1062454445
1295+1058345975+1053555984+1050011932+1047519187+1043918445+1037529476
1287+1029543140+1023267179+1020183903+1017917174+1013503421+1007235708
1278+1001486269+997709689+995715306+994059513+991267875+987871874+985862854
1268+985547772+984734700+981293111+975190259+967785150+960456083+954116794
1258+948991130+944546738+939867708+934508399+928749966+923033027+917640225
1248+912441869+906506667+898744300+889375139+879880999+871370995+863814113
1238+856750509+850002420+843695633+838158191+833675530+830094822+827067057
1228+824858817+824176615+824789846+825173588+824196586+822517100+821507721
1218+821454319+821637227+821856296+822906797+825381369+828906069+832799255
1208+836685803+840435465+844345769+849079379+854493765+859209141+862205893
1198+864026236+865971929+869041807+873373130+877945168+881474086+883764571
1188+885331545+886385085+887349869+889362052+893227574+898689967+904708591
1178+910136250+914813915+919995649+927236704+936880012+947699542+957750347
1168+965132507+968175095+966533319+963369847+963919131+969826422+977322148
1158+982608889+986099786+989008526+990545419+990768768+991519010+993109492
1148+993891801+993390585+992811590+992726121+992539367+992183101+992967457
1138+996061711+1000021323+1001181483+997735367+991779263+987207411+987004778
1128+991678598+999351030+1007335753+1013352889+1015621355+1013779800+1010094767
1118+1008171093+1009719088+1013155714+1016040637+1017923686+1019949018
1110+1022402502+1023681251+1022426753+1020205487+1019789865+1021411854
1101+1023005810+1023514096+1024006009+1025803030+1029490730+1034431687
1093+1037371997+1034303669+1026150675+1018626790+1015678417+1016332832
1084+1016858424+1015014574+1011761414+1008180148+1003610653+998089400+993059686
1074+988243646+981878246+974865315+970553281+970291912+972192390+974556063
1064+977712713+981795444+985374415+985575993+980641487+973276322+968211131
1054+966942554+966916504+965432765+962792155+961323116+962528367+965598803
1044+968274023+968702547+966813482+964934340+965941920+970160856+975245212
1034+979032336+980632804+979566673+976159694+971727334+967871301+966028630
1024+966728881+968627188+969579629+968969064+967678717+966911107+968333814
1014+973280911+980475449+985212719+982434725+971771247+957669468+945249097
1004+936794915+931089450+925554861+919191632+912442427+905377334+897875220
994+890767020+885351331+881644280+878251256+874209338+870040890+866714976
984+864162874+861337557+857651098+853846235+851134111+849507345+847727504
974+845048004+841810723+838425143+834944913+831614844+828772036+826072751
964+822952323+819929458+818173869+817971422+818667890+820029689+822643629
954+826997218+832768429+838419002+841772206+842539257+843390103+846761852
944+851947928+857087175+862504414+869720164+878239224+885657792+891000168
934+896278349+903926902+913846651+923763918+931637618+936442556+937339423
924+934191209+928717590+923774462+921368364+921670359+923340170+925120445
914+926845767+928169111+927793122+924900260+920332005+916078585+913989182
904+914432033+916334992+918622686+920658003+921556545+921152645+921449182
894+924668910+930174286+935370285+938977229+941540248+943381430+944044281
884+943856906+944395089+946644514+949404892+950561578+949894200+949170069
874+949854876+952108147+954856555+956280812+955600719+954715636+956544166
864+961212962+965050449+964627569+960911153+957304953+955112838+953170184
854+951467315+952253221+956412613+961545658+965297739+968038022+970861045
844+973108113+972700367+969899362+968200090+970153289+975026701+980885241
834+985826694+987714953+987700998+990475766+997589238+1004138477+1004701469
824+1001373013+1001482175+1008611153+1019367171+1026876480+1026857377
815+1021306166+1015508781+1012767010+1013595837+1014955961+1011999897
807+1005485453+1002833120+1008221084+1016520207+1019759163+1016159847
798+1009789609+1005151578+1003608048+1004053194+1003753928+999067580+990094194
788+981712890+976733416+973334624+968567273+962332495+957462370+956287077
778+958278047+961062801+962426709+960909540+956684837+951674351+947560732
768+945351995+946691032+952578475+960476364+965511908+965267037+961649052
758+958988408+960798207+967139046+974976462+981537114+986069208+988037416
748+986758295+983601149+981912607+983865247+989411868+997988487+1007738909
738+1013763550+1011414080+1002985079+995680759+993126176+992950276+989822653
728+982025677+975449333+977159955+985858885+993027248+995096989+996674818
718+1001230544+1007178212+1012499190+1017326767+1020885705+1020813447
710+1016830513+1010813439+1002862333+992114254+981320092+975736070+977343608
700+982474359+986726539+989923008+992524233+992114130+986039437+976166268
690+967674623+963478451+963003347+965735939+970330987+971894551+966649118
680+957069820+949662788+947674298+947870790+946134986+942861297+939762453
670+936968954+937696558+948503435+963725554+971165024+969592095+966204592
660+966377019+966652777+958556597+940638356+921010176+906917638+901902315
650+907500478+920831175+934587294+942039355+942721805+940324205+936550726
640+932988439+930235255+927446407+924994474+924007796+924149893+921546621
630+912885899+901745952+896302787+900469932+909857948+917651576+921023387
620+919686335+913009947+902597728+893439386+890618410+895363805+902558901
610+904607988+899522639+889794917+877766725+869540480+873175211+885910416
600+891167385
##END=
