##TITLE=<SNM>
##JCAMP-DX=4.24
##DATA TYPE=INFRARED SPECTRUM
##DATE=29/4/2025
##SAMPLING PROCEDURE=Instrument type and / or accessory
##ORIGIN=Admin
##XUNITS=1/CM
##YUNITS=ABSORBANCE
##RESOLUTION=4
##FIRSTX=4497.3318
##LASTX=599.83466
##DELTAX=-1.4281778
##MAXY=2.0893192
##MINY=0.53069246
##XFACTOR=1
##YFACTOR=1.9458302e-09
##NPOINTS=2730
##FIRSTY=0.54054374
##XYDATA=(X++(Y..Y))
4497+277795948+277478508+278760702+280701269+281720120+281038068+278953622
4487+276501195+274991559+275126186+276254056+277055511+277088226+276968026
4477+277136901+277472260+277999957+279086259+280780422+282429985+283187269
4467+282634515+280991415+279066532+277707513+277016486+276554311+276426361
4457+277316925+279149330+280616327+280591699+279288093+277668702+276384273
4447+275448802+274604095+273925106+273890216+274663092+275643224+276101876
4437+276153522+276656499+278115623+280049604+281494668+281828373+281081198
4427+279648019+278077394+277217310+277827621+279525951+280619880+279672249
4417+277093955+274703281+273992588+275118804+277139657+278871100+279518476
4407+278790691+277060167+275486541+275234930+276327052+277706074+278429448
4397+278352378+277818585+277292664+277272570+277935078+278772434+279094223
4387+278894809+278856151+279402320+280101403+280146983+279048765+276864245
4377+274373681+272878503+273128521+274493207+275624783+275925804+276016750
4367+276622804+277381405+277400765+276768949+276369171+276418182+276491883
4357+276627092+277064609+277315332+276718651+275552798+274694245+274547885
4347+274883458+275419671+276064015+276556241+276341112+275210639+273808245
4337+272953245+272733185+272781185+273075987+273821172+274819866+275701486
4327+276611562+277897554+279215894+279727540+279032194+277421656+275586524
4317+274477278+274901868+276701038+278676893+279712316+279734616+279411540
4307+279144919+278773139+278171067+277608878+277345014+277352121+277619691
4297+278147940+278593666+278555315+278289735+278481767+279094407+279135699
4287+278084961+276977921+277163765+278355227+278965140+278280362+277131479
4277+276375114+275950554+275595897+275533561+276107084+277190966+278251660
4267+278860716+278962843+278769800+278655298+279026098+279847311+280421170
4257+280171642+279413255+278870334+278823437+279018654+278996875+278435023
4247+277530767+276934760+277065252+277707329+278417746+279046621+279547975
4237+279525093+278612198+277260746+276325612+275870299+275403345+275185429
4227+276022570+277801860+279461868+280317297+280464361+280153631+279425784
4217+278266455+276916810+275884542+275495516+275676674+276344390+277444599
4207+278494572+278929576+279031428+279644986+280940137+282138063+282438287
4197+281844669+280995643+280324771+279654053+278734941+277868055+277563114
4187+277799501+278123373+278311515+278430980+278425251+278226756+278126467
4177+278417471+278835383+278960331+278927156+279098359+279356525+279396592
4167+279399869+279767453+280439029+280971106+281073632+280717443+279927413
4157+278842030+277846919+277369520+277558795+278191836+278821078+279026496
4147+278737820+278378629+278598843+279676691+281033534+281646327+281122520
4137+280090284+279462420+279584948+280162973+280740693+281056999+281011816
4127+280587380+280040905+279856439+280081615+280056772+279356801+278630823
4117+278822732+279859594+280725867+280750862+280226657+279756089+279537315
4107+279289625+278637439+277706747+277263196+277854639+278957084+279497218
4097+279105618+278329710+277838220+277949475+278676219+279718044+280546761
4087+280903961+281104294+281572933+282225854+282620608+282642694+282571873
4077+282476301+282151816+281704926+281495955+281422499+280959834+280020044
4067+279178798+278949977+279285581+279817046+280269971+280631827+281098413
4057+281806042+282471094+282490085+281625926+280415932+279684042+279671207
4047+279858951+279807887+279860299+280569337+281715096+282477526+282375797
4037+281597408+280751046+280561189+281286800+282340724+282930880+282870718
4027+282326327+281323037+280083820+279328129+279637757+280788295+282009071
4017+282676634+282610592+281958957+281059449+280367840+280232079+280654739
4007+281290629+281634350+281487623+281388437+282054529+283215114+283709392
3997+283047373+282138369+282083201+282834940+283454901+283372072+282952720
3987+282810282+282999281+283122115+282942796+282694615+282827772+283471105
3977+284256632+284754157+284805496+284424342+283871404+283714231+284190467
3967+284839069+285346488+286043365+287026621+287743716+287857085+287586176
3957+287053792+286230557+285470578+285260013+285513554+285712816+285632958
3947+285480104+285451494+285620552+286033226+286458429+286439008+286013285
3937+285781523+285974872+286113176+285832005+285394794+285026077+284483248
3927+283738124+283285874+283453247+284059730+285059496+286795534+289180724
3917+291249700+292004718+291351031+289916504+288445342+287490819+287306108
3907+288067741+289984538+292638738+294663176+295083784+294276079+292927322
3897+291249149+289516696+288442922+288792065+290441720+291951265+292347796
3887+292420608+293046511+293780025+294030656+294069007+293718577+292324546
3878+290517473+289784511+290512725+291968909+293774603+295600698+296112314
3868+294880387+293770162+294343562+295742647+296066948+294932217+293326610
3858+292272104+292731615+295661319+300050546+301825547+299613489+296182032
3848+294110667+294258956+295969875+297927474+299421181+300837757+302553578
3838+303583456+302638489+300305435+298255113+297347488+297206427+297130981
3828+296988266+297132175+298119689+300550766+304101779+306435753+305709193
3818+303570958+302489434+302528766+302147979+300928643+299753171+299552286
3808+300366117+301049516+301012544+301656122+304236775+307269188+308609246
3798+308662392+308401163+307571648+305997624+304587878+304304410+305316522
3788+307345462+310114410+313216389+316108967+318635310+321150747+324002064
3778+327233831+330662561+333863297+336547303+339291684+343031237+347437281
3768+351126597+353663753+355833141+358490527+362196660+367309813+373554848
3758+379867825+385551774+390836803+396379538+402997487+410725723+417763667
3748+423087200+428200506+434446246+439905662+441958802+442243526+444058655
3738+448697134+454670709+459351430+461870359+463465398+465132697+466512790
3728+467032033+466805663+466216518+465365285+464348671+463525007+463099192
3718+462923977+463280748+465231423+469391033+474359327+477503088+478422568
3708+479018452+480268053+481692226+482926604+484298855+485844025+487058399
3698+488134164+490140957+493554188+497662519+501873835+506222536+509745276
3688+510503510+508685409+506391717+504969137+504346786+504036025+504506195
3678+507001661+511190524+514105831+514529410+515090895+517152611+517939915
3668+515126673+510915755+508584967+508876185+510146279+510920870+511459564
3658+512755634+515123610+518207209+521844880+525975420+529836950+531993319
3648+531635231+529521685+526913126+525060688+525032322+526559388+528069484
3638+528610200+528598866+528481117+528422609+529277303+532309380+537489555
3628+542148006+543520197+542087723+540360140+540460368+542618453+545074096
3618+546171579+546301153+546393845+546268315+545952928+547186846+551341830
3608+556516920+559485160+559877984+559699094+560420109+561926039+563370154
3598+564672626+566946867+570617866+573375786+572379511+568644920+566525371
3588+568923304+573954424+577565568+578213618+576736605+574535023+573160075
3578+573913255+577149218+582072084+586947043+589967602+590838102+591349901
3568+593432141+596267131+596757488+593567289+588752492+585500355+585533438
3558+588188373+591667616+595035664+598399975+601306338+602696724+602924013
3548+603360642+603690058+602076916+598591976+595566639+594264657+594010718
3538+594217361+594854935+594972195+593391890+591180016+591099209+594179377
3528+598103825+599749682+598934136+597968738+598087468+598294540+597660519
3518+596917755+596969094+597085005+595880188+593750652+592956549+595211798
3508+599807086+604051332+605659817+604859710+603747340+603542412+603486417
3498+602753577+602488120+604540831+608505590+611470522+611401110+609601970
3488+608372525+608163921+608586091+610255289+613406892+615934092+615217120
3478+611209476+605840362+600813408+597374110+596633122+598841137+602703463
3468+605966689+606683538+604219991+600072359+597142838+597322158+599803717
3458+602215189+603200314+603037413+602377355+601240908+599120807+595874552
3448+592526414+590841655+591292496+592072571+591429238+590203897+590237531
3438+591188531+591060306+589524357+588554977+589529564+591406999+592215622
3428+591168192+588650181+585466599+583110141+583427366+586609968+590199425
3418+591309834+589509592+586693532+584863271+584793920+586123042+587764610
3408+588492304+587867044+586442473+585117455+584460215+584459603+584838459
3398+585322200+585410971+584637758+583294240+582161469+581652978+581699783
3388+581972040+582107801+582171148+582733368+584067452+585221482+584581212
3378+581843141+578645039+576918069+577154119+578431473+579490482+579378062
3368+578040854+576847922+577667572+580587107+583102054+582510735+578817681
3358+574514009+572222185+573158176+576715163+580731874+582961637+582981977
3348+582270335+582368296+583366470+584117444+583934999+583589042+583872816
3338+584056792+583154068+581803871+581208201+581350150+581859744+583399430
3328+586371406+589274645+590207573+589583109+589600385+591107541+592436295
3318+591626018+589102371+587284056+587750397+589570427+590501456+589780992
3308+589178399+590555858+593256252+595037257+595325259+595755209+597016512
3298+597691886+597102098+596812809+597905391+599082456+598827720+597775879
3288+597810493+599411995+601068266+601311178+600292113+599013656+598238912
3278+598315063+599313115+601133574+603199211+604572995+604910436+604843904
3268+605000740+605100784+604564234+603555032+602662355+602409151+603256861
3258+604625743+604679165+602535293+599910010+599180172+600523446+601884854
3248+601497727+599927531+599097894+599912093+601873520+604333514+606729548
3238+608142111+608097817+606971234+604825708+601570876+598410329+597124092
3228+597674426+598138133+597207901+595633539+595133993+596439834+598464119
3218+599434172+598849653+597768589+597055844+596426969+595428672+594238130
3208+593286026+592828507+592894978+593067743+592371416+590119414+586965790
3198+584351043+583013957+582591664+582514655+582882546+584080073+585391183
3188+585016370+582506507+579835030+579006435+579711339+580093871+579382106
3178+578891994+580161813+582727915+584453783+583839060+581168318+577672228
3168+574641622+572949021+572466138+572333686+572027243+571459633+570600895
3158+570017050+570786586+572980817+575102082+575608735+574455625+572834151
3148+571663335+570567139+568783438+566664930+565066124+563866330+562422094
3138+561047943+560758899+561769142+563107270+563480245+562337794+560503306
3128+559591943+560360928+561747026+561941723+560248386+557356359+554286422
3118+551890326+550890743+551408975+552621144+553452803+553508001+553211913
3108+553161492+553547946+554190605+554769120+554792094+553607433+550930626
3098+547452854+544565422+543263440+543490790+544531175+545656839+546324678
3088+546176235+545288091+544363312+544234719+544971479+545759702+545945822
3078+545874939+546297477+547319421+548304301+548475840+547543831+546077784
3068+544994208+544447795+543818307+542811863+541701208+540645936+539657748
3058+538945984+538726107+538896666+539025994+538527857+537153829+535419568
3048+534032429+533078426+532505608+532754463+533812553+534449147+533719676
3038+532472832+532039389+532319305+532292042+531582238+530664074+530200735
3028+530555882+531290376+531183042+529510841+527040065+524964258+523546242
3018+522488948+521854315+521758008+521686452+520962740+519657389+518561193
3008+518468929+519577623+521108671+521599518+520348814+518393636+517265459
2998+517186000+517169091+516500517+515432564+514593615+514174018+513807445
2988+513163224+512350986+511554187+510739774+510096288+510158165+511052925
2978+512103326+512367343+511414199+509795849+508785790+509111194+509891482
2968+509602347+508084961+506587057+505982014+505967280+505687610+504452406
2958+502356994+500576816+500280206+501141486+501849636+501925175+501863972
2948+501750695+501107239+500029392+499259794+499148906+499437337+499793587
2938+499780905+498741255+496607921+494456943+493507872+493879101+494674951
2928+494998823+494723074+494407717+494411424+494153043+492826556+490875206
2918+489813287+490248108+490914354+490246852+488427343+487043818+486976765
2908+487550563+487749273+487430486+486964114+486388018+485564722+484702616
2898+484142847+483812818+483293085+482428466+481600269+481261541+481391451
2888+481639907+481829641+481813652+481009991+478996795+476592154+475267994
2878+475408871+476136717+476756494+477310014+477765788+477782206+477293718
2868+476563421+475773330+474997054+474363370+473960682+473712777+473435466
2858+472928629+472091304+471117176+470467135+470409547+470602957+470417541
2848+469769797+469276776+469359605+469607387+469322632+468396014+467306771
2838+466445553+465800658+465257859+464841754+464532769+464142518+463498266
2828+462523556+461236584+460004504+459522479+460074528+461061552+461595253
2818+461274383+460242208+458916425+457828928+457345463+457334405+457284230
2808+456814611+455958998+454944099+453932754+453073833+452496205+452089566
2798+451549309+450754409+449847457+448978918+448292945+448025099+448271503
2788+448751016+449051730+449046829+448918022+448815435+448602604+448009967
2778+446999265+445842019+444832389+444040582+443348422+442654332+442087487
2768+441954176+442253451+442394909+441840470+440913271+440407843+440490703
2758+440529850+439996823+439084235+438365884+438199951+438506822+438840466
2748+438706818+438076320+437461873+437219543+437055325+436595784+436056814
2738+435788386+435557115+434881679+433771791+432716335+432165817+432189618
2728+432383825+432111690+431135663+429925791+429097901+428776663+428725048
2718+428737148+428622737+428155691+427320909+426364149+425521647+424952995
2708+424812363+425038305+425268473+425234043+425016097+424823421+424730882
2698+424610989+424221656+423494422+422678600+422004360+421440915+420953927
2688+420617313+420388185+420155903+419967210+419853443+419586485+418917360
2678+417956833+417175778+417017564+417426133+417812464+417667758+417056834
2668+416296242+415469638+414587406+413894296+413643634+413763344+413947596
2658+413889548+413392329+412521340+411657977+411215774+411315573+411722182
2648+411971710+411704997+411043530+410441458+410119210+409923839+409676302
2638+409304828+408771280+408203638+407912144+408017610+408247105+408258623
2628+407988847+407596053+407249636+407052274+407048506+407193181+407282657
2618+407029239+406373071+405673988+405389539+405592108+405969311+406189953
2608+406087152+405657201+405103283+404748503+404751352+404908617+404792981
2598+404192992+403435984+403065061+403157264+403277862+403133616+402825427
2588+402431010+401860949+401196388+400751642+400747445+401118245+401567709
2578+401751991+401577970+401301425+401162999+401074503+400844304+400473718
2568+400042113+399564468+399094819+398732534+398484170+398280529+398072660
2558+397832812+397609045+397596823+397945445+398464321+398680797+398270390
2548+397430062+396764276+396719094+397168036+397635358+397821386+397793235
2538+397752495+397714358+397462287+396931955+396537936+396784524+397589808
2528+398355087+398698135+398766995+398815179+398840144+398727725+398464566
2518+398109602+397730011+397411193+397233650+397229300+397361784+397525757
2508+397635082+397739874+397929180+398134904+398189552+398061326+397907952
2498+397901274+398027447+398086751+397935122+397662590+397461828+397387086
2488+397292862+397006422+396617089+396506845+396885824+397428041+397645681
2478+397494634+397360650+397569805+398076642+398570124+398807491+398789357
2468+398646213+398532783+398589483+398804397+398993121+399007763+398809604
2458+398408724+397944067+397626536+397455119+397261004+397039474+396921112
2448+396928800+397040362+397329834+397829442+398363633+398660182+398621800
2438+398422722+398299551+398345285+398518417+398650747+398479974+397965234
2428+397494328+397490132+397927709+398443644+398783353+398996061+399254932
2418+399585574+399842883+399940721+399949849+399960785+400018067+400159556
2408+400368466+400544692+400615023+400614686+400669242+400948422+401532819
2398+402252732+402767410+402881545+402715949+402558837+402633916+402984040
2388+403450657+403693813+403284785+401876356+399381105+395985059+391901632
2378+387222902+382179897+377287386+372899262+368911866+365208336+361959201
2368+359259053+356978869+355005127+353242869+351775138+351242968+352387103
2358+355171612+359024228+363887393+370363914+378343547+385848016+390167708
2348+389972613+386169284+381344317+377943707+376531603+376359115+376822209
2338+377688053+378782166+379886970+380803602+381503236+382181275+383104033
2328+384409507+385959976+387380841+388474066+389598903+391334450+393746045
2318+396236916+398087517+399017473+399354547+399796138+400914665+402755831
2308+404898570+406871760+408446274+409543849+410089956+410176920+410207522
2298+410577066+411272167+412003138+412632717+413278838+414116071+415234292
2288+416552417+417724336+418287811+418124604+417664083+417394613+417292425
2278+417012173+416493052+416000000+415714663+415640166+415729152+415842215
2268+415798564+415619367+415494480+415458855+415329129+415006880+414670817
2258+414587283+414812673+415182034+415531882+415809346+416030938+416258656
2248+416552111+416897946+417282714+417771938+418354558+418817836+418963675
2238+418833306+418555290+418134069+417566060+416995111+416565558+416228668
2228+415839733+415415879+415168464+415224275+415387360+415318959+414950180
2218+414530645+414284884+414241724+414323664+414383213+414315241+414275419
2208+414503015+414897279+415137924+415170210+415202282+415358321+415632202
2198+416038964+416628109+417403864+418258496+419013575+419585995+420022439
2188+420354735+420598719+420838659+421117349+421385992+421681345+422100881
2178+422548782+422818405+422945374+423207798+423798046+424654884+425492056
2168+425897226+425639151+424997227+424556923+424613102+424969015+425300208
2158+425497203+425676216+426025666+426605958+427215289+427541612+427496951
2148+427320541+427343944+427681386+428117401+428342608+428355780+428502262
2138+429009834+429659171+430099383+430340855+430657375+431095321+431399558
2128+431408563+431252279+431152970+431237331+431554954+432126302+432885852
2118+433631159+434193164+434682970+435328508+436025233+436393889+436345582
2108+436234265+436442716+437062585+437883767+438580553+439030414+439406269
2098+439848779+440262770+440562320+440830105+441101351+441246639+441185773
2088+441072741+441187764+441664275+442324578+442821521+442997869+443056897
2078+443296654+443708960+443977909+443924518+443767069+443802388+444052314
2068+444410678+444870648+445371266+445682028+445693270+445618252+445737503
2058+446111151+446636214+447233293+447895894+448618931+449313603+449815018
2048+450053059+450217584+450635925+451409229+452252559+452822528+453143949
2038+453534140+454181455+455024386+455965309+456964095+457977279+458987032
2028+460029561+461126002+462297400+463639387+465198249+466813351+468273302
2018+469583187+470906060+472264712+473505767+474591579+475707900+477013037
2008+478496606+480158973+482056349+484028406+485658487+486715045+487421204
1998+488112507+488865043+489627167+490440507+491332695+492234531+493148406
1988+494192620+495471689+497060172+498941160+500828396+502361527+503631162
1978+505180987+507353438+509891544+512296584+514404003+516431167+518527926
1968+520574633+522493788+524418519+526379578+528168915+529695430+531269056
1958+533373351+536120183+539000999+541395869+543301301+545272163+547668503
1948+550284291+552807693+555321354+558030263+560681584+562818043+564589919
1938+566594660+568978932+571368962+573596581+575901454+578439376+581052407
1928+583511910+585748842+587834084+589864372+591980736+594402317+597150619
1918+599786073+601752769+602981418+603822388+604583716+605437490+606499440
1908+607736176+608874522+609673465+610324824+611277356+612549380+613668305
1898+614514851+615548497+616858014+617804236+618035018+618010818+618214092
1888+618640918+619257540+620200944+621330591+622156368+622317615+621848333
1878+621042773+620315998+620154322+620949406+622691631+624724676+625835269
1868+625050846+622680359+620023585+618165878+617359031+617083833+616572647
1858+615524359+614361017+613597974+613077353+612229827+611008652+609978131
1848+609443480+608993803+607914883+605909407+603560056+601791549+600943533
1838+600612340+600097906+599066405+597871757+597056824+596538714+595616630
1828+594097774+592631972+591531794+590358160+588862461+587415099+586338998
1818+585509239+584643824+583700175+582953979+582682090+582788567+582949507
1808+583057148+583151494+583179063+583238673+583685042+584579803+585387875
1798+585655659+585683167+586237728+587780417+589754771+590890298+590938513
1788+591009212+591992499+593750713+595689841+597499211+599030565+600137238
1778+601118993+602688637+605162293+608007514+610184039+611213458+611669201
1768+612011482+612098845+612180510+613140823+615217120+617251880+618210723
1758+618570771+619291052+620795327+623214519+626548443+630142923+632732613
1748+633813371+634154060+634619176+635386813+636253208+637056073+637684886
1738+638383786+640054883+643348802+647011714+648672764+648435795+647945009
1728+648035067+649031893+651014150+653434016+655646503+657910146+660843833
1718+663941462+665530036+665130657+664104179+663584783+663979261+665555155
1708+668396823+671723640+674058043+675221017+676932487+680427842+684289801
1698+686492853+687638612+688622634+688949416+688671032+688787066+689778808
1688+691525505+694497972+699374461+704327041+705972040+704873026+703831844
1678+704561743+707629108+712162152+716057316+718545123+720568305+722189349
1668+722487153+722014931+722416149+724299342+726878494+729099007+730766673
1658+732214464+733758806+735869717+738855417+741479231+742414854+742784827
1648+743615383+744269743+743497572+741475003+739352329+738125518+738631497
1638+741007192+743721125+744135453+742077290+740268593+740148883+741087754
1628+741883512+742103633+742107248+741859006+741089224+740674161+741988824
1618+744946404+747377604+747429127+746485661+746692366+748307101+750194582
1608+751201088+751207460+751209298+752417607+755006316+757795175+759590822
1598+760655712+762281781+765206094+768942216+772586688+775952592+779572435
1588+783648021+787455822+790157195+791996891+794150075+797300207+800987747
1578+804434336+807137057+808641578+808871931+808117894+806215525+803092287
1568+799972358+798182470+797352343+796416352+795249518+794372892+793332078
1558+790624395+786791659+783616347+781584037+780588191+780304968+780123933
1548+779665556+779254475+779750590+782249977+787426660+793535597+795610302
1538+792557702+789449474+789222491+790927161+792166041+792316751+793147919
1528+796313612+801514005+806501750+809655374+811801880+814547241+817972878
1518+821055497+823083212+824170096+825638716+829195703+835220892+842418796
1508+848917801+852892179+853814998+853678257+854158628+855343351+856712478
1498+858127492+860003211+862483116+865613950+870202254+877015421+884452928
1488+888943149+889749873+889545496+890500050+892974073+896653588+901289432
1478+906460970+911600588+916678820+922490321+929324685+935605651+939879365
1468+942922653+946590650+952028685+958694695+965235666+971158177+976517550
1458+980626096+981564721+978566033+973660994+968846381+964496394+960027983
1448+955615691+952886013+952631645+953322580+953217696+952353874+951710847
1438+951721936+952108206+952605547+953365220+954526846+956229923+958815814
1428+961750849+963159124+962248190+961079212+962402698+966673777+971426758
1418+972733029+969547854+965382761+963642619+964191483+964422387+963160900
1408+961860083+961461928+960955949+959717559+959307090+961430316+965270403
1398+968055647+968691567+968863045+969515445+969524757+968598385+968132962
1388+968687340+969009956+968535160+969233141+973526826+981151679+988877373
1378+993510645+995053945+995855830+997066528+997875764+997796979+997477487
1368+997298964+997137594+997598667+1000328896+1006456090+1014198386+1019309578
1358+1019514812+1016801063+1014545753+1014802449+1018490969+1025386781
1350+1033252952+1039000248+1041423606+1041762641+1041636560+1041428752
1341+1040847970+1040521923+1041936018+1045662951+1050418383+1053723452
1332+1053462712+1049861493+1045909232+1044697063+1046277061+1047585904
1324+1046095842+1043138385+1042473548+1046406083+1053966302+1062083289
1315+1068147809+1071737878+1073648702+1073741823+1071214316+1066253037
1307+1060331752+1055408946+1053234565+1054162592+1056571614+1058879428
1298+1061823407+1066522231+1070610744+1069613489+1063022833+1055430756
1290+1050819294+1048521038+1045463598+1040688193+1035502688+1030667490
1281+1026375704+1023828225+1023996701+1025347939+1024843798+1021148968
1273+1015486155+1009565175+1004018213+999349285+996199888+993841899+990858833
1263+987528279+985169126+983568175+981102607+977022365+971609815+965116508
1253+958138051+951892311+947319936+943829115+939352801+932171070+922389542
1243+911927983+903228682+897504544+893807508+889894946+884353619+877749547
1233+871667811+867003478+863471426+860561939+858393439+857235795+856454250
1223+854803309+852045695+849427273+848293828+848838219+850174877+851382451
1213+852664277+855195521+859370109+863820079+866948279+868851935+870790572
1203+873521720+877055977+881330426+885902373+889296826+890446383+890779904
1193+892851729+896787878+899946036+900580915+900029539+900561616+903144383
1183+907704138+913571940+919224767+923534749+927487991+932755467+939298766
1173+946075665+952860711+960176365+968469179+977321946+984876835+989266950
1163+990730363+990593560+989378267+987783443+987717094+990378953+994530383
1153+998208060+1001248652+1004188526+1005652490+1003925949+1000068157+997043615
1143+996912327+1000250417+1006476552+1013015562+1016563482+1017009116
1134+1018194022+1023187833+1029589734+1032216366+1030517516+1028713537
1125+1029196297+1030409691+1030492275+1029686776+1029018141+1028940214
1117+1028737552+1027835073+1027824168+1030708782+1035010371+1035998804
1108+1031581059+1026286381+1027056408+1036013630+1047848114+1053793415
1100+1049581394+1039217123+1030251018+1027281124+1028714027+1028642961
1091+1024203038+1019385423+1019378561+1024303143+1029987828+1033622129
1083+1035203230+1033041592+1024457284+1011728896+1001578252+998277043
1074+1000440887+1003534656+1004612351+1004160100+1003335793+1002168776
1065+1001136110+1001453090+1002609938+1001527893+996349005+989676990+986092741
1055+987661405+992452554+997035529+999833271+1000844310+999607758+995747637
1045+990260591+985364068+984485603+989493566+996098190+996564960+989775258
1035+983049943+981966184+985303478+988401658+987027201+981011078+975460930
1025+974895157+977941937+980102717+979374901+976433679+972673664+970741521
1015+973827449+981801690+989662409+992526929+990939028+987871234+982837235
1005+973838782+962387504+952235941+944787651+938849211+933942089+931082961
995+930089075+927961071+921754173+912573215+904317833+899349202+897109575
985+895824992+893976107+890703569+886156986+881215372+876460430+872482499
975+870588033+871335209+872909080+872665801+869968777+866063627+862187149
965+858882816+855958012+852827117+849486454+846993071+846487950+847682230
955+849014905+849669878+850741997+853617116+857889543+861889223+864745594
945+867086491+870115259+874406862+879331750+883906882+887922246+891898278
935+896891414+903931503+912436474+920056732+925598304+930512287+935717826
925+939680257+941152859+940967903+940144883+938893689+938230751+939522135
915+941639111+941912655+939865274+937659404+936763418+936214186+935004407
905+933845537+933737835+934611582+935871292+937455762+939746177+942291083
895+943491244+942668652+941746997+943189703+946961297+951213139+955284375
885+959469685+962361099+961562768+957490123+953994217+954369949+958206483
875+962104465+963078562+961700490+961200576+963477329+966706430+967766849
865+966613738+965728167+966472402+969008302+974009831+981183353+987312446
855+989342673+988060418+986371921+985503259+984250595+982088712+981512340
845+985323266+992523131+998125844+998036153+993174367+987698409+985577144
835+988655107+995134691+1000384769+1001420191+1000423243+1001827719+1006309547
825+1009638386+1008042766+1002871964+998008462+996406838+999911688+1008463588
815+1019151395+1027371917+1031043773+1031470171+1029817024+1026966840
807+1025410919+1027980942+1033724930+1036491244+1031454610+1022177712
798+1016427231+1017668132+1022398508+1023800289+1019489633+1014377644
790+1013189246+1014903596+1015323131+1011625360+1004200473+995557903+988022556
780+982185999+977666310+974769627+973264800+971379524+968610882+966617046
770+965484275+963162248+960477110+962232935+971017944+982285614+987851262
760+984877325+977936240+972537352+971143841+973736165+978364597+981506214
750+981113205+978545510+975684053+972997567+970997604+970334238+971352445
740+974316029+978280482+981579486+983930000+987371382+994695796+1005062212
730+1012021309+1009795467+1000984053+993254684+991588916+995507238+1001214589
720+1004615108+1003265462+999003756+996698454+998189191+1000566723+1000992446
710+1001687241+1004886936+1006685891+1001979286+992259267+984986743+984244959
700+985574326+981818170+972261603+962565537+957511321+956960067+958697024
690+961881402+967573928+975577209+981448871+980638900+976052434+974060864
680+976627273+981131278+983911866+983618044+979924010+972694310+962240961
670+949243073+938694826+937812747+944700350+952150233+955344965+951951002
660+943305430+933252318+926418935+925734493+931586061+943434697+957308414
650+964728523+960635538+950675180+943594657+940870677+939098127+936876818
640+934481029+930906092+926871001+927567512+937652971+954856998+970042867
630+972948801+959933147+942476467+935275010+936936979+933259731+917624001
620+898531083+884706745+876076305+869247884+863697429+861282709+864276680
610+874656390+887881628+892067734+887649621+887548474+893711998+897574936
600+896530998
##END=
