##TITLE=<SNM>
##JCAMP-DX=4.24
##DATA TYPE=INFRARED SPECTRUM
##DATE=29/4/2025
##SAMPLING PROCEDURE=Instrument type and / or accessory
##ORIGIN=Admin
##XUNITS=1/CM
##YUNITS=ABSORBANCE
##RESOLUTION=4
##FIRSTX=4497.3318
##LASTX=599.83466
##DELTAX=-1.4281778
##MAXY=2.1174049
##MINY=0.38675892
##XFACTOR=1
##YFACTOR=1.971987e-09
##NPOINTS=2730
##FIRSTY=0.3988696
##XYDATA=(X++(Y..Y))
4497+202267865+202450836+203228074+203767119+203561191+202995563+202495449
4487+201675472+200263313+199215540+199629027+201147036+202564953+203341798
4477+203585402+203352649+202853790+202716913+203290415+204012158+204003030
4467+203212931+202598639+202992420+204084927+204817386+204594154+203793869
4457+203208458+203281770+203843378+204324027+204209169+203399544+202269331
4447+201413672+201154850+201251708+201324945+201411027+201667930+201955392
4437+202291773+202996530+203744359+203480595+202018488+200554779+199983393
4427+199962824+200047728+200474787+201339816+202101941+202365358+202229312
4417+201616063+200292345+198748205+198063110+198623585+199501611+199408969
4407+198195725+197126855+197490077+199163461+200891206+201737495+201671421
4397+200930560+199655384+198184889+197103687+196844486+197364958+198129365
4387+198454805+198126221+197628117+197611251+198221916+198978616+199146519
4377+198359685+197052333+196131312+196126506+196773864+197437922+197800827
4367+197945185+197970453+197848795+197695521+197944731+198902719+200107076
4357+200602218+200126043+199500976+199589991+200382855+201207548+201418916
4347+200884587+200045612+199447990+199242063+199301804+199536627+199733668
4337+199480377+198692862+197903050+197652661+197880744+198218712+198660234
4327+199533227+200813571+201835260+201906426+201087446+200135383+199717286
4317+199906877+200416028+201004507+201547753+201961392+202227997+202313339
4307+202089004+201664983+201637811+202547437+204093511+205311092+205494713
4297+204539128+202824909+201254156+200838583+201756144+203153840+204087043
4287+204297292+204066157+203738404+203463834+203262426+203327124+204023493
4277+205263199+206194906+206066688+205130932+204252014+204016617+204506802
4267+205446669+206308267+206648986+206528809+206322473+206221671+206209233
4257+206274414+206381670+206409750+206324680+206294696+206443557+206632226
4247+206724641+206859085+207219647+207778701+208437817+209067811+209275854
4237+208650848+207416477+206327657+205810390+205607938+205305953+204915831
4227+204910783+205685603+206900570+207687586+207787844+207911362+208500309
4217+208922048+208568075+207875408+207575161+207746088+208040743+208165303
4207+207988467+207693933+207748944+208336183+209093851+209571945+209572111
4197+209160846+208698332+208728619+209542158+210838431+212002694+212677301
4187+212840323+212503292+211784843+211158990+211101289+211468304+211626898
4177+211251752+210714128+210563483+210846245+211219214+211634409+212374939
4167+213328483+213857478+213574943+212775474+212053352+211816262+212003661
4157+212157087+211986962+211715293+211693259+212065050+212859214+213897723
4147+214641940+214629200+214006324+213249398+212569139+212013364+211886250
4137+212512828+213670396+214699067+215163877+215144986+215019897+215134392
4127+215492279+215784365+215868543+215916587+215977477+215897258+215734644
4117+215751842+216031566+216497645+217112647+217648670+217560940+216634099
4107+215548892+215300346+216172765+217653067+219089724+219996419+220104113
4097+219638063+219224153+219164865+219165636+218908975+218486389+218233899
4087+218454335+219245809+220405055+221551666+222375754+222728624+222596054
4077+222089577+221408578+220740212+220239418+220059847+220195319+220353535
4067+220287417+220222900+220530915+220993050+220965227+220345238+219801131
4057+219921867+220619854+221392830+221802539+221722063+221397001+221269827
4047+221597896+222198178+222608129+222550307+222207805+221961405+221928716
4037+221937451+221916082+222044405+222441782+222929111+223217146+223199177
4027+223034991+223009813+223264767+223655691+223949348+224098391+224114955
4017+223849090+223273955+222781201+222877183+223599834+224401298+224625285
4007+224145331+223612135+223851341+224943093+226163092+226815120+226763177
3997+226252772+225668842+225365164+225422502+225718487+226191111+226727587
3987+227030282+226905419+226415310+225719258+225133409+225151605+226000296
3977+227357943+228677113+229511477+229592800+228989102+228176666+227734585
3967+227978809+228798091+229717753+230229579+230216098+230016745+229907192
3957+229666701+229013963+228336424+228453352+229672066+231463059+232910733
3947+233373896+233062088+232837526+233028900+232862885+231745427+230392133
3937+229902250+230602201+232261621+234520235+236465439+236828887+235617714
3927+234461915+234613164+235537238+236057135+236166869+236710509+237897516
3917+238796549+238100210+235576985+232577087+230609093+229978948+230515302
3907+232974448+238358231+245683923+251637822+253787669+252606147+249373481
3897+245026696+241219500+240003611+241884903+244484825+244713392+243289853
3887+243506208+246209275+248804830+249677234+250141032+250083648+247502708
3878+243567793+242160818+244588046+248744001+252645592+255548073+256134784
3868+254447344+253255939+254050360+254693472+252692925+248961354+246162849
3858+246357850+251331969+261883768+272205716+271299248+261022971+250801009
3848+245093238+244287602+246960550+251155390+255689287+260575359+265351137
3838+267616914+265708193+261618840+258132520+255882550+254236702+253119107
3828+252780413+252943405+253937740+257455767+263550110+267845692+267235950
3818+264783227+262924227+259984870+255179592+251111503+250484501+253976338
3808+259482882+263176037+264403683+266339245+269791380+271075911+268455677
3798+264621519+261116308+257414085+253818348+251582524+251127734+251985811
3788+253778692+256135177+258222592+259719489+261633076+264559405+266807773
3778+266270300+263713872+261926507+263133449+267910466+274548841+279711145
3768+281772415+281990614+281773655+281972116+284100155+289268837+295833643
3758+300477153+302862745+306210511+313573425+324831886+335183395+339952765
3748+341677533+345159471+350466435+352662814+350110255+347667235+350079909
3738+359056028+371910888+381825848+383983175+380423406+376461969+375658963
3728+378805154+384518230+390087281+393623595+395334429+396238751+397087427
3718+398685005+402280501+409288173+420075627+431868599+439238526+440400975
3708+439243936+439910654+444333336+452092449+460050477+464607391+465406074
3698+464500875+463932723+465522654+470603289+479097611+488881723+495298000
3688+493999535+486551596+478549257+474258329+474936593+479192459+485254461
3678+493299388+503088941+510131524+511720488+511786561+512133431+509118540
3668+501791352+494557290+490506626+489625759+491015505+494440074+500373315
3658+508754986+517303110+523102027+527328786+534030121+544006831+551208341
3648+549245546+541311366+533667594+529065372+527765668+528724668+530168670
3638+530814653+531268219+533454382+538709298+547091362+557372868+565291754
3628+565324156+559346121+553891051+552350509+555350770+561792708+567870065
3618+569857947+569316424+569955274+571993573+573391752+573812191+574048133
3608+573628721+572015577+570488938+571269184+575226027+580367959+583737457
3598+585420907+587492333+589515882+589123492+586789646+586120692+589346799
3588+594282894+596156040+593471577+589252012+586989136+588216359+591810011
3578+594717298+594861958+593272752+592464759+594209385+599313777+607093081
3568+614213162+616425017+613530364+609436236+607020539+606548354+606801161
3558+606924240+607657455+610236007+614788478+619733943+623179791+624889839
3548+625823813+626545844+627062219+626839879+625226493+622927709+621674190
3538+621950573+622449599+621908439+620403079+618791083+617961570+618311402
3528+619196409+619849526+620591506+622061925+624199182+626113435+626956490
3518+627229186+628335869+630142518+630691537+629317296+627434781+625662710
3508+623937791+624187213+628557241+635171648+639061511+638160786+634981407
3498+632395298+631158101+630379124+629076035+627741209+627869426+629919029
3488+633132865+636900194+640656218+643521914+644682278+643774359+641251905
3478+638339299+635709604+632755890+629225471+627131980+629148698+635216865
3468+641865184+645067897+643733796+640334556+638256057+638851442+640607433
3458+640810066+638577961+635544451+634208355+635514165+637452114+637532092
3448+635920519+634539447+634114474+633578573+631956965+629947079+629082141
3438+629509471+629912984+629908329+630753862+633055125+635646493+637148346
3428+637015414+635078915+631922085+629434935+629038978+629903312+630363407
3418+630295460+630493378+630792128+630621595+630287420+630097723+629724194
3408+629612783+631014045+633207220+633098287+629572341+625947496+625865282
3398+628808659+630823321+629359431+626296059+625015336+626179931+627741330
3388+628302258+628783874+630473126+633163272+635238144+635163184+633985350
3378+635004137+639436551+643860925+643774964+639296969+634628794+633285444
3368+635871735+640476133+644385039+646104578+645994314+645475400+645355041
3358+645770765+646918857+648524989+649402743+648633076+646876723+645245443
3348+643690997+641868691+640610879+641126771+643593126+646994482+649515364
3338+649698229+647681512+645212134+644723083+647742930+652980738+656452822
3328+655492794+652080436+649997645+650352676+651538489+652067560+651941700
3318+651411360+649966089+647454819+645316292+645282923+647202435+649260803
3308+650131484+649983801+649734137+650272638+651761192+653261051+654006477
3298+654529260+655114610+654481322+651887173+649138510+648580726+650600345
3288+654145938+658042270+660985948+661653634+659677781+656022771+652438912
3278+650812590+652189611+655317001+656923678+654975089+650983486+648253200
3268+649062462+653341512+658561003+661493981+661439152+660630797+660593800
3258+660203164+658494325+657022636+657524141+659118062+659530824+658380858
3248+657738139+659233645+661607509+662330084+661000094+659253533+658281778
3238+657932973+657904561+658571763+660076639+661391698+661192269+659366336
3228+657094211+655753883+655541578+655403628+654711037+654036763+653514342
3218+652001124+649435085+648247699+650395717+654441968+656998577+656128924
3208+652476997+648137798+645606942+646666715+650653965+654460224+655439174
3198+653495904+649945717+646062564+642846552+640457635+638286101+636632394
3188+636656937+638295713+640264432+641925878+643050212+642400300+639448520
3178+636647991+636749126+638954633+640092448+638597728+635390905+631993659
3168+629607826+628876485+629163750+628982396+628048181+627700344+628526532
3158+629379682+629566658+629874295+630513085+630129158+627950854+625170696
3148+622974136+621124385+619478173+618726581+618990089+619306975+618611966
3138+616416312+613058783+609902981+608270310+607999912+608084423+608233979
3128+608605030+608857777+608702659+608526322+608783059+609232938+608985329
3118+607388083+604985746+603068592+602073261+601400135+601043955+601850800
3108+603709497+605112815+605156219+604568148+604045063+603254480+602051377
3098+601117464+600928856+601200283+601528292+601602949+600859216+598963643
3088+596628649+594969803+594234533+593952890+593797349+593596288+593217197
3078+592927696+593306121+594534432+596057988+597130879+597567156+597644352
3068+597182202+595411400+592617943+590991922+592025762+593955611+593740706
3058+590983157+587888169+586109085+585375568+584625669+583491904+582648426
3048+582773561+583275911+582914412+581709073+580860154+580885846+581073608
3038+580704311+579874072+578921963+577868658+576631280+575141154+573221944
3028+570927573+569025411+568420051+569109257+570243264+570924309+570730441
3018+569903830+569140389+568970823+569375243+569863146+569762797+568921737
3008+568178427+568252299+568281134+566757941+563830584+561192124+559923069
2998+559769764+560266735+561179369+561771974+560923720+558453255+555594268
2988+553746391+553248997+553595263+554245961+554786457+554661383+553498057
2978+551845740+550914124+551220008+552058892+552711585+553363371+554165863
2968+554345525+553129364+550807004+548190428+545750672+543819311+543009928
2958+543633302+544841060+545244573+544519217+543406549+542159498+540395105
2948+538379415+536851628+535730859+534493601+533589128+534002313+535604697
2938+537165249+537898464+537936125+537314806+535645744+533082002+530653187
2928+529189902+528525602+527933360+526998903+526059851+525945054+527073016
2918+528658716+529288921+528549299+527397640+526765500+526664667+526706137
2908+526626462+526227543+525473534+524624313+523895693+523220209+522513291
2898+521724703+520638634+519247769+518171191+517992195+518343417+518284658
2888+517505017+516554903+515891510+515390610+514974765+514890375+514837601
2878+513759330+511417687+509230738+508551809+508929388+508864342+507780631
2868+506457139+505774401+505831407+506201279+506451880+506287513+505525433
2858+504194233+502615939+501379648+501003822+501450951+502139159+502461395
2848+502258339+501791745+501253637+500379329+498768210+496608253+494737737
2838+493875670+494037529+494647664+495028296+494888533+494405708+493802131
2828+493051114+492048800+490784793+489344086+488042024+487392051+487563793
2818+488042931+488019324+487043730+485369500+483763791+482892112+482740863
2808+482730798+482398557+481804320+481275159+480946516+480686847+480271788
2798+479478666+478272389+476993722+476050016+475397897+474691070+473900064
2788+473323509+472988095+472529480+471765647+471012816+470656697+470626079
2778+470448715+469744607+468564990+467359015+466617791+466472194+466720982
2768+467190447+467777792+468168489+467890806+466735641+464936216+462938903
2758+461136395+459823089+459169912+459026733+458963864+458770329+458619472
2748+458541037+458240684+457616373+456852388+455947341+454783501+453578857
2738+452697264+452155620+451679898+451079344+450415407+449934154+449808234
2728+449854691+449610316+448808550+447717312+446807307+446122001+445343659
2718+444468868+443844315+443459058+442871380+441951431+441114241+440746394
2708+440768005+440728138+440211611+439279119+438457796+438174552+438342062
2698+438501110+438194833+437334610+436286142+435422957+434664202+433756948
2688+432860152+432333228+432110041+431838222+431474939+431216449+430954242
2678+430298586+429174856+428052456+427439207+427282819+427036419+426365440
2668+425624608+425436725+425894191+426397056+426306500+425612911+424820817
2658+424299605+423996532+423758717+423636696+423706698+423765185+423430889
2648+422581185+421575667+420923578+420712996+420522242+419958079+419060951
2638+418095634+417253879+416713534+416672246+417089481+417578563+417754446
2628+417525396+416919129+415897955+414562343+413304833+412520931+412278853
2618+412371253+412552214+412691373+412794533+412832829+412622761+412093963
2608+411549810+411341948+411406631+411418237+411263300+411091981+410997798
2598+410845219+410459116+409941048+409663516+409832810+410172939+410265914
2588+410054001+409715081+409311749+408908448+408716757+408787697+408865890
2578+408795404+408731628+408764000+408669514+408224925+407522480+406830947
2568+406294834+405888117+405596530+405510447+405675842+405905436+405863000
2558+405414874+404855215+404670687+405043551+405668558+406108916+406211653
2548+406095102+405917255+405810981+405874395+406048132+406155584+406168853
2538+406201588+406164803+405758932+404947101+404137960+403763705+403902532
2528+404356975+404881904+405308661+405607169+405834829+405965041+405866203
2518+405525258+405174972+405097836+405356357+405755880+406023800+406023196
2508+405844925+405664387+405495183+405231525+404938608+404844485+405000328
2498+405219827+405377182+405500352+405583261+405548018+405379449+405179416
2488+405133533+405387278+405846254+406186596+406158637+405821439+405480614
2478+405442077+405732999+406035286+406045442+405865629+405819716+405963742
2468+406061492+406005302+405961052+406043477+406095495+405909547+405548894
2458+405346775+405589125+406182364+406664433+406661501+406283529+405903683
2448+405694975+405602394+405577488+405609104+405694945+405900963+406250825
2438+406568346+406668695+406639558+406687828+406827954+406937522+406981501
2428+407007495+406999122+406884174+406663708+406393037+406069955+405753462
2418+405746389+406300788+407120750+407576523+407500899+407384621+407686122
2408+408250224+408540330+408332165+408007300+408072255+408545408+409026359
2398+409259429+409344907+409482796+409786685+410251556+410709747+410929821
2388+410888472+410779236+410613600+410000653+408553568+406392886+403956998
2378+401398758+398523479+395325693+392204771+389530615+387343243+385612279
2368+384429336+383705462+382972821+381917945+381023023+381192197+382763781
2358+385330757+388455548+392183523+396788858+401927979+406181336+407946607
2348+406652827+403136522+399274104+396788284+395970226+396043735+396396347
2338+396944067+397724645+398393660+398287719+397255210+396127369+395870028
2328+396550166+397527181+398301411+398835650+399366534+400209921+401516819
2318+403058842+404417396+405379056+405983963+406320163+406550966+407021278
2308+407973931+409167966+410086947+410557984+410879646+411320669+411841548
2298+412391565+413133242+414189902+415396662+416488383+417365049+418005622
2288+418313138+418241321+417920476+417517688+417094136+416630837+416084780
2278+415494351+415101055+415158484+415527811+415733950+415532557+415144550
2268+414859552+414720846+414682671+414785801+415067716+415499036+416049597
2258+416670946+417273767+417859239+418539830+419301971+419889074+420053744
2248+419819797+419425564+419102783+418906558+418689024+418259457+417575178
2238+416762621+416007946+415461164+415177284+415093045+415085307+415080441
2228+415079202+415057772+414916557+414606865+414280639+414226082+414617474
2218+415320705+415956955+416242346+416270577+416375853+416793844+417552448
2208+418510481+419364568+419845368+420050963+420384080+421104147+422127074
2198+423212841+424142220+424771579+425113915+425376969+425803575+426428702
2188+427043371+427447307+427678806+427905075+428165923+428348637+428356405
2178+428229094+428181126+428509196+429314045+430333920+431223371+431913695
2168+432488618+432870671+432952310+432906155+433046947+433470771+434058358
2158+434738617+435561723+436551342+437585242+438452174+439068325+439615833
2148+440354488+441296199+442188461+442868811+443552697+444648892+446266872
2138+448020204+449446735+450548189+451716079+453191454+454875841+456653896
2128+458610646+460839851+463204708+465394679+467172976+468515359+469539103
2118+470378349+471156691+471984391+472910233+473932043+475051239+476221547
2108+477286972+478107508+478718460+479295891+480042949+481086612+482264053
2098+483088609+483253188+483028007+482804669+482499420+481769077+480502954
2088+478757784+476514706+473810052+470882513+467985140+465206766+462612556
2078+460423613+458846769+457769889+456862998+455976055+455185231+454527006
2068+454016253+453807303+453973211+454238774+454271932+454131443+454119020
2058+454287044+454392744+454320444+454273957+454465134+454825031+455159962
2048+455472616+455996276+456929222+458211516+459632879+461124093+462810444
2038+464809752+467155718+469861883+472866587+476000930+479187049+482530099
2028+486039029+489392054+492112637+493972937+495229902+496424723+497849863
2018+499238371+500092760+500275565+500088286+499805707+499412501+498818475
2008+498062501+497209835+496228800+495060456+493736814+492439527+491471067
1998+491112046+491527709+492729452+494350425+495541045+495615067+494875475
1988+494353569+494845703+496428138+498579511+500583383+502027596+503088699
1978+504268316+505814934+507470274+508853642+510082558+511785956+514324551
1968+517165160+519325329+520494579+521390105+522897460+525200717+527836577
1958+530288907+532328355+533985266+535456592+536991149+538794413+541058377
1948+543963790+547563003+551662452+555679807+558717125+560295570+560942400
1938+561627253+563004335+565277548+568145904+570830912+572704118+573938414
1928+575368693+577861586+581604492+585662047+588705169+590506196+591794535
1918+592699855+592733587+592193151+592142856+593202085+595188395+597466444
1908+599248913+600006731+599859895+599396354+599164100+599404333+600102667
1898+601103319+602107899+602771353+603231569+604267887+606182986+607874354
1888+608078256+607144767+606218894+605637654+605162264+604715106+604286929
1878+603863467+603550994+603334518+603249825+604054131+606605117+609890528
1868+610810779+607719296+602558262+597930046+594654489+592377709+590778166
1858+589725406+588970671+588168119+587050373+585616830+584311080+583849413
1848+584855505+587483205+590559212+591242856+587910233+582705432+578680943
1838+576773340+575883194+574764481+573804514+574345312+576204735+577047971
1828+575514924+573041376+570924672+568587501+565492331+562476051+560551823
1818+559770429+559499728+559458682+560157560+561906720+563666459+563864679
1808+562461784+561023042+561002247+562831746+565958955+569048201+570724517
1798+570866094+570953144+572866309+577029654+580954217+581201342+578374515
1788+576127055+576337365+578368531+581199347+584552402+587836059+589959353
1778+591150063+593391720+598467639+605995707+612492898+613971236+610864883
1768+606555366+603484074+602996534+605550483+609691824+612661739+613757117
1758+614485556+615299352+615944308+617860676+623052239+630809719+637010094
1748+638590897+637036572+635592752+636212136+639107333+642985529+645739210
1738+647141197+650040626+656531892+663191456+663926786+659719371+655168291
1728+652262757+651541452+653041129+655953977+659758665+665566892+674799144
1718+686025565+693655916+693875294+689477096+684693701+681922308+682529482
1708+686942008+693495539+699004411+703038511+709093137+719184282+729152348
1698+733791688+733654463+730117515+724720357+721244223+721930527+725670894
1688+730792394+738052843+748106750+755850387+755451469+750550436+747031441
1678+747544129+752541038+759732755+765290290+768975163+773182638+776865878
1668+776465992+773286674+771953480+773943478+776792067+777790784+777655312
1658+779215320+784906634+795951520+809264057+814734119+811640098+810283448
1648+813343919+815222264+810566844+803006495+798409774+798612709+803408074
1638+811687371+819427925+819301703+810357018+800745252+795742116+795264007
1628+797217190+800054353+803061023+804211412+801170709+795875533+792933728
1618+793942056+795542687+793071738+787323298+782220115+779394619+777928069
1608+776318491+774190301+772055341+770231100+768620857+767069071+765817184
1598+765564376+766467338+767265961+766527366+764693030+763483822+763503771
1588+763773747+763402273+762501911+761503012+760837020+761538316+764966694
1578+771160600+776882502+777204285+773058652+770026774+770293425+771199047
1568+769487911+766303273+764606706+765673068+770544359+781216441+796163341
1558+803733423+798271703+789248976+782099273+777001289+773321252+770798315
1548+770421038+774251780+783191750+795647147+808813090+818430054+817662020
1538+808129204+800595816+799615053+802129528+802921682+801653836+802480690
1528+807397259+814628934+822051091+830265584+839722231+847010065+849359326
1518+849303711+849258614+848699076+847644079+848076185+852048021+860758457
1508+873549843+883895427+883406255+876282002+871012216+870441374+874208944
1498+880427152+885648819+887462964+888059135+891656837+899940970+909853905
1488+915723731+916020668+914131261+913308156+914561554+917433235+921479970
1478+926923312+933972847+942277654+950783644+956710355+956516730+951228566
1468+946026243+944576861+946854971+950393128+953708462+957564412+962932553
1458+969033546+972287823+970230482+965985105+963618797+964499936+967220972
1448+969001990+968623383+967070448+965011415+963020933+963794952+970654851
1438+983199172+994422027+996807800+993550318+991957304+993452629+994869065
1428+994341022+993740619+995026420+997940054+1001783672+1006779433+1011895552
1418+1013480103+1010371392+1006521245+1004533242+1002993243+999574356+994714612
1408+991832835+993044885+996336945+998221636+997947187+998268244+1002626969
1398+1011666079+1021299425+1024795327+1019565801+1011225025+1007283960
1390+1009246029+1011401120+1006511875+995877937+987907789+987269302+992279570
1380+998954367+1004374194+1007624361+1009465347+1011118329+1013205835
1371+1015714445+1018196578+1020060293+1021897531+1025703065+1032260465
1362+1039262546+1043211470+1042751677+1039718228+1037745338+1039384778
1354+1043727241+1047493965+1048628758+1048093159+1048730195+1052906659
1345+1059601767+1064013870+1063117981+1059927842+1058459357+1058485714
1337+1058040309+1057186736+1056899229+1057241867+1058172214+1059943317
1328+1062296084+1065029090+1068436491+1071403565+1071701106+1069422211
1320+1067199294+1066925328+1068514473+1070774629+1072108669+1071802302
1311+1070990682+1071305754+1072662283+1073741823+1073444644+1071581896
1302+1069935080+1070674763+1072282890+1070009677+1062889716+1055655140
1294+1051863389+1051106780+1051677078+1051847551+1049492124+1042778880
1285+1031895943+1019538235+1009370741+1003377533+1000437844+998032484+994831645
1275+991140123+987358649+982654868+975814979+967430557+959990204+955079136
1265+951545694+947097139+940767277+933402186+926807608+922365340+919614139
1255+916523382+911421590+904367581+896888963+890625114+885816269+881164114
1245+875058769+866587237+856141363+845646283+837074401+830556838+824909291
1235+819508930+814678081+810899931+808376933+806805380+805551074+804390529
1225+803515375+802809243+802068895+801730488+802409599+803941859+805511781
1215+806598757+807510605+809002242+811515870+815039338+819464679+824503481
1205+829567794+834301074+838740682+842624803+845487719+847721215+850413597
1195+853921166+857512884+860331791+861819801+861558047+860127707+859921568
1185+863515824+870871122+879086824+885561769+890433060+895208959+900974326
1175+908469871+917755743+927474326+935806941+942001392+946191698+948930024
1165+951197494+953728350+956311014+957998271+958078309+957043744+956425206
1155+957111269+958241165+959124782+960933850+964704684+969199847+972228400
1145+973226935+973495218+974159397+974638293+973877634+972648295+973180509
1135+976222421+979902518+982373709+983600871+983651711+981652766+978439595
1125+977810599+982309328+989422579+993741949+992927790+989632950+987381862
1115+987120591+988131036+990159481+994509923+1002557994+1011489984+1014782648
1105+1009964554+1001971434+996711501+995472853+995592970+994289518+991676508
1095+990626105+993854086+1001161084+1009225657+1013682494+1011791152+1004135351
1085+993819025+984213848+977584813+974544714+973247368+970337179+964845355
1075+959712430+957800293+958103457+957864553+957057588+957581036+958620860
1065+956372130+950032354+943945749+941999095+943627170+945885029+947186244
1055+947671548+946894748+943675652+939026520+935899069+934779147+933225185
1045+930416071+928679243+929943160+933734548+938880953+944471132+948999543
1035+950708684+949141060+945825000+942878239+940988529+939177044+937034406
1025+936404442+939012314+942912273+944248913+943302668+944894594+951074113
1015+957356459+958631197+955159053+949720849+943651049+937614799+932498922
1005+927920820+922006985+913879058+905048445+897408723+891230232+886013220
995+881760104+878106847+873493562+867024905+860326109+855885473+854287018
985+853937065+852959506+850676198+847329671+843183373+838249757+832907429
975+828248443+825164335+823516492+822272101+820148928+816401851+811346546
965+805948240+801126216+797695662+796486998+797776002+800692236+803840059
955+806504997+809122903+812541367+816654054+820298545+822921227+825574982
945+829656718+835408241+842211618+849478778+856875485+864239669+871231291
935+877515573+883464409+890179648+898158018+905996624+911287146+912782833
925+911283216+908636414+906776931+906712369+907694945+908000950+906670959
915+904316560+901882366+899219665+895900402+892889320+892012835+893976960
905+897715998+901346827+903449325+904002032+904263000+905353241+907129543
895+908549425+909213060+910436837+913871744+918621951+921191254+919963971
885+917761184+917798482+920021520+922839098+925510322+927436605+928107312
875+928491844+929219617+928989479+927802698+928248648+931102979+933831391
865+935084185+936297141+937854489+937932592+935893628+933935005+934483419
855+937197322+939060191+937921469+935464424+934486986+935424768+937450916
845+940652541+945416893+950476672+953073481+952401564+951007374+951413124
835+953594088+956616716+960638182+965683331+970546764+975247038+981763997
825+989251683+992204853+987927133+981897655+980971056+986487484+995020072
815+1002221824+1004847831+1002086050+997149592+994606524+995431685+997850042
805+1001504326+1007124005+1012753538+1013686423+1008579614+1002620500
797+1000023087+998396099+994091479+988701636+986334482+985875172+980979096
787+968997275+954815931+944465631+940010426+939149055+936891136+929900904
777+919962822+912263435+910536884+914288132+920327344+926115924+930551482
767+932200836+930408877+928280143+930291541+937388046+946393666+953939265
757+958857950+960646948+959757345+958920215+959806009+960658131+959097337
747+955518375+952053848+949807717+948649832+948319707+949139186+951989769
737+957244201+963620368+968777232+971064772+971022214+971308935+974258054
727+979341469+982906769+982424669+979363292+975636043+971158048+966220442
717+963826991+966555100+972038220+975209075+974630616+972474316+969547201
707+964955920+959947707+958973412+965195247+976250833+985808918+988986120
697+985984529+978607771+967172309+954198480+944304044+940714020+943452950
687+947487957+945042639+935040660+924335631+918608168+918514891+922745942
677+928503087+930661080+926582125+919046803+909857894+899195001+894021271
667+903661086+921496171+934148156+938282847+937242359+934650567+933462214
657+934151239+932287947+922655688+907414330+893917174+886711493+885514617
647+888371669+894277645+902427758+910489369+915167881+915035069+912609277
637+912957296+919833759+932259777+939883237+930514183+909900210+892499529
627+886543136+891666389+900879719+907952226+909248787+906487066+903286590
617+898561470+892941610+891407173+895996519+903541937+910915733+914762736
607+909343272+896118389+882807545+871850253+862677001+857407336
##END=
