##TITLE=<SNM>
##JCAMP-DX=4.24
##DATA TYPE=INFRARED SPECTRUM
##DATE=29/4/2025
##SAMPLING PROCEDURE=Instrument type and / or accessory
##ORIGIN=Admin
##XUNITS=1/CM
##YUNITS=ABSORBANCE
##RESOLUTION=4
##FIRSTX=4497.3318
##LASTX=599.83466
##DELTAX=-1.4281778
##MAXY=2.2585347
##MINY=0.67461747
##XFACTOR=1
##YFACTOR=2.1034243e-09
##NPOINTS=2730
##FIRSTY=0.67996699
##XYDATA=(X++(Y..Y))
4497+323266674+321134205+320723432+321440102+322532265+323845032+325123538
4487+325789627+325838820+325910002+326047436+325390359+323716807+322521072
4477+323490366+326005186+327568621+327237985+326638375+326991766+327473097
4467+327144870+326624774+326805195+327293781+327088536+326082716+325270862
4457+325775373+327766781+330022942+330961405+330252244+328693343+326940221
4447+325444341+325011211+326060188+327708804+328674102+328735310+328423745
4437+327980442+327564569+327615915+328262451+329098590+329788198+330119571
4427+329689161+328549845+327563662+327112934+326584960+325819721+325576873
4417+326127772+326766373+327085051+327541021+328735735+330695236+332476270
4407+332745046+331343954+329696103+329115621+329564110+330438446+331514882
4397+332555642+332798320+331653393+329648044+328059020+327850659+329093149
4387+330847660+331584478+330479932+328526807+327561338+328122070+329078017
4377+329357391+329040018+328403003+327237674+325819466+325195288+325844941
4367+327125204+328421762+329768561+331043950+331754726+331763964+331305387
4357+330393476+328929390+327362725+326705081+327573070+329358497+330785801
4347+331400231+331862237+332445780+332060482+329541072+325583390+322435126
4337+321660507+322897869+324716705+326107227+326949458+327566184+328302095
4327+329073370+329174760+328124677+326429589+325079588+324675786+325303393
4317+326694369+328178517+328690935+327423989+324856094+322673355+322269837
4307+323518590+325166185+326096573+326032475+325390331+324711746+324234495
4297+324013098+324269802+325323087+327160597+329245885+330882005+331829649
4287+332336852+332476752+331912563+330519603+328830437+327517728+326637695
4277+325796796+325007498+324798003+325321472+326089319+326852914+327821755
4267+328780111+328990399+328073699+326402895+324887775+324576975+325793367
4257+327567828+328662683+329013494+329376122+329900413+329917641+329021060
4247+327633314+326417886+325743891+325750550+326337465+327005537+327195990
4237+326824861+326157752+325502829+325415721+326595218+328952230+331142535
4227+331713638+330545107+328679628+326974253+325386505+323725365+322481882
4217+322358418+323338820+324895001+326890461+329368868+331474842+331747869
4207+329995426+327747257+326468779+326393459+327019309+327746860+328032809
4197+327676897+326946115+326101730+325115122+324054640+323462058+323815816
4187+324652720+324969074+324668107+324529766+324657537+324453256+324015705
4177+324030837+324538437+324992083+325215350+325594555+326550928+327933799
4167+328957415+329123442+328821228+328377896+327418662+325937687+324866777
4157+324876072+325598126+326372461+326962550+327458249+327973443+328489799
4147+328897313+329067306+328775209+327694437+325892490+324345802+324140898
4137+325079531+325914990+326118166+326554866+328057122+330174374+331777764
4127+332253202+331662858+330302061+328581015+327125941+326621175+327324101
4117+328710799+329794999+329963604+329359545+328428959+327417103+326525424
4107+326177135+326580001+327269524+327673694+327891152+328172057+328175400
4097+327608661+326924494+326711145+327040902+327766781+328707257+329407690
4087+329541893+329449430+329622342+329890920+329644020+328668775+327325008
4077+326144236+325610112+325948030+326774279+327329854+327365020+327446347
4067+328057065+328735084+328549363+327299930+325737402+324657254+324368387
4057+324944194+326168010+327180178+327086213+326063560+325098432+324818944
4047+325315266+326560024+328165681+329172068+329007968+328340406+328185828
4037+328566280+328737379+328459648+328305042+328600653+328745937+328037683
4027+326755917+326012950+326605703+328170186+329416417+329261839+328043293
4017+327410898+328409350+329942918+330022318+328379143+326593206+325806884
4007+325771236+325969595+326329248+326780372+327123589+327429997+327964007
3997+328712981+329385275+329742491+329651359+329045685+328063299+327026025
3987+326133694+325359217+324717413+324416191+324710102+325641255+326852461
3977+327781347+328193139+328467186+329204570+330541309+331854019+332180489
3967+331170702+329632090+328757158+328791162+328938656+328651830+328303625
3957+328350296+328612328+328715984+328827349+329557677+331074696+332545044
3947+333005010+332804214+333155847+334174391+334534128+333444884+331727976
3937+330642699+330916746+332686927+335277265+337165187+337138606+335511215
3927+333725363+333116289+333991391+335429945+336228112+336137717+335717536
3917+335188145+334199639+332664088+330993624+329616420+328864555+329219815
3907+331263420+335126031+339823561+343567440+345357117+345378172+343698527
3897+340444226+337094656+335740829+336943280+338731143+338648400+337321975
3887+337337334+339202869+340778857+340750747+340212685+339603865+338061229
3878+336201617+335950069+337883330+340813230+343423857+344922769+344817043
3868+343880479+343714622+344511033+344592955+342538837+339037069+335990421
3858+335142495+338061229+345630569+354005897+355033735+348811109+341471582
3848+336538628+334820162+335745505+338118555+341056077+344477538+348115239
3838+350505886+350339548+348016371+344636027+341138708+338585690+337741390
3828+338130910+338542873+339130695+341810662+347007377+351137630+351449450
3818+350209028+349265294+347126562+343179281+339789585+339313666+342168020
3808+346364071+348855797+349424633+350565479+352708999+353098151+350731023
3798+348010448+346592297+346063586+345610251+345087010+344720188+344787800
3788+345655336+347479301+349752463+351844410+354043642+356968554+359996670
3778+361771385+362382641+363337483+366101810+371279256+377864283+383541507
3768+387236023+389902191+392118226+393616004+394802557+396326689+397711714
3758+398138695+398130563+399343441+403452243+410908037+418855476+422980742
3748+423801777+425056679+428328975+431885773+434174095+436339974+440079914
3738+446231442+454462875+462234002+465502217+462914316+457857104+454933155
3728+456084004+459837404+463233163+464935817+465407571+464637826+462567811
3718+460608424+460727864+463910615+469627652+475448970+478063168+476494264
3708+472707228+469328953+468149087+469104127+470258830+470414230+470744667
3698+472063016+473322593+473967996+475537155+479534876+484705464+487723123
3688+487122380+484461539+481536032+479472308+479259384+481461562+486047956
3678+492498977+498417547+499664770+496313698+492606714+490247719+487879600
3668+484747629+481836517+480183452+480008160+480921743+482513657+484567803
3658+486419736+486641388+485085179+484476671+487647010+494306932+499677239
3648+498526475+492464179+486746858+483918830+483242200+482750724+481526057
3638+480078662+478899391+478054043+478444413+482228871+490797173+500768041
3628+503823672+497780646+489510108+485215359+486752072+491601376+494489422
3618+493181785+491192473+491919430+494814220+497697845+499715947+501085812
3608+501734728+501328830+499978007+498633362+498667819+500427431+502641171
3598+504265162+505801762+507673191+508879155+508602757+507820260+508116154
3588+509444874+509978006+508577707+505974447+503658524+503065035+504822210
3578+507979967+510764866+512300786+513044348+513975670+515972236+519062721
3568+521866096+522861290+522154850+520611336+518577195+516718178+516509448
3558+518590060+521464561+522905552+522334279+520941461+520130061+520482062
3548+521227551+520712328+518271100+515287955+513250244+511868591+510334768
3538+509027868+508855126+509728357+510446756+509951142+508546309+507459757
3528+507565964+509098257+511770262+514398004+515298156+513873147+511279182
3518+509026167+507278854+505056840+502136716+500038931+500526894+503477394
3508+506731837+508168181+507518131+505920040+504350286+503292864+503424914
3498+505110113+507532753+509521837+510760389+511371051+511328318+510881728
3488+510367526+509548644+508271384+506938130+505611224+503974255+502403594
3478+501697834+502040371+503070306+504208035+504590130+503540246+501637646
3468+500333466+500125643+500092262+499354991+497984049+496439231+495312157
3458+495289034+496300890+497160067+496837365+495547070+494053259+492764721
3448+491757852+490924633+490222613+490123944+491086323+492309913+492182510
3438+490609639+489449807+489859333+490699184+490438824+489403561+488719224
3428+488380597+487931060+487746870+488165916+488309698+487016910+484503365
3418+482395945+482165339+483648212+485259055+485939142+486242347+487018440
3408+488081642+488687827+488428770+487489457+486735183+487086165+488122901
3398+488097284+486030840+482963875+480712957+480362825+481836347+483874511
3388+484823346+484444651+484145979+484860240+486003240+486730990+486893530
3378+486694775+486485195+486665985+487196906+487698073+488057216+488209442
3368+487915361+487560242+488138260+489892657+492019063+493916845+495465460
3358+496309731+496221037+495607655+494922580+494337479+494358448+495575861
3348+497578377+499172104+499564797+498800323+497315240+495583398+494180889
3338+493740249+494471059+495729560+496402563+496002445+495165202+494818130
3328+495214451+495874419+496077028+495343724+493774140+492128443+491214916
3318+490909727+490384644+489661201+489913570+491585620+493275693+493447075
3308+492501641+492051537+492750326+493790689+494204239+493882161+493422649
3298+493702561+495212751+497143234+497821281+496573038+494342863+492560128
3288+492351512+494282052+497716548+500868808+502416686+502604446+502414362
3278+502443322+502617311+502378771+501088589+498782584+496455780+495185888
3268+495237291+496120497+497199512+497832333+497494726+496485477+495905476
3258+496254474+496714440+496612597+496719030+497928395+499412855+499358504
3248+497417990+495312270+494646635+495077640+495108528+493996075+492307703
3238+491094314+491016274+491940229+493109639+493770116+493609389+492820488
3228+491951054+491462071+491223417+490729051+489921618+489236713+488857338
3218+488586550+488342909+488145117+487873706+487555538+487498581+487708445
3208+487571520+486540112+484807930+482968182+481436966+480597965+480861102
3198+481849552+482189199+481144302+479978463+480544692+482741769+484393417
3188+483777032+481297605+478544783+476636402+475725142+475360106+474965173
3178+474404102+474122971+474494695+475172940+475268237+474128440+471977580
3168+469794075+468392756+467736132+467246356+466423083+465029754+463272891
3158+461935727+461662332+462168204+462699380+462876174+462586485+461670012
3148+460196178+458595197+457339076+456804273+457124339+457782266+457814995
3138+456905719+455898737+455803043+456667122+457737975+458325457+458196156
3128+457430548+456205456+454684810+453146878+452018472+451418834+450956091
3118+450438800+450246761+450512760+450617521+450004395+449023256+448476579
3108+448537759+448531978+447904881+447059816+446766416+447035985+447180447
3098+446739467+445790633+444633521+443627786+443110778+443226988+443889336
3088+444834062+445654984+445994772+445827272+445396437+444799973+443841815
3078+442513237+441394749+441153261+441767578+442532421+442614513+441606737
3068+439964894+438739576+438475079+438710871+438762642+438490607+438144981
3058+437933673+437828996+437640867+437306859+436952336+436641961+436387410
3048+436359300+436650122+436909774+436622012+435611799+434165651+432884764
3038+432272232+432235592+432330436+432463478+432739905+432826815+432290850
3028+431424674+430937646+430931186+430816903+430163594+429214136+428522374
3018+428336314+428430279+428354563+427758013+426630712+425423558+424872603
3008+425397686+426521417+427128564+426537285+425170906+424025526+423651365
2998+423801381+423998804+424186933+424611336+425261046+425709138+425413838
2988+424128531+422287875+420865417+420499983+420860770+421138783+421033993
2978+420871566+420870064+420824782+420547759+420135882+419624286+418858678
2968+417934695+417274388+417086542+417179459+417288783+417228538+416952196
2958+416736552+416851487+416925078+416308437+415094850+414066814+413712857
2948+413864346+414080699+413949726+413302991+412518483+412281189+412762634
2938+413391573+413587919+413251815+412447300+411266046+410130386+409601873
2928+409758123+410120269+410148833+409623466+408720480+407857932+407382353
2918+407430639+407948412+408533853+408533201+407776945+406885464+406435303
2908+406309374+406161936+405988939+405992170+406237369+406559787+406675629
2898+406444513+406028101+405642605+405339740+405144526+405052828+404807770
2888+404128448+403220249+402561613+402271216+402154467+402206891+402602928
2878+403240765+403641534+403432351+402811771+402342511+402293488+402406270
2868+402324801+402000881+401613600+401331222+401217563+401215947+401177182
2858+400981799+400697409+400591911+400891489+401537969+402215619+402515480
2848+402126782+401118582+399998762+399213091+398691436+398143711+397577879
2838+397219558+397141546+397269119+397566742+397943596+398134587+397948923
2828+397520043+397072631+396580220+395906027+395162918+394677421+394646619
2818+394927778+395141751+395060168+394874051+394866995+394927977+394738062
2808+394276482+393738363+393175931+392557363+391983427+391623519+391524481
2798+391508754+391267437+390698912+390061133+389638714+389470194+389513152
2788+389727295+389871672+389621995+389027202+388538191+388479080+388662194
2778+388577749+387919142+386905784+386046976+385652157+385631896+385636713
2768+385347620+384811711+384454807+384563763+384904515+385083293+385061388
2758+385010325+384881193+384447525+383668882+382769863+381997370+381463303
2748+381226689+381347490+381721226+382003320+381928256+381632446+381420798
2738+381286735+380966414+380458446+380139712+380254845+380570037+380660744
2728+380333112+379671501+378920146+378422493+378392739+378606258+378579139
2718+378170549+377717101+377470456+377253196+376837975+376330573+375986619
2708+375903705+376041678+376291808+376393141+376080330+375449237+374875924
2698+374517291+374273934+374216636+374550332+375142065+375543599+375497070
2688+375047533+374292296+373428784+372859268+372820049+372992877+372790834
2678+372027635+371121504+370636715+370767122+371258088+371688555+371808902
2668+371695526+371599350+371622785+371631002+371490281+371214591+370877834
2658+370583753+370492310+370677662+370980414+371154091+371143125+371074380
2648+370964205+370623765+369978448+369272007+368731763+368279902+367835465
2638+367611603+367830336+368383927+368974611+369399042+369583827+369499836
2628+369165489+368690760+368224050+367872672+367734472+367842408+367938017
2618+367620728+366986263+366690057+367071841+367658104+367799987+367439201
2608+367014742+366873256+366968751+367067364+367098931+367167450+367290687
2598+367367736+367391369+367466518+367592136+367587772+367297772+366802073
2588+366350467+366131167+366208754+366582433+367121714+367549999+367670374
2578+367495790+367103720+366563646+366030203+365726204+365775482+366073955
2568+366354491+366451828+366467017+366543215+366596347+366450128+366126747
2558+365872139+365946184+366388184+366944466+367290744+367313017+367084139
2548+366699522+366286284+365993563+365823626+365660661+365535270+365582734
2538+365701551+365628073+365421015+365445640+365785485+366100337+366157067
2528+366110935+366196031+366433948+366658830+366662060+366380703+366012691
2518+365841932+365958652+366226578+366415019+366307225+365843802+365233538
2508+364815142+364781563+365060654+365390864+365497185+365346687+365274598
2498+365663466+366438737+367082496+367216416+366945090+366541912+366094556
2488+365628271+365334020+365418011+365810790+366216292+366408274+366362454
2478+366180927+366000874+365893845+365797840+365649042+365521696+365469414
2468+365393471+365307015+365485255+366036437+366581385+366689009+366387248
2458+365995348+365732636+365705433+366006116+366562314+367022393+367030016
2448+366616041+366168374+365991863+366025896+366049444+366039384+366184299
2438+366563703+366937666+366953137+366577134+366212069+366276819+366764753
2428+367309786+367563686+367401967+366938232+366498528+366425617+366782861
2418+367347645+367883440+368302345+368637231+368972372+369331288+369628770
2408+369819987+369980970+370113218+370056516+369772948+369548633+369736648
2398+370383383+371196427+371868863+372444131+373388744+375315430+378654487
2388+383642613+390640142+400319763+413249151+429157490+446907109+465529562
2378+485007593+505545256+526516191+546970203+566551890+584580033+599315364
2368+610221125+619009039+626203565+629797768+629294504+627092722+623807166
2358+616434173+602873975+584344836+562893136+541087054+523126297+512695860
2348+511010775+517035892+527807562+539228773+548355313+554608430+558965180
2338+562665080+565953074+568267580+569539456+570351366+571051629+571391899
2328+570854404+569109074+566160670+562041554+556705478+550431959+543888956
2318+537631135+531889331+526761419+522075960+517069613+510838656+503352485
2308+495489490+487904310+480457357+472914173+465543674+458694971+452318731
2298+446225860+440448493+435152315+430425853+426247143+422530185+419194160
2288+416216654+413561028+411083159+408631474+406262391+404281893+402976211
2278+402263253+401708047+400959300+400072466+399338539+398907902+398626460
2268+398197580+397518371+396814906+396343889+396064430+395746915+395263911
2258+394650529+394052393+393674548+393569503+393486731+393175959+392743027
2248+392425568+392188048+391870362+391544771+391373984+391318075+391289540
2238+391360439+391562623+391739105+391778494+391771381+391836726+391953928
2228+391994591+391883992+391770248+391902780+392205447+392195217+391563445
2218+390643712+390058809+390037046+390248553+390230616+389818738+389178096
2208+388606795+388367518+388517023+388804530+388887727+388690077+388421500
2198+388292651+388344876+388499171+388674549+388888011+389241628+389787227
2188+390443880+391054938+391487530+391701502+391737575+391635987+391440661
2178+391306542+391472625+392031514+392794374+393449382+393822977+393965342
2168+394024509+394108302+394270361+394529049+394825283+395031180+395089157
2158+395094314+395201060+395514297+396014642+396461573+396517935+396202715
2148+396035838+396442105+397187566+397697914+397765526+397643791+397614745
2138+397773659+398129316+398652019+399218702+399658633+399912306+400073770
2128+400236424+400396159+400567003+400862415+401353977+401935961+402415026
2118+402693975+402840902+402996897+403232037+403539861+403978291+404654977
2108+405491966+406192937+406555253+406668460+406754491+406958205+407307486
2098+407766658+408291345+408815267+409200537+409330603+409312978+409450497
2088+409926700+410631836+411318498+411809464+412053757+412116438+412155373
2078+412318310+412631405+413043963+413529035+414019775+414361292+414538256
2068+414816638+415373119+415948218+416203166+416234960+416400532+416839784
2058+417444324+418093042+418705404+419184242+419451063+419572600+419824374
2048+420481054+421460408+422363620+422964449+423415913+423908579+424440662
2038+425012020+425750028+426718359+427783998+428782281+429716720+430694260
2028+431721390+432689919+433562357+434463671+435556259+436875826+438252917
2018+439398410+440196776+440889557+441798437+442969830+444277807+445689526
2008+447232190+448882365+450626193+452466905+454337342+456166833+457991364
1998+459863105+461768029+463694885+465566003+467090985+468044750+468694035
1988+469525894+470643589+471797782+472824175+473731751+474554457+475393231
1978+476489503+478089578+480220404+482598838+484862394+486951678+489067202
1968+491229992+493227464+495039782+496912968+498955553+501003691+502887362
1958+504619090+506350705+508234376+510272597+512338871+514446007+516853345
1948+519722235+522858173+526021144+529153455+531990041+533990516+535141110
1938+536187991+537735132+539683978+541699019+543733499+545927970+548348909
1928+550965601+553760418+556744016+559856151+563033234+566325195+569488676
1918+571659400+572354449+572514213+573434087+575347852+577646886+579720924
1908+581329897+582634814+583916154+585032347+585579930+585808666+586672887
1898+588717115+591343214+593405294+594589326+595801638+597693356+599395840
1888+599698876+598937008+598283445+598135696+598297613+598714450+599318027
1878+599876832+600371029+601068571+602312790+604481644+607608797+610551420
1868+611333804+609441972+606585720+604501367+603520795+603147654+603016057
1858+603008746+602918124+602557735+602088872+601830325+601788330+601746561
1848+601902131+602803190+604025873+603607279+600510956+596446643+593521816
1838+592325090+592220640+592334327+592484570+593138474+594171469+594282040
1828+592693867+590333852+588146465+586001301+583730151+581766739+580411156
1818+579454557+578697507+578381153+578855117+579852238+580371541+579696668
1808+578343748+577416620+577460485+578359560+579721605+580865227+580999941
1798+580177206+579638577+580651113+583086505+585016082+584537867+582375927
1788+580709714+580547457+581460077+582719088+583988130+585069015+585914306
1778+587001312+588983369+592142373+596270728+600214609+602092952+601393313
1768+599465776+597993388+598234422+600497241+603460607+605160031+605619090
1758+606276337+607199725+607776496+608987787+612455324+617755525+621988783
1748+623028296+621873282+620758052+621012745+622784938+625488567+628099648
1738+630138379+632587485+636419775+640009331+640408088+638174116+635592619
1728+633638616+632781877+633427392+635242545+637663031+641256724+647208505
1718+654639645+659151512+657876859+653654822+650231888+649062819+650156852
1708+652988847+656430767+659207903+661731139+665881596+671877299+676638192
1698+678092161+677448402+674849449+670499103+667017001+666253264+667543218
1688+669920803+674408016+681944853+688499872+688439174+684039578+680548012
1678+680405873+683486271+687690738+690866574+693381479+696178564+697525249
1668+695243331+691527562+690380936+692881332+696405656+697632646+696938788
1658+697380277+701311180+709531108+719502543+723186744+719272730+715914461
1648+716687436+719233739+719083553+715725453+712145135+710673427+712709948
1638+718959267+727792576+733386859+731928412+728333699+728253619+732593424
1628+738816276+744363009+749149291+753687058+757159865+759473124+762416994
1618+767338840+773148540+777466072+780461685+784005392+788195577+791168974
1608+791680853+790731848+789971965+790252330+791914576+794596216+796745064
1598+797018459+796134006+795876366+796778105+798047714+799026189+799613501
1588+799935635+800434649+801728401+803742422+805586365+806781561+808083814
1578+810682596+814498054+817779191+820015997+822945131+827119278+830090692
1568+829589808+827517413+826925624+828909437+834094194+844080704+857926991
1558+865668478+861653585+854832199+851213966+851051085+852538436+853568994
1548+853577949+854145141+856959511+861802127+867243049+871493876+870767487
1538+864139189+857477397+855121633+856057942+855761368+852194312+848362475
1528+847370851+849601310+853816206+859136243+864645684+868201292+869256050
1518+870368956+873048385+876075622+878178054+879669882+881527086+885157334
1508+892106179+900778194+905251467+904365030+902878983+903926034+907362400
1498+910589299+910584425+907568863+905345942+907291501+913761962+920677369
1488+921580808+915648523+908875990+906639864+909965036+916426996+922524145
1478+926023816+926778883+925856855+925098671+926728386+930699074+934427594
1468+936015541+935137605+932858520+931102592+930615197+930639056+930919422
1458+931786930+931582280+927700911+921847232+918053707+918451955+922302550
1448+926468310+927352309+924231220+919997679+917959685+919350860+923573576
1438+928938839+932274099+931317216+928650199+927534289+927227343+925313012
1428+922479146+921786081+924254740+928099158+930887005+931536545+930841949
1418+930388331+930249310+929349838+928121374+927942795+928562694+928459944
1408+927722163+927877110+928879501+928729486+926791634+924757551+923768704
1398+923227129+922832848+923504434+925461781+927887141+930722934+934213367
1388+936792370+935899246+932223319+930051405+932481129+938584909+944490784
1378+947681072+949590983+952172197+954862394+956951395+959170065+961116134
1368+960565830+957228643+954713228+957136492+964675709+972546582+976054924
1358+975246414+972516432+969736576+969114410+972826211+979742469+984679107
1348+983815737+980220910+980090107+985356474+993021054+1000137257+1006696243
1338+1012747430+1015407137+1012096246+1005382088+1000893514+1002024158
1330+1008510375+1017484462+1025018126+1028382062+1028275969+1028137231
1321+1030195061+1033064461+1034034605+1033087131+1033326408+1037961201
1312+1046594451+1054330667+1056967591+1056466027+1057779162+1062422455
1304+1067862471+1071681046+1073741823+1073692630+1069483345+1060584747
1295+1050524447+1044102726+1043593001+1047645753+1052147475+1052777122
1287+1049064414+1044700976+1043661010+1046988335+1051376936+1051512047
1278+1045881040+1038556390+1033245024+1029499785+1025417790+1020953812
1270+1017369527+1015226913+1013771074+1011683774+1008418676+1004861595
1261+1002534790+1001694203+1001003121+999174141+996302587+993268945+990476055
1251+988080902+986230725+984555785+981838837+976123273+966919656+956872278
1241+949449015+945358519+941992655+936708436+929685745+922649621+916443658
1231+910913021+905595534+899732164+892430977+883643403+875046481+868740714
1221+865092671+862669068+860240251+857959352+856301924+855015312+854041371
1211+854131596+855652497+857872811+859974280+861804451+863262670+864105015
1201+864478099+864737042+865130189+866398665+869767476+875597804+882318084
1191+887480001+890144185+891278966+892275180+894249190+897794823+902537239
1181+907767732+913320868+918608885+921819689+921924535+920820244+921852219
1171+926618609+933535263+939495092+943357646+947151568+953258296+961554110
1161+969482337+974230591+975011784+973248545+971027721+970293907+971893472
1151+974630822+976786018+979035972+983410065+989233876+993248883+994068614
1141+994282048+997408975+1003876149+1010013820+1011091758+1007298233+1003339107
1131+1001361187+999742920+998020940+999269693+1006573600+1018572488+1028845315
1121+1031519644+1028215441+1024034720+1020907907+1019290887+1020031955
1113+1023348739+1028627007+1035253661+1042085588+1047203356+1048473192
1104+1044583434+1038114334+1033191864+1030623062+1029881654+1031328653
1095+1035063350+1040351933+1043796460+1039835974+1027827792+1014201909
1087+1006235257+1005727119+1009738045+1015374266+1021543901+1027540455
1078+1031827270+1031314484+1025262503+1018628142+1016234576+1016267106
1070+1013640837+1010381521+1012654485+1020670443+1026917722+1023881587
1061+1013931574+1004966668+1000408839+998860621+998572377+999133222+1000271461
1051+1000399204+996816052+988139390+976831924+967989093+965327572+969086640
1041+976668476+984676840+990017223+990662739+987379506+982734625+979511239
1031+979521781+982065646+984939467+986808006+987827570+988981904+991188333
1021+994777152+998583145+999755502+996777174+991442685+985990315+981112051
1011+977534227+976952979+979656211+982517564+981648639+976764368+971005845
1001+967055220+964957265+962658118+957999069+951029424+944062443+939133683
991+935832314+932388637+927896379+922326127+917215273+914957384+914727005
981+912237660+905420185+897685329+893658251+894055591+895450847+893815351
971+888504608+882283173+877763655+875309618+873931931+872409443+869809131
961+866580645+864505983+864432080+865108653+865084340+864658322+864943279
951+866096876+867114116+867129645+866819809+867853144+871226545+876807906
941+883833488+890991970+896764265+901010784+905513923+911620878+917778782
931+920647445+919255307+916718696+917067354+922052732+930632426+940186911
921+947721764+951336030+951703390+950570479+948306242+944607023+940543843
911+938275413+937799465+936099248+931668765+926915467+924510679+925394849
901+930342255+938400606+944438191+944122461+940152000+938754704+941806538
891+945816331+947444629+947233575+947446159+949032008+951640935+954942871
881+958478416+960825057+960384020+958006776+956839520+958095641+960641206
871+963862665+967316600+968355320+964816940+959629804+957797536+960891592
861+966622685+971899933+975132160+975877308+973928292+969358901+963641183
851+960471185+963645151+973120349+982725557+985587136+982672737+980005663
841+980638484+982951006+984812744+986003916+985826074+983203318+980260242
831+981410496+987649274+995270668+1000156300+1002387552+1004895599+1008194814
821+1010334481+1009716509+1006518513+1002651765+1001328203+1004940371
813+1012429262+1019858986+1023893828+1025191321+1025524904+1025509942
804+1027443089+1033774585+1041136413+1041997630+1035845677+1030809860
795+1031113405+1032163799+1027339149+1016276968+1005162873+999278081+998876716
785+1002259128+1007127531+1009239088+1005123088+997191460+991504913+989780213
776+987153717+980029126+971337954+965571950+964911359+969884155+978888620
766+986554447+988428200+986689671+985785949+986293633+985943502+983903468
756+981734217+981509335+984707784+990733015+996174504+998062085+997107583
746+996035313+996155348+997624449+998441347+996373202+993314511+991884855
736+992244961+991778988+987389140+981668589+980612754+985411334+990666593
726+990385377+986543112+985767586+990683028+997781889+1001120663+1000620912
716+1002719434+1011648182+1024343819+1032275900+1030268057+1021548549
707+1011621999+1005039097+1002450686+999527673+992799572+983826391+977088996
697+975649366+977730205+978753056+977166980+976344301+979367628+986008450
687+994098085+1001222676+1006422281+1006276516+998393174+990688582+992021779
677+1001556032+1012990447+1018463334+1012068476+995398298+973317687+952518021
667+941595541+942152759+948060731+953433418+955078888+953350787+952305040
657+951950148+949013533+946748050+951380122+963525342+974827934+971923623
647+953760880+936346346+933260508+943476435+955479006+962693482+970154150
637+980999723+986255889+974860691+953223611+939739470+944442782+960855094
627+973515366+976108878+972451710+962180923+943810811+928594828+928811096
617+942154856+953372210+943344101+920322420+904899918+901059864+904882236
607+908131975+899201583+882360193+871409092+870925890+876034987
##END=
