##TITLE=<SNM>
##JCAMP-DX=4.24
##DATA TYPE=INFRARED SPECTRUM
##DATE=29/4/2025
##SAMPLING PROCEDURE=Instrument type and / or accessory
##ORIGIN=Admin
##XUNITS=1/CM
##YUNITS=ABSORBANCE
##RESOLUTION=4
##FIRSTX=4497.3318
##LASTX=599.83466
##DELTAX=-1.4281778
##MAXY=2.214716
##MINY=0.52436483
##XFACTOR=1
##YFACTOR=2.062615e-09
##NPOINTS=2730
##FIRSTY=0.53817338
##XYDATA=(X++(Y..Y))
4497+260918002+260890058+261264254+261856510+262458852+262755226+262408859
4487+261345571+259759873+258113547+257056906+256895484+257368220+258064017
4477+258809951+259629140+260542536+261435298+261874542+261527077+260953922
4467+261048302+261676651+262015649+261914045+261598426+260711471+259199144
4457+258250840+258759380+259705892+259532044+258424428+257898433+258722188
4447+260217380+261363315+261939331+262352653+262731038+262658650+261944012
4437+261106386+260697976+260699999+260795765+260761262+260542073+260230153
4427+259925890+259639688+259480028+259846623+261088469+262786146+263683995
4417+262791781+260633968+259010066+259278612+260999898+262393601+262118207
4407+260346610+258264393+257059275+257311465+258833300+260934792+262787475
4397+263501767+262432122+259974264+257704328+257155389+258529615+260659224
4387+262003252+261839807+260670928+259350191+258225959+257423385+257239423
4377+257852110+259026047+260332074+261370163+261726066+261156465+259921035
4367+258702769+258148802+258427982+259107914+259455552+259067081+258206482
4357+257464622+257206046+257368191+257655693+257837690+257878060+257837112
4347+257684938+257223558+256289183+255289701+255254562+256698749+258752964
4337+260074452+260283411+259845410+259096991+258028848+256610900+255103832
4327+254223322+254566654+255702330+256539668+256606941+256253119+255861990
4317+255575874+255562293+256073433+257134120+258162413+258323112+257631795
4307+257010756+256878925+256707823+256256962+256147556+256854131+257913229
4297+258392438+257784056+256487941+255590034+255928714+257149898+258002031
4287+257847227+257352557+257282972+257425466+257315539+257179085+257422981
4277+257889793+258159841+258084389+257803042+257526723+257360591+257302564
4267+257388737+257636621+257892220+257970330+257867946+257734497+257743831
4257+257947444+258229975+258501960+258777152+259000964+259105400+259173800
4247+259248616+259242721+259246420+259498176+260035643+260730977+261386404
4237+261531036+260759297+259517509+258825844+259038704+259496124+259520167
4227+259287512+259400098+259914099+260305460+260287543+260100778+260018738
4217+260122509+260496271+261134388+261749907+261963027+261587849+260856046
4207+260398019+260568861+260913841+260828189+260404579+260057056+259851131
4197+259754267+259917047+260299276+260603134+260759586+261033968+261588254
4187+262186261+262322860+261662752+260477112+259475607+259086761+259126611
4177+259191688+259144585+259138314+259385822+260094998+261351380+262778142
4167+263579964+263345835+262515809+261630560+260730746+259929820+259773368
4157+260565654+261887835+262998023+263325376+262703875+261602645+260885984
4147+261018422+261771898+262726848+263640417+264332775+264639379+264520379
4137+263996436+263059258+261886824+261030327+261001199+261617845+262129304
4127+262100146+261799495+261631947+261624000+261604350+261525083+261443592
4117+261421225+261500838+261602500+261510374+261152304+260714881+260288815
4107+259787326+259475549+260014172+261554992+263294340+264376584+264831230
4097+265118646+265130783+264310148+262689802+261143779+260393135+260257432
4087+260155683+259981517+260145425+260893671+261820417+262228740+262055094
4077+262029780+262531500+262930345+262721849+262448275+262633104+262738234
4067+262097285+261067201+260412179+260222726+260061448+259766404+259688351
4057+260184957+261085522+261773574+261831687+261435992+261054630+260939040
4047+261027495+261296474+261981897+263126155+264042325+263870096+262756873
4037+261824029+261794091+262294049+262683300+262906129+263158376+263312487
4027+263192909+263032903+263137426+263340576+263343957+263337859+263643856
4017+263955112+263706564+263101448+263004786+263833569+265065474+265824759
4007+265681889+264940376+264273622+264128354+264520090+265200831+265749163
3997+265724455+265125870+264549218+264624670+265450246+266566300+267304634
3987+267385461+267216237+267307611+267501427+267173584+266193521+265327778
3977+265565258+267120614+269106718+270275193+270136658+269213177+268279206
3967+267700185+267510414+267749109+268381331+269023782+269245947+269154659
3957+269152926+269212830+269057621+268967085+269601128+270944086+272067712
3947+272260806+271976858+272126027+272725595+272849537+271993821+270814914
3937+270363909+271300538+273643499+276497485+278178892+277628710+275665465
3927+274044395+273710888+274149265+274175677+273571110+273524845+275087166
3917+277513178+278685930+277453215+274746781+272281323+271082824+271428266
3907+273680199+278334650+284667388+289989230+291846740+290299619+286801737
3897+282826119+279906565+279216432+280533498+281844236+281151792+279372999
3887+279146789+281322432+284191271+286186507+287387174+287286726+285000722
3878+282123676+281409472+283412943+286616359+289719124+291919619+292153372
3868+290901528+290293695+290915659+290903550+288898056+286161250+284678947
3858+285567722+289590067+296843223+303436184+302973013+296709658+289945450
3848+285292155+283362372+283864035+285926631+288814080+292501993+296698533
3838+299569222+299328100+296742602+293789728+291412322+289695226+288877192
3828+289166573+290199489+291933924+295239753+299535787+301157203+298619617
3818+295584790+294435416+293404928+290916843+288500974+288400439+291476937
3808+296278391+299634675+300758011+302166423+304810901+306189722+305020554
3798+303189370+301746570+300164397+298548558+297883104+298650162+300613148
3788+303403039+306545163+309373574+311840621+314893885+318974256+322763340
3778+324939590+326478446+329280156+334117616+340725488+348143765+354881445
3768+360234410+364603988+367989459+370543690+374016287+379796792+385985186
3758+389296534+390186870+392270128+398108948+407341561+416392322+421376408
3748+423106884+425256635+429060658+431919355+432623474+434068875+439041835
3738+447954523+458853055+468007153+472006785+470439639+466555742+464518200
3728+466174611+470311420+473975955+475166421+474001327+471340782+468163201
3718+465814952+465675694+468402126+473118794+476986392+477147930+474187717
3708+470755808+468495957+468326212+470567164+473676056+475153822+474864036
3698+474770639+475850803+477774806+480855205+486286048+493578880+498452867
3688+496790445+490894466+486205193+485693127+488796095+492649707+495512998
3678+498832697+503695529+506946511+506584424+506043518+507076955+505599593
3668+498772070+490384250+484631487+482529301+483001864+484836024+487484259
3658+490105388+491138015+490464990+490666695+494291207+500789297+505117465
3648+502553669+495945421+490681722+488226581+486916652+485003861+482760684
3638+481810935+482844603+484964734+487286946+490211384+494227285+497670782
3628+497874106+495668409+494243583+495332619+498495636+501563117+502167886
3618+500691160+500045761+501718066+504736710+507840718+510934439+513865292
3608+515382070+514948606+513908985+513638908+514032263+514262981+514532596
3598+516075324+519026579+521364685+521399824+520589477+521807049+525843352
3588+530393743+532391493+531329159+528943372+527068784+526709934+527618243
3578+528660118+529303379+530045874+531232930+532848595+535214558+538375899
3568+541110480+541645086+540093804+538706257+539275482+541284501+542477279
3558+541483086+539392344+538077040+537712063+536939803+535433313+534952341
3548+537146537+541127298+543730048+542657427+538968473+535576530+534312779
3538+534917260+535894461+536313708+536899694+538725849+541128512+542015611
3528+540449881+537967171+536703999+537013781+537568384+537131857+535667615
3518+534104139+533495902+533971672+534466688+534183087+533795743+534297001
3508+535395631+535739223+534438426+531879832+529113117+527331463+527866243
3498+531357941+536144310+538693079+537177400+533536474+530860497+530717223
3488+533128555+536994247+540429190+541987002+541337962+538806994+535570692
3478+533438453+533263912+534415135+535809271+536582918+536017912+534022647
3468+531602415+530012526+529611889+529796256+529599463+528069277+524749751
3458+520546420+517448076+516648826+517244001+517389529+516591955+516156642
3448+517307980+519409010+520557748+519997770+518799386+517966152+517439060
3438+517014149+516549880+515452465+513630933+512306960+512366200+512956636
3428+513014778+512946290+513557013+514459138+514656451+513962042+512942245
3418+512229283+512164090+512394693+512176863+511403563+510563451+509489211
3408+507596418+505435975+504181472+503741419+503112434+502368725+502674288
3398+504185460+505440367+505376388+504607365+504011901+503457355+502630595
3388+502021838+502270184+503185660+503989303+504150262+503716105+503168957
3378+503035450+503582135+504792483+506173211+506960382+507041584+507038694
3368+507177345+507030372+506687126+507000665+508123626+509154751+509550012
3358+509651616+509803040+510104384+510775155+511618792+511751143+510888781
3348+509940130+509518340+509200004+508697012+508386594+508385554+508138306
3338+507362290+506836815+507677389+509879849+512128777+513233475+513362763
3328+513620645+514528030+514982243+513264164+509655488+506890681+507060598
3318+509244969+511021016+511533428+512022145+513756522+516427932+518477235
3308+518561385+516586349+513580420+511048584+510188534+511130307+512898725
3298+514409839+515386578+516197272+517160545+518061919+518227907+517423686
3288+516631429+516964099+517883332+517831721+516612473+515705608+516174269
3278+517639262+519167657+519993840+519682035+518611378+517875761+518001118
3268+518386901+518376614+518002852+517459057+516871453+516729103+517504715
3258+518795976+519706251+520038573+520413953+521183497+521703422+521002598
3248+519083276+517136097+516067926+515478357+514856307+514716905+515557536
3238+516710493+517184819+516899137+516456310+516407762+516983402+517815538
3228+517908126+516530577+514242464+512705284+513245554+515299885+516574097
3218+515574066+513314099+511580416+510741056+510264014+510146632+510500339
3208+510633499+509910019+508882708+508512819+508733134+508553333+507429101
3198+505899088+504827853+504504431+504562805+504455074+503860824+502849523
3188+501851746+501365053+501429668+501437412+500711967+499128840+496971229
3178+494610988+492629132+491745327+492258433+493687593+495056647+495594026
3168+495157788+493926461+492018063+489727234+487631521+486096769+485115290
3158+484762740+485236776+486230449+486839495+486326736+484716186+482758690
3148+481456708+481256477+481609663+481645208+481138603+480407725+479550160
3138+478498576+477612430+477383966+477755127+478314122+478728918+478530218
3128+477286321+475498830+474292413+473898307+473548213+472890705+472369363
3118+472330583+472706021+473299664+473788063+473779220+473174451+472192597
3108+471032155+469772682+468590163+467790508+467378630+466795188+465633764
3098+464471906+464217665+464672716+464707682+463972845+463363221+463591570
3088+464175590+464182439+463498693+462807751+462594949+462720769+462785268
3078+462535680+461987983+461314409+460638031+460055658+459811444+460128567
3068+460832772+461411765+461394947+460563476+459141511+457857214+457368325
3058+457522378+457460970+456575576+455182394+454096566+453706246+453713470
3048+453711939+453678186+453720261+453608399+452892345+451577157+450444659
3038+450300576+450976289+451495405+451185161+450175536+448888003+447629136
3028+446716145+446473318+446893056+447522677+447830813+447541548+446523311
3018+444783733+442915185+441921916+442094955+442567835+442441177+441849701
3008+441446261+441346853+441029904+440117694+439019122+438576266+439034235
2998+439667844+439670416+439103850+438652845+438723326+439058220+439055562
2988+438356933+437209756+436201114+435616862+435184351+434503928+433588885
2978+432915802+432965968+433609952+434005936+433437606+432219687+431236244
2968+430638237+429767581+428472997+427618552+427868921+428710824+429174660
2958+428912876+428101605+426914231+425588928+424574767+424221869+424478104
2948+425005977+425441464+425538878+425213491+424446172+423304399+422193026
2938+421683070+421773143+421746789+421165022+420547191+420576147+421079370
2928+421261424+420662117+419520979+418355278+417502134+417024890+416794461
2918+416598650+416282857+415828414+415353770+415096148+415247109+415621680
2908+415617143+414850605+413760674+413119407+413052798+413070859+412886377
2898+412590812+412186534+411572807+410972170+410757143+410830312+410694926
2888+410179624+409656375+409455999+409487642+409591847+409844007+410201875
2878+410188843+409342894+407897031+406696942+406366151+406782537+407424959
2868+407890500+407923703+407400454+406582276+405907199+405345805+404494597
2858+403400909+402704188+402856536+403639488+404398195+404471826+403646655
2848+402399405+401437779+400999142+400871964+400886181+400967095+400911756
2838+400567036+400107795+399759232+399435464+398980789+398471757+397994975
2828+397443840+396764024+396122121+395666984+395319664+394927725+394506514
2818+394187051+393984103+393767631+393454554+393068337+392635682+392180661
2808+391729800+391234264+390646804+390163810+390131329+390563608+390959072
2798+390785195+390094455+389422846+389041918+388672693+388125863+387715084
2788+387600187+387269194+386321959+385314299+385078524+385524327+385783683
2778+385379579+384682597+384238239+384080978+383785038+382978534+381742786
2768+380560902+379918769+379923999+380207427+380216414+379756219+379202339
2758+379012424+379162171+379287731+379212944+379026064+378784971+378461895
2748+378064871+377593667+377034642+376551879+376403172+376479375+376274433
2738+375551039+374684573+374149100+374013166+374054027+374056108+373907343
2728+373611952+373291275+373097487+373026053+372819290+372242523+371457115
2718+370853559+370535512+370271850+369907711+369548948+369406222+369590213
2708+369966894+370231394+370194491+369892569+369410008+368763510+367949205
2698+366988793+366003500+365258808+364995204+365159718+365387749+365334982
2688+365002833+364697357+364719088+365099553+365535965+365610088+365219739
2678+364696894+364338593+364041092+363592514+363062879+362688192+362560985
2668+362561765+362507149+362326192+362079117+361795458+361400197+360854986
2658+360287119+359934308+359937544+360152716+360245159+360040940+359668999
2648+359323181+359053913+358837846+358699484+358677435+358721244+358701536
2638+358553869+358338379+358121214+357894801+357638422+357376580+357172476
2628+357082749+357078328+357018308+356779729+356434114+356240066+356390247
2618+356754415+356974817+356840992+356450585+356040384+355817150+355845700
2608+355940716+355839516+355571115+355388974+355312482+355062026+354510284
2598+353921235+353648817+353747994+353944353+353947416+353754149+353591398
2588+353579059+353610326+353632635+353801166+354158138+354393740+354194607
2578+353652025+353087163+352638297+352241619+351908488+351794949+351938137
2568+352091583+351992522+351707765+351525565+351566658+351702072+351806219
2558+351892767+351980298+351981628+351837371+351680746+351711522+351942702
2548+352235406+352509269+352727706+352764782+352496641+351993967+351512793
2538+351305452+351441589+351759694+351993389+351981454+351759087+351473492
2528+351285542+351357613+351786944+352430234+352905889+352927966+352572699
2518+352151545+351926057+351942616+352027083+351974865+351803040+351717706
2508+351846878+352147066+352499993+352757788+352795673+352654797+352550188
2498+352655722+352942213+353242864+353404719+353359870+353116032+352756835
2488+352433904+352250375+352169462+352156805+352335190+352812260+353413995
2478+353789202+353790213+353615903+353542648+353600876+353580532+353347184
2468+353075171+353073553+353410701+353852777+354179320+354375939+354468498
2458+354401109+354201860+354048414+354039715+354091760+354113115+354079970
2448+353971661+353858441+353941695+354267226+354569900+354615356+354466071
2438+354264683+354078496+354056245+354346608+354761664+354899188+354697396
2428+354549209+354770189+355195302+355429113+355388685+355438042+355915546
2418+356653591+357173517+357334910+357506417+358006924+358660992+359077378
2408+359157685+359113442+359110524+359133006+359154246+359249059+359513327
2398+359956472+360461834+360844900+361029469+361149048+361358411+361578120
2388+361576675+361283595+360840537+360292205+359381554+357793948+355537739
2378+352903259+350088921+347118564+344137631+341460528+339190042+337066906
2368+334911809+333068055+332142637+332320849+333177490+334264387+335649478
2358+337658122+340305952+343404181+347104549+351576483+356070611+359162684
2348+359933007+358639319+356623306+355389234+355427003+356256307+357332772
2338+358470326+359620335+360537517+360935581+360958815+361102436+361610918
2328+362347432+363208638+364286288+365659069+367251559+368899589+370483005
2318+371953373+373227642+374191060+374906507+375650562+376602565+377653340
2308+378575405+379204362+379487703+379550902+379628059+379801675+379962606
2298+380073775+380234504+380454068+380591476+380550817+380398960+380297992
2288+380387632+380690075+381071263+381308888+381295364+381213873+381370642
2278+381788704+382147844+382189283+381966395+381675685+381484586+381501028
2268+381686551+381838263+381806216+381670426+381612746+381672247+381711518
2258+381610001+381406071+381215086+381090740+381010520+380948708+380959718
2248+381173474+381622601+382117761+382439334+382581221+382642224+382624510
2238+382549347+382602461+382915393+383312533+383485918+383379575+383253148
2228+383367612+383696784+383968133+383942674+383605583+383101407+382585324
2218+382151282+381787548+381420693+381102126+381011069+381149113+381260022
2208+381176421+380975554+380731369+380422887+380110389+379942233+379983297
2198+380164167+380368820+380574802+380942987+381651643+382605264+383470805
2188+384027489+384351489+384642777+384968424+385253961+385502712+385869480
2178+386437809+387085347+387673067+388184121+388560859+388620157+388319304
2168+387953460+387885638+388166753+388589179+389030070+389536789+390094918
2158+390503992+390569156+390355921+390152944+390180772+390464027+390967048
2148+391606060+392112087+392209269+391993115+391855851+392038195+392483796
2138+393053975+393640366+394103305+394336018+394437044+394639963+395002541
2128+395340528+395548822+395776072+396173675+396688803+397222051+397801361
2118+398472942+399155648+399740796+400255982+400802696+401395184+401986834
2108+402580188+403192644+403818538+404506070+405313411+406140056+406758494
2098+407056977+407171903+407387104+407911451+408717578+409622623+410480448
2088+411188295+411610114+411716226+411726109+411887040+412199163+412547494
2078+412955847+413494036+414062163+414486091+414743222+414947354+415210351
2068+415612375+416159031+416682367+416936955+416878553+416737070+416793160
2058+417172470+417829602+418618911+419357419+419895666+420211834+420457753
2048+420870382+421596463+422595569+423705295+424774507+425708651+426433895
2038+426929460+427328073+427856408+428583357+429341052+429986162+430629625
2028+431526521+432816481+434380246+435893007+437135922+438315494+439828717
2018+441633749+443187776+444136715+444731226+445465139+446633122+448247545
2008+450115660+451980221+453714164+455375834+457078279+458869613+460710160
1998+462536402+464393681+466433014+468636370+470614700+471911250+472544656
1988+472999851+473699607+474749689+476115274+477724755+479372064+480796918
1978+481968890+483124852+484462782+485947310+487535754+489480679+492127065
1968+495328746+498359008+500685323+502550028+504428026+506294870+507880539
1958+509410321+511504762+514281360+517062871+519216899+520916887+522731310
1948+524887072+527444915+530708496+534633716+538181996+540361858+541642716
1938+543175214+545238908+547314681+549056861+550615309+552367198+554631268
1928+557490050+560821309+564349823+567580981+570210374+572720132+575674681
1918+578476073+580059142+580794644+582161212+584748184+587687071+589869188
1908+591252979+592673585+594533782+596178287+596755488+596386986+596097201
1898+596703935+598091714+599643053+601244674+603387895+606052254+608160624
1888+608790072+608320428+607624978+607149670+607228792+608145424+609479684
1878+610331586+610537106+610917398+612266223+614760087+618007543+620769114
1868+621250895+619118540+616220399+614414298+614034352+614324022+614362976
1858+613551704+611887838+610066710+608997499+609113552+610187907+611673707
1848+613167713+614493246+615155926+614181441+611401780+607927709+604722791
1838+602086115+600160667+599141969+599171849+600172400+601476433+601981101
1828+601442103+600661752+599796846+598004732+595096419+592138170+590119672
1818+589010351+588159200+587332382+587082591+587806881+588713283+588422920
1808+586727902+584924806+584434356+585690362+587957900+589773190+590079042
1798+589346083+589116000+590514067+593325862+595760197+595701072+593347246
1788+590970765+590289012+591361345+593284134+595335575+597073073+598091598
1778+598695789+600126799+603423901+608202699+612278534+613449291+612142368
1768+610243390+609034777+609364614+611592042+614621263+616447129+616705416
1758+616673513+617042074+618099610+620748365+625437350+630634412+633662072
1748+633769340+632626035+631967169+632544544+634395089+636864910+638780879
1738+640155885+642988776+648543128+653899473+654524991+651506751+648303625
1728+646136650+645178406+645421377+646498564+648471577+652434769+659246109
1718+667383388+672585362+672467576+669214225+665590638+663097641+662839354
1708+665502153+670298463+675067956+678963181+683478028+689161321+693279230
1698+693792683+691882378+688179322+683595583+680740268+680992082+683519467
1688+687597267+694365492+703868182+710182772+707877032+701644973+697437423
1678+696988297+699588850+703090374+705567130+707579733+710212248+711747982
1668+709764450+706211778+705022873+707087838+709640480+709823055+708699978
1658+709515411+714570643+724587307+736140629+739479806+734486414+731386452
1648+733203360+735451999+732545535+726143270+721391867+720472229+723145952
1638+728540384+734920399+738193689+735636481+730648002+727571621+727722813
1628+730073113+733165447+736381462+738462783+737330344+734104215+732923516
1618+735597990+739097837+739320985+737240241+735851133+735862403+736571261
1608+737295956+737915231+738731358+739757801+740573754+741290010+742872617
1598+745858607+749453874+752352882+754060789+755068969+756014672+757234440
1588+759129314+762185468+766244137+770423772+774140352+777771510+782255090
1578+788124426+793959085+796449943+795247398+793577694+793180583+793011127
1568+791531454+789068800+786999904+786568463+789019847+795182667+802577450
1558+803422532+796419832+788632388+783401400+780936318+780539265+781067514
1548+782438879+786274979+793567927+802558609+810209136+813897222+810885802
1538+802945895+796212983+793428351+793487013+794186220+794907042+796844164
1528+800886651+806541336+812524701+817830881+821376675+822242910+822223202
1518+824168358+827848931+831206834+833977941+837979740+844805067+854816355
1508+866385571+873249679+869753472+862101154+858288807+860346491+866649638
1498+872992143+874692767+871186331+866798692+866358985+872358996+882969043
1488+891747444+894534676+893912568+893839631+895654285+899242675+904746803
1478+912170021+920591190+929074488+936956196+941680435+940702886+937224539
1468+936961802+942097370+950039936+955937302+959146844+963744339+971826654
1458+979233227+977887754+968952266+961057843+957433216+958020878+961945289
1448+965793295+965255337+960220911+954268003+950263141+949029271+950274931
1438+953271267+956630556+958683789+959353867+959589903+959082056+957001139
1428+954060518+951787143+950586216+949971044+950342320+953367380+959394786
1418+964436032+964210515+960730260+958010937+956577442+954938485+953215032
1408+952779718+953901119+956024573+959208281+963732722+968663290+971911613
1398+972287860+970960766+969542587+968231675+967105246+967366307+969960793
1388+974193599+978101597+980168932+980278627+978684404+975746672+972835296
1378+972205444+975366033+981336857+987594115+992770486+996203291+996745410
1368+994842214+993810338+996754195+1003173626+1009430652+1012576793+1013157635
1358+1013174858+1013352867+1013251726+1012286314+1010731623+1010009760
1350+1011692757+1016237080+1022215302+1027596384+1032147989+1037159181
1341+1042660015+1046203556+1045271434+1040440679+1035237490+1033392205
1332+1035830585+1039500928+1040458480+1038868071+1038174759+1039786090
1324+1042462933+1045437885+1049055403+1053322656+1057155866+1059377861
1315+1060226064+1060954746+1061804567+1061357694+1058364595+1054379615
1307+1053006747+1055541067+1059736191+1063082881+1065082249+1066329239
1298+1067294535+1066910890+1063707763+1058864061+1055420622+1054442958
1290+1054359039+1053032061+1049599950+1045040831+1040619381+1036670118
1281+1032716232+1028380318+1023746644+1018925714+1014528769+1012917785
1273+1017151863+1027037504+1036487254+1037817931+1030804019+1022262116
1264+1016721404+1013373905+1010022360+1005857636+1001591771+999540618
1255+1001590962+1005583687+1006249950+1001109065+992546010+983284788+974384670
1245+967450400+964633865+965513913+965891027+961749999+953900368+946464781
1235+941421743+937096696+931179043+923559263+916201238+911036599+907589056
1225+903065713+896248478+889286755+884367919+881265702+879181144+878544068
1215+879766668+882122517+884534080+885979654+885301601+882455764+879803772
1205+880372997+884476632+888901954+890346488+889309815+889116316+891983537
1195+897160949+902431237+906578680+909564035+911385624+912521358+914603084
1185+918666089+923344959+926753201+929219612+932443140+936733626+940928172
1175+944763059+949005170+953607924+957237868+959037785+960203572+963223199
1165+969447398+977681310+985884763+993346473+999337988+1003108202+1005645759
1155+1008800453+1013246755+1015823613+1013749458+1008762886+1004064250
1147+1001918545+1003844629+1010508533+1018994606+1024575312+1026532836
1138+1026956013+1026880879+1027315268+1031419307+1041966704+1055025650
1130+1059977313+1052908379+1042414732+1037259745+1039014177+1045332582
1121+1053531296+1060168153+1061552002+1056987451+1050077223+1046246787
1113+1048826418+1055827732+1060888859+1059847274+1055072810+1050228299
1104+1045168675+1039459316+1036181633+1037930632+1043443140+1049666414
1095+1055400047+1060311369+1063038957+1064351487+1067211888+1071678187
1087+1073741823+1070212847+1061540558+1050972702+1043152084+1041441345
1078+1045707095+1052952997+1059448371+1061866408+1058828806+1053260352
1070+1049224165+1047074761+1045294437+1043276806+1039920522+1034254047
1061+1029022539+1028769049+1033565821+1038035357+1037433362+1032174459
1053+1025489286+1020285520+1018472137+1020585593+1024393835+1025821146
1044+1023945460+1022563923+1023954592+1025080558+1022174961+1017082277
1035+1015400436+1019594520+1026527172+1032080947+1033388506+1028209360
1027+1018101901+1008241342+1003526870+1005537451+1010818778+1013886086
1018+1013849791+1013058805+1010868366+1005417352+998061639+993198749+994024527
1008+998276059+999592634+995832708+991652611+990038622+988859715+985359289
998+979700444+974361899+971344988+970606134+970052456+967108830+961393056
988+954652457+948352893+942871768+938188737+933958993+929100149+922814919
978+915888508+909895201+905622979+902784019+901360523+902271491+905390411
968+908035004+907216277+902846265+897314684+892867457+890415148+889570760
958+889006968+887900478+886879179+886375205+885409967+883652703+882936678
948+885076373+889645489+895029692+900711252+906973364+913326793+919005404
938+924349035+929858885+934620517+937378216+937991019+937862771+939405731
928+943781407+949745874+955413100+960030533+963464841+965295447+965192167
918+963392366+960990974+960061107+961864376+964911744+966751309+966395579
908+964755062+963893913+965084668+968072449+971854280+974769008+975147220
898+973589177+972627695+973015964+972637983+969534495+964525037+960791003
888+960789096+964300444+969605815+975680323+981549544+985182205+985829974
878+985556718+987249077+992666108+1000787493+1007004293+1007157104+1001802492
868+993469924+983991161+976921649+976683995+983320158+991533553+996693395
858+999734464+1003258238+1006634751+1007540864+1006463330+1007223222+1013098799
848+1023312949+1033432314+1038591000+1035943748+1027658225+1019912972
840+1016397520+1015636703+1015662711+1016401450+1017548800+1018834975
831+1019570130+1018736492+1016244247+1012949341+1011359857+1014530850
823+1022349849+1030315765+1033663495+1031722269+1029014101+1029846352
814+1032419280+1033138484+1034236246+1039515377+1047035460+1052038561
805+1053750109+1055052235+1057337227+1058576819+1056105495+1051624516
797+1049236533+1049838528+1049961632+1047690049+1047213238+1052483122
788+1059521078+1059746479+1051790967+1042207941+1034300977+1028384017
780+1025070155+1024562829+1025343873+1023937369+1018512940+1011415109
771+1005917165+1003304937+1003381458+1005412035+1008130260+1009853598
763+1009926651+1009234611+1008301334+1006675785+1004291270+1001719845+999597142
753+998490479+1000507301+1006986030+1015310391+1022100405+1027103391+1029271290
743+1025345376+1016647773+1009440824+1007493357+1009485789+1013238548
734+1018820758+1025422359+1029753186+1029769253+1027279435+1025712375
726+1026749337+1030223293+1033960563+1036123607+1040050676+1050091094
717+1062439389+1065664594+1058179419+1049356632+1043690157+1036792875
708+1024673680+1011266807+1003886241+1007875383+1021718148+1036687688
700+1044393178+1044036004+1037539358+1025814904+1013350093+1003835613+997963849
690+998236989+1005807123+1015704093+1020538547+1022529593+1029101372+1039812329
680+1045044299+1033833298+1008444319+983020432+966966885+959321386+955329123
670+954920511+965720531+986794113+995215802+981183122+959577303+946452471
660+947905385+960355227+975995770+987758253+992578028+995865074+1002780156
650+1006138290+996748069+975890005+954912940+944463390+948683655+964032910
640+980591299+990216400+990952017+985001884+980674755+983447539+988531091
630+986930857+977534047+969150966+971157269+984019943+996975551+992960632
620+967156337+934908742+918204883+919116313+924671070+930145838+940406859
610+956374697+977532198+1002959206+1025351040+1029887040+1001997724+954795153
600+914343873
##END=
