##TITLE=<SNM>
##JCAMP-DX=4.24
##DATA TYPE=INFRARED SPECTRUM
##DATE=29/4/2025
##SAMPLING PROCEDURE=Instrument type and / or accessory
##ORIGIN=Admin
##XUNITS=1/CM
##YUNITS=ABSORBANCE
##RESOLUTION=4
##FIRSTX=4497.3318
##LASTX=599.83466
##DELTAX=-1.4281778
##MAXY=2.1215258
##MINY=0.37517771
##XFACTOR=1
##YFACTOR=1.9758248e-09
##NPOINTS=2730
##FIRSTY=0.39204532
##XYDATA=(X++(Y..Y))
4497+198421090+198024968+198050806+198301222+198648610+198685625+198161685
4487+197638001+197861373+198707164+199463269+199880116+200123925+200010573
4477+199245448+198344647+198346684+199401049+200496065+200850738+200748231
4467+200710130+200641123+200153353+199317909+198709683+198753847+199282026
4457+199813025+200054421+200000195+199801576+199685554+199705887+199603168
4447+199250199+198893641+198521577+197676856+196432635+195725295+196124193
4437+196911279+196914462+195920822+194849955+194693343+195603737+196994872
4427+198204688+198790470+198525755+197581136+196455471+195507354+194793332
4417+194323210+194144153+194242543+194600097+195146436+195655956+196016949
4407+196342285+196494613+196006421+194815399+193600756+193090391+193419558
4397+194294566+195371632+196262222+196528128+196122926+195610449+195550176
4387+195945031+196494930+196883118+196681331+195700166+194467257+193490134
4377+192411453+190927902+189884095+190260609+191694143+192949180+193385379
4367+193336493+193393554+193764547+194181621+194301384+194176945+194147834
4357+194376877+194762079+195129180+195253498+194893953+194119824+193502517
4347+193678255+194686902+195886854+196536922+196343356+195474411+194415762
4337+193821684+194060531+194737492+194989749+194513427+193944343+193966229
4327+194529567+195132831+195355221+194981875+194121543+193347233+193297427
4317+194049233+195100899+195785553+195616181+194688486+193868669+194030243
4307+194959793+195589347+195434123+195162862+195603058+196782511+198067051
4297+198763410+198557098+197723660+196917463+196577180+196628841+196806403
4287+196965519+196996893+196778936+196424037+196322646+196654739+197055733
4277+197084588+196838592+196781787+197138919+197757779+198392507+198816308
4267+198750197+198021092+196922652+196187211+196287320+196884883+197287838
4257+197312454+197324054+197581423+197972960+198341314+198790213+199524342
4247+200332877+200564061+199969440+199113935+198545529+198209741+198046733
4237+198325099+199066709+199877522+200369409+200161242+198976449+197393905
4227+196766659+197729407+199371863+200365638+200403739+200038673+199654769
4217+199317276+199326341+200046954+201130280+201672592+201311312+200511903
4207+199793084+199320217+199150920+199251376+199362421+199359464+199533693
4197+200106851+200785170+201196090+201406157+201571261+201477562+200983111
4187+200557017+200766964+201494275+202177873+202605566+203014569+203607381
4177+204314645+204883247+205012045+204596480+203879833+203147545+202471006
4167+202055788+202369796+203385261+204242486+204371646+204359458+205005966
4157+206154785+207033187+207207823+206766631+206023559+205312176+204766320
4147+204219121+203561542+203055823+202963783+203111858+203208015+203369122
4137+203887541+204619301+205008485+204730979+204186194+204226301+205173122
4127+206228091+206330115+205477461+204557942+204095422+203956548+204096885
4117+204727993+205700802+206403346+206456153+206083274+205689821+205450296
4107+205422693+205713367+206349618+207160944+207815431+207906173+207171095
4097+205819449+204566328+204159677+204785536+205883433+206617260+206676779
4087+206513591+206678137+207178410+207673194+207980414+208083540+207909386
4077+207497758+207188471+207231912+207364842+207118122+206446801+205789403
4067+205561476+205776551+206119052+206314142+206478416+207024664+208091384
4057+209137861+209307218+208349311+207041075+206395909+206549505+206829801
4047+206894177+207096839+207570687+207844723+207779382+207975467+208704919
4037+209249056+208929422+208148399+207776486+208013568+208393853+208633016
4027+208965336+209626505+210363514+210650010+210281174+209578057+209065083
4017+209062247+209455323+209759602+209573049+209063695+208752734+208795526
4007+208891427+208926134+209166353+209708167+210246391+210544456+210724206
3997+210923323+210953098+210528648+209792514+209346405+209620864+210404813
3987+211159213+211560389+211529347+211023356+210176751+209488974+209524269
3977+210425960+211812735+213080140+213785942+213845054+213464965+212920768
3967+212352151+211792388+211444774+211738751+212783041+213882506+214123299
3957+213433652+212567588+212176157+212466393+213516641+215075127+216151726
3947+215870525+214785449+214249638+214568624+214781663+214285733+213592451
3937+213401283+214058938+215769767+218210094+219938631+219536098+217563344
3927+216001826+216004451+217010866+217844500+218274907+218975203+220165743
3917+220981699+220418678+218553756+216361688+214710936+213943579+214238522
3907+216055584+219826470+225002171+229851557+232852899+233489467+231533169
3897+227371953+222818867+220143449+220404620+222383196+223457306+223073431
3887+223251944+224918111+226318809+226207131+225882821+225935537+224943376
3878+222879488+221991206+223682427+227223878+231115085+233747621+233601115
3868+231597229+230670092+231775048+232634656+230979681+227606938+224641736
3858+223588065+226028542+233501428+242666047+244450514+238180777+230573000
3848+225632631+224161599+225518886+228451689+231712934+234815712+237735995
3838+239733848+239815012+238282576+236153617+233890657+231649764+229967760
3828+229212756+228963426+229203947+231413587+236268267+240708437+241769048
3818+241168001+240613834+238520246+234162854+230067597+228849335+231243491
3808+235712531+239114309+240397883+241837044+244391598+245419688+243573093
3798+241132072+239502392+237999293+236215083+234787898+234291079+234916259
3788+236773413+239572364+242278824+244106957+245712805+248164777+250947468
3778+252493556+252788679+253608421+256597425+262000329+268390024+273854107
3768+278148405+282154216+285800317+289083267+293671361+301036325+309884749
3758+317361542+322969792+329011844+337898640+349790399+361179425+368531628
3748+373945271+381315725+389989965+394596160+393612234+391763512+393108898
3738+398748070+407061422+414680693+419175270+420382431+419352380+417848316
3728+417914019+420139648+422468206+422256645+419447165+416374840+415169519
3718+415919108+417330439+419266404+423344345+429424950+433240559+432114214
3708+429286725+428526276+430548458+434376556+438531181+441592857+443422634
3698+444941239+446842000+449407550+452909603+457642136+463396063+468415183
3688+469816197+466857240+461992756+458508411+458514113+461789189+466327780
3678+470551698+473526312+473685051+471502893+470351510+471473601+471714333
3668+468254212+463009202+459150394+457914333+458791769+460707311+463188183
3658+466369621+469598422+471583378+472915401+476138228+482737373+490102246
3648+493071129+490522171+485548060+481224138+478931599+478308651+478365184
3638+478962701+480528397+482843471+485694611+490394715+498380364+506838186
3628+508844893+503804355+498231731+496653366+500040090+506899003+513610309
3618+516868945+517062617+516623687+516921616+518415243+521330700+524637060
3608+525842833+523872629+520912827+519658303+520678731+522882066+525274488
3598+527697680+530302054+533063719+535843907+538826636+542627976+547063968
3588+549920358+548902645+544836198+540435018+537652477+537189535+538809200
3578+541518073+543685087+543465712+540386148+536969135+537124073+542348087
3568+549663938+553641091+551921212+547034585+542684147+541024963+542071878
3558+544304535+546217724+547246056+547546217+547903635+549436298+552096120
3548+554469536+555694014+556491327+557397904+557402490+555520493+552385904
3538+549278284+546680848+544512808+543187452+543813296+546800188+550392953
3528+551799458+550290687+547388866+544065854+540389768+537404988+536620345
3518+538122298+540846797+543787775+545921424+546381048+545839370+546240953
3508+548332429+550823255+552290214+552651735+552607028+552612639+552487567
3498+551687599+550186189+549028381+549438531+551405839+553694185+555200361
3488+555782584+555630422+554577413+552592789+550381912+548837725+548175560
3478+548416052+549864368+552010023+553130666+552442075+551517879+551682229
3468+551782806+550394522+548445736+547828942+548849853+550239162+550716524
3458+549982200+548459251+546647664+545013157+544266223+545217870+547906049
3448+550755922+551403426+549217950+546022122+543779027+542872509+542696636
3438+542551412+541850633+540607513+539894366+540582897+541877301+542449327
3428+542083824+541503170+541361265+541779077+542481485+543046693+542988230
3418+542050339+540841548+540660727+542368781+545363516+547787674+547920348
3408+545632485+542635336+540912441+540910088+541792471+542887412+543948384
3398+544828053+545745551+546805015+547017089+545188669+542101502+540039107
3388+539977144+541030997+542340786+543910313+545680933+546873192+546697982
3378+545442735+544202390+543701618+544001779+545253045+547791173+551126131
3368+553808156+554885599+554996976+555673500+557838221+560789033+562499139
3358+561663996+559426995+558161249+558852012+560250131+560459188+559123274
3348+557512901+556373072+555097432+553714336+553846588+556318047+559256069
3338+560303526+559760159+559532700+560112992+560514936+560275893+559895488
3328+559615297+558961941+557446352+555415512+554061136+554279605+555501609
3318+556099216+555563149+555385707+556858097+558968517+559582355+558316247
3308+556600953+555374847+554554185+554160868+554444679+555213454+555921352
3298+556066877+555451531+554829066+555604237+557943444+560224971+561084549
3288+560931482+560765624+560790843+560877966+561516600+563333014+565823900
3278+567343290+566947741+565966952+566247988+567331163+567434274+566653190
3268+566540668+567110944+567212546+567252125+568294937+569241215+567864394
3258+564170992+560527607+558874698+559092081+559941161+561147960+563653206
3248+567452917+570525965+570968816+569154394+566778806+565018684+564144324
3238+563650250+562756523+561501215+560767856+560862400+560996522+560542630
3228+559739223+558909209+558129333+557779758+558138805+558249940+556777490
3218+554337526+553071297+553762181+555155835+555963706+555976075+555343715
3208+554205032+552976995+552140767+551816955+551793606+551668533+551032493
3198+549944913+549067296+548927744+549335842+549849344+550238498+549982863
3188+548252909+545419567+543419316+543481218+544561256+544825217+543809797
3178+542344105+541168256+540362678+539603797+538551031+537028202+534991690
3168+532791251+531494313+532105134+533922694+534568327+532803922+530348210
3158+529393908+529598018+529254295+528506878+528949428+530321120+530212217
3148+527553542+524142442+521936271+520981185+520501772+520195577+519830798
3138+519104860+518482576+518809043+519890891+520593298+520325838+519628197
3128+519358323+519690461+519825851+518728799+516324009+513710222+512154934
3118+512188540+513259105+514139799+514106374+513496881+512812694+511847231
3108+510159630+507925404+505880265+504622815+504196224+504233631+504348054
3098+504335022+504158726+503896334+503588480+503248800+503113561+503382349
3088+503774158+503893679+503842033+503901372+503899501+503544497+502945471
3078+502136061+500699299+498647100+497047799+496918563+497905446+498669786
3068+498330076+497144936+495975544+495352717+495036386+494534227+493995294
3058+494049232+494679752+495115273+494929172+494317296+493445682+492334512
3048+491078540+489828843+488826546+488194186+487546923+486457775+485325005
3038+484881129+484946712+484692012+483942996+483235098+482841389+482633659
3028+482669739+483168369+483923086+484227652+483522378+481981057+480366280
3018+479290164+478763117+478603624+478902609+479614006+480114748+479843697
3008+478985719+478034856+477199985+476469975+475710883+474639352+473219242
2998+471902997+471081400+470654598+470338146+469949656+469428009+468982141
2988+468947901+469233673+469306647+468855048+468006692+466909791+465555596
2978+464098290+463037529+462817280+463407919+464369521+465048851+464770350
2968+463404993+461835918+461233303+461715190+462189746+461661734+460340813
2958+459289675+459183095+459636897+459897208+459926047+460160203+460325910
2948+459570499+457988875+456798065+456553290+456350417+455431984+454563929
2938+454822490+455769280+455912332+454710903+453112083+452112652+451727178
2928+451428767+450870527+449988656+448899809+447895370+447244970+446835755
2918+446292629+445589980+445136872+445149542+445356759+445442675+445356126
2908+445067398+444502039+443792451+443185341+442741374+442416928+442199877
2898+441871328+441028825+439760364+438891525+439091502+440026165+440728845
2888+440610017+439855722+438952614+438086550+437170711+436360366+436090854
2878+436392041+436642518+436306608+435521242+434775544+434387145+434381111
2868+434554390+434542565+434019681+433067038+432282516+432109750+432074756
2858+431393405+430335178+429993688+430692958+431627410+431988267+431560982
2848+430486254+429215651+428355531+428035942+427776506+427213590+426563251
2838+426210418+426258595+426579722+426877923+426691732+425781836+424454882
2828+423167295+422094859+421315978+420960913+420982000+421179714+421454083
2818+421689988+421646789+421299537+420957384+420831527+420836746+420880307
2808+420955996+420861272+420233346+419076835+417885210+417019357+416372517
2798+415858261+415679160+415808697+415779133+415304426+414634960+414086253
2788+413601772+412894960+411855889+410804841+410258849+410309258+410397074
2778+409908973+408842058+407739274+407132888+407112254+407278866+407109448
2768+406500166+405905243+405769160+405910764+405760804+405137494+404352308
2758+403590833+402733307+401794994+401042056+400622615+400415398+400207367
2748+399803159+399134659+398455601+398173057+398308205+398391617+398068287
2738+397530712+397141618+396895426+396550104+396093738+395699607+395310212
2728+394676705+393801471+392968803+392363774+391954710+391645106+391281594
2718+390692795+389960854+389412570+389150539+388920094+388591334+388365715
2708+388341944+388274340+387945610+387438805+386897157+386294572+385531861
2698+384592039+383585427+382723256+382214550+382127820+382339743+382619692
2688+382776983+382716770+382377844+381768712+381089382+380565171+380109951
2678+379474846+378733191+378251244+378203821+378428746+378657321+378655330
2668+378302166+377694693+377053887+376526840+376170809+376023655+376070564
2658+376190297+376178109+375823074+375074753+374196683+373612318+373476295
2648+373470473+373112361+372255740+371267289+370695142+370746396+371111959
2638+371320473+371179564+370811647+370435706+370241823+370276817+370321886
2628+370091924+369644729+369345472+369354402+369382336+369054059+368373100
2618+367694585+367288839+367112031+367030731+367017578+367045000+367075438
2608+367197765+367427426+367436295+366936489+366252362+365993379+366218877
2598+366417376+366306392+366150247+366180263+366193567+365954252+365575174
2588+365221919+364792130+364177961+363558362+363187067+363088421+363137834
2578+363282847+363491693+363580927+363339742+362862018+362519683+362504298
2568+362625207+362669552+362692389+362783493+362819603+362663489+362378230
2558+362060994+361717905+361467640+361570027+362069471+362650547+362986698
2548+363041300+362919546+362628193+362161239+361702098+361497113+361542786
2538+361627253+361644056+361628641+361611536+361721344+362215449+363052341
2528+363646570+363438388+362601284+361877971+361770818+362127603+362485956
2518+362581465+362458534+362301727+362253459+362274003+362198767+362006090
2508+361868680+361878786+361942951+361986421+362056891+362193397+362278317
2498+362104676+361709579+361524052+361897791+362548643+362826240+362490783
2488+361918335+361591204+361683847+362078642+362486499+362582068+362302239
2478+362005638+362083589+362464326+362755528+362762678+362601616+362445623
2468+362400915+362497932+362628344+362599655+362372528+362167453+362233066
2458+362530362+362749766+362656822+362313673+361969679+361872420+362132520
2448+362611541+363003199+363127276+363056233+362922623+362747534+362524298
2438+362331833+362276296+362379738+362557120+362691755+362764065+362892547
2428+363171591+363510426+363725788+363738760+363600656+363417482+363304446
2418+363311023+363385867+363505962+363751762+364144084+364533207+364765734
2408+364864350+364965802+365152957+365432424+365809029+366276617+366780858
2398+367274238+367744632+368147270+368431564+368650425+368871066+369019639
2388+368998160+368833116+368514040+367834107+366563354+364675083+362317504
2378+359636626+356671937+353433271+350089987+346981824+344352893+342185578
2368+340359571+338828477+337595764+336741315+336543329+337357053+339341979
2358+342359943+346024324+350012217+354506823+359700459+364659697+367642668
2348+367527249+364552303+360231005+356553441+354720677+354701219+355754016
2338+357045766+358033402+358411213+358031562+357230629+356856679+357540836
2328+359097783+360761009+361834259+362238738+362599867+363608922+365268165
2318+366970487+368181781+368823463+369214759+369790676+370666122+371539184
2308+372240294+373082858+374361756+375823798+376958469+377600331+378010662
2298+378500151+379125664+379734071+380223983+380674194+381195510+381749164
2288+382165981+382331779+382341643+382407468+382568258+382606178+382326017
2278+381788321+381187697+380639171+380169742+379802942+379536930+379284342
2268+378944390+378527664+378119927+377775903+377550405+377546091+377831863
2258+378380932+379113808+379923610+380692234+381346013+381834808+382096778
2248+382171140+382232409+382366772+382453985+382349849+382017529+381467616
2238+380783278+380194238+379935858+380029315+380268720+380411229+380363233
2228+380178461+379920412+379636692+379448601+379524169+379970339+380804274
2218+381939729+383192382+384438127+385737931+387198073+388802533+390438156
2208+391986476+393433676+394986068+396945985+399354908+401888360+404162377
2198+406045912+407706995+409449259+411435814+413551121+415643502+417789701
2188+420085739+422337794+424238675+425706479+426851195+427807186+428729571
2178+429715458+430653349+431328425+431671786+431823164+432006760+432330391
2168+432624278+432556523+431954571+430889737+429491770+427891141+426320377
2158+424998762+423859597+422622118+421188825+419728894+418379405+417139482
2148+415906709+414473477+413033275+412798365+415193713+420202154+426313619
2138+432249091+437953876+443824247+449811274+455484082+460576930+465328680
2128+470186527+475195662+479976824+484285633+488234549+491951391+495276274
2118+497878989+499653652+500966458+502449798+504536869+507244234+510455749
2108+514454381+520050051+527957236+537944132+548615697+558206439+565670592
2098+570715173+573033323+572423347+569380465+564614748+558518486+551572844
2088+544270386+536404772+527334590+516917936+505745539+494749830+484660789
2078+475643219+467625593+460733949+454975980+449994508+445578396+441913592
2068+439149936+437124194+435438373+433702385+431938220+430545502+429722366
2058+429345219+429295503+429373636+429250977+428947980+428919050+429549630
2048+430957281+433098351+435903487+439613783+444794266+451712517+460171094
2038+470113312+481768803+495100280+509498430+523943762+537403057+549247996
2028+559098356+566407692+570792521+572500876+572199749+570753424+569015928
2018+567180871+564651612+560934619+556300008+551382068+546525850+541706797
2008+536873325+532018193+526907667+521256972+515277215+509455654+503869847
1998+498420275+493556244+490002183+487804911+486150162+484218089+482002838
1988+480097190+478905294+478369196+478281773+478492489+478845020+479252274
1978+479883035+481031552+482718247+484567905+486233514+487854053+489810773
1968+492050278+494032550+495464727+496671888+498051424+499577812+501069870
1958+502648658+504632076+507106491+509842997+512571057+515214588+517918936
1948+520886823+524178160+527638130+530862375+533248884+534555416+535476594
1938+537097526+539819431+543119818+546208433+548741191+550959851+553217124
1928+555535215+557835748+560253871+562760626+564986224+566941225+569059609
1918+571039226+571848485+571501806+571417641+572610443+574601462+576188788
1908+576845040+577041005+577362645+577882120+578474599+579230644+580329325
1898+581807808+583463794+584791563+585378793+585514544+585754130+585985933
1888+585805595+585546762+585848854+586531593+586738358+586058274+585081527
1878+584735030+585156885+585552434+585502477+585897061+587789073+590451429
1868+591315169+588843409+584448323+580510990+578149098+576947427+575859666
1858+574332132+572678499+571312358+570028572+568544478+567257435+566822306
1848+567466552+568943949+570248188+569579145+566416078+562633683+560019293
1838+558665158+557738429+556809286+556405109+557235908+558772673+559165749
1828+557537819+554962646+552284603+549290954+546158537+543803281+542726682
1818+542547490+542597929+542696575+543196321+544160759+544857496+544634984
1808+543914114+543547948+543845816+544730674+546074371+547429531+548047833
1798+547764264+547621514+549210951+553042759+556977980+557721113+555492559
1788+553660579+554249197+556596006+559134979+561382659+563659119+565841759
1778+567651596+569729678+573411255+579079025+584506666+586397652+584717110
1768+581996231+579986870+579510955+580950342+583452149+585249557+586142982
1758+587404082+588987064+589992167+591388475+595196512+601029536+605498230
1748+606569036+605887625+605614554+606477088+608458756+611112966+613404570
1738+615215674+618340549+623779352+628270490+627427202+623035435+619033967
1728+616858808+616715214+618315390+620726274+623572165+628052443+635361839
1718+643918036+648897456+647726736+643365859+639578216+638198378+639606814
1708+643257922+647726917+651422914+654694159+659735542+667023158+673065903
1698+675121782+674491353+671843477+667721282+664773245+664786760+667173389
1688+671200619+678002003+687995536+695777708+695430004+690879075+688102266
1678+688974031+692524503+696153830+698143161+700039577+703766284+707699694
1668+708440414+706806993+706528492+708756262+711154415+711372884+710529416
1658+711486071+716273991+725903649+738194999+744305741+741994046+739926282
1648+741388173+742457290+738673267+732317388+727839584+726651126+728591587
1638+733334498+739131201+741136762+736812930+730863039+727961338+728548870
1628+730595518+732652664+735079295+737843011+739541110+740153499+741917483
1618+746266473+751150023+752488954+750213821+747577289+746240530+745813969
1608+745593207+745446535+745426866+745642983+746393537+747809876+749728676
1598+752036811+754631894+757232347+759609685+761486372+762122835+760948857
1588+758628595+756612416+755777093+756092820+757205800+758927912+761443777
1578+764848481+767701673+767373637+764595380+763127938+764536856+766766135
1568+767220389+766624652+766768186+768054868+771491187+779808884+793037582
1558+801222785+797696810+790657589+786023159+784123605+783919314+784859076
1548+787217469+791660158+798141893+805414787+812384986+818143921+819639357
1538+816024932+811904426+810341838+810634759+811003942+811699653+814300045
1528+819130622+825263265+832226223+840623561+849815677+856405289+858778826
1518+859814157+861734043+863945704+866018597+869118012+874129469+880521910
1508+886249833+887305073+882671427+878080859+877409584+880427548+885999025
1498+892808856+898099720+899243168+897886861+898201744+902033432+907415159
1488+911053174+912083557+911744782+911258370+911499102+913124137+916511224
1478+921792193+929108829+938546082+948447907+953692615+950858730+943935894
1468+938537153+936566164+936435661+935290523+932791311+931802136+934833313
1458+940689505+943425227+939748055+934201616+930929888+930321541+930900928
1448+931168991+931040902+931351501+932115088+932578694+932468343+932621833
1438+934808998+940149637+946878561+952040129+955220331+956861112+955611898
1428+950894629+945627657+943316445+944742800+948592768+953586246+958173556
1418+959759253+958157628+955990493+954424043+952683892+950053031+947265180
1408+945595801+945327677+946182790+948367843+951969840+955732083+958173315
1398+959952442+962758091+965464852+964762927+960440845+955715793+952288222
1388+949198038+945858133+943730939+944617788+948859746+955091880+961287210
1378+966586460+971602804+976259739+979180807+980361120+981636036+983805946
1368+985527575+985861342+986500580+989733212+995015328+998739561+998410318
1358+995582225+993406885+993803822+997351217+1003427930+1009739403+1013293976
1348+1012979637+1010757598+1010126324+1013519143+1020219106+1026380528
1340+1028723053+1028450585+1028870630+1030871183+1033332083+1035646855
1331+1037948353+1040005982+1041572251+1043641222+1048221171+1056337654
1322+1066256071+1073527034+1073741823+1067765143+1061565228+1059240079
1314+1059888427+1061146390+1062876284+1065869451+1068555639+1068664119
1305+1066540606+1063792516+1061166059+1059693066+1061161715+1065263216
1297+1068316957+1067091455+1062152157+1056187664+1051616765+1048937818
1288+1045893850+1039974367+1032369274+1026693420+1023833953+1021561294
1280+1018572231+1015129214+1010785231+1005203377+999562938+994900512+990437309
1270+984656715+977211145+968841441+960577803+953594452+948930276+946688569
1260+945232952+941720854+934635236+925415487+916963668+911243226+908135063
1250+905553857+900980906+893656306+885023727+876795384+869019245+860581303
1240+851205831+842042374+834307744+828264999+823726439+820568319+818190438
1230+815513421+812277350+809503739+808048545+807399593+806514132+805457866
1220+805360004+806808682+808961518+810451283+810784689+810490018+810669330
1210+812637121+816822306+821857655+825909682+828725829+831208933+833829598
1200+836735401+840306928+844649463+849634434+855338525+861233754+865623832
1190+867325913+867178638+866824236+867491892+870360167+875909019+882499958
1180+887476482+890277183+892963612+897580667+904504589+913011192+922034795
1170+930278523+936510898+940620363+944632388+951014754+959188252+965593786
1160+967895163+967175198+965703895+965012770+966011357+968954024+972939442
1150+975995115+976294250+973639618+969705724+966627125+965516980+966501751
1140+968622549+970169813+970858102+971764017+972705950+972372907+971142999
1130+971164720+973730119+978666762+985333722+992510504+998311974+1001999765
1120+1004054558+1003577860+999377532+994009018+992162136+995115844+999513102
1110+1001826004+1003269131+1007145647+1012287848+1012977947+1007354161
1101+1000990680+998864271+999697302+999681313+998174111+996965622+997221680
1091+999425015+1002837562+1004127623+1000434462+994618210+992319427+993771121
1081+992721009+984031293+970602287+960359093+957728352+960650566+964228972
1071+965440356+964633752+963941420+964080912+962483149+957048027+950659628
1061+948102615+950073062+953152566+954507545+954111152+952621748+949471049
1051+943806779+936657992+931011580+929293933+931494372+935432610+938474586
1041+939854182+941152448+943908200+947823933+951693450+954334266+954596840
1031+952735960+951577911+953780160+958133917+961042073+961193511+959832317
1021+957798400+955748554+955104007+956401850+957971799+957219737+952312175
1011+943701858+934713248+928723235+926036082+923803183+919179733+911695067
1001+902229276+892337648+884333808+879554938+876442793+872373269+867057547
991+862165732+858528441+855473733+852186198+848456716+844543698+841047226
981+838516760+836770756+834951567+832566627+830082981+828010329+826195183
971+824454187+822830962+820822989+817376775+812038368+805728041+800486591
961+798288686+799494701+802495107+805391317+807685938+809769932+811853504
951+814269396+817770272+822548901+827607479+832041963+836054291+839921274
941+843285554+846085652+849432617+855114566+864199288+875692420+886582514
931+894556670+900734503+907677973+915063209+918963074+916004237+907912009
921+900484660+898425583+901746725+906043044+906313702+901428041+894610367
911+889708355+887740986+887028623+885948887+884887613+885137456+887433886
901+891609658+896480176+900325077+902103480+902509708+903761155+907989719
891+914919313+920703286+920831797+915779735+911188443+911787680+917558017
881+924760502+929565557+931100090+931343356+932143505+932922175+932381462
871+931243323+931441640+933177870+934742691+935263735+935641546+936512587
861+937581101+939173736+942187054+945276091+944839696+940487206+936978908
851+938478086+943945487+949236833+951990052+952483764+951420680+949876011
841+949388513+950401519+951660146+952377758+953204634+954808310+957142509
831+959757865+962246097+964723831+967725987+971524551+975876016+980537476
821+985042249+988298894+989446807+988596823+986347875+983641235+981953031
811+982873003+987584902+995389579+1002371905+1004696572+1003164271+1000522489
801+997967648+995611367+993398137+990586395+985242558+977155457+970127398
791+969081389+974593557+981158010+981791034+973796546+960136641+946252596
781+936748010+933669350+935758654+939351902+940560330+937066634+929489536
771+921441049+916805955+916479367+918311769+920006429+921454564+923988650
761+928159233+933654327+940848365+950280128+960438371+967644114+968666472
751+963343450+955223468+950117286+952222156+960709029+969753026+973817241
741+972324941+967844181+963502672+962118249+964810470+969617999+973712441
731+976000304+975650065+971736866+965950600+962590664+963597999+965772495
721+965299175+963357689+963316481+965259234+965750050+963768141+963586234
711+968256926+973069462+970049748+960806227+953981373+951957713+950830795
701+950117709+952990087+957606960+959347232+959788032+963259405+968914565
691+970854060+965336703+955964308+949009676+945972767+944206009+942352490
681+940753158+937191645+928667667+918912635+916344883+923339155+930520040
671+924498773+904286060+886109496+886919540+901370302+913886094+922285724
661+932624005+942701461+941837721+929032567+917218760+917071786+926827482
651+935299573+934236791+928194589+925624303+927077566+928724079+929463230
641+929424677+926630974+921509045+919562492+920966885+915961521+902464096
631+891417555+887808379+886434575+881873209+875995779+871668750+867084034
621+862375212+860806771+864124836+870836322+876106130+875062051+871305841
611+874707529+886599649+897162854+899830700+897392847+895124653+893483268
601+887837219+875513469
##END=
