##TITLE=<SNM>
##JCAMP-DX=4.24
##DATA TYPE=INFRARED SPECTRUM
##DATE=29/4/2025
##SAMPLING PROCEDURE=Instrument type and / or accessory
##ORIGIN=Admin
##XUNITS=1/CM
##YUNITS=ABSORBANCE
##RESOLUTION=4
##FIRSTX=4497.3318
##LASTX=599.83466
##DELTAX=-1.4281778
##MAXY=2.2278616
##MINY=0.67815453
##XFACTOR=1
##YFACTOR=2.0748578e-09
##NPOINTS=2730
##FIRSTY=0.69449335
##XYDATA=(X++(Y..Y))
4497+334718523+335544743+336176567+336372227+336298370+336047353+335786108
4487+335772262+336060452+336705318+337692611+338343941+337756787+335839196
4477+333111099+330054392+327482455+326843851+329077067+333248989+337041368
4467+338735635+338444342+337670405+337941704+339376938+340472906+339974290
4457+338725954+338652154+340256217+341887859+341350346+338205045+334316401
4447+331847480+331265181+331818781+332921615+334193938+335361838+336764841
4437+338774014+340573594+340951700+340198189+339772281+340359060+341223516
4427+341153163+339806437+338279247+338056698+339356255+340861239+341109125
4417+339805374+337742970+335872376+334730531+334495314+335076406+335925895
4407+336470129+336906839+337649951+338359051+338578871+338573384+338568385
4397+338162213+337159063+336089007+335648362+336301042+338130556+340296119
4387+341288008+340479657+338657640+336733155+335007547+333964351+334358400
4377+335878524+336979461+336752344+335950715+335655687+335884872+336059619
4367+336158440+336610749+337491234+338439343+339132643+339433272+339151804
4357+338245723+337281124+337121229+338085339+339676648+341063363+341545662
4347+340858423+339597103+339026496+339821979+340907748+340295602+337532371
4337+334271645+332271118+331891231+332337191+332563905+332184161+331830416
4327+332340954+333792189+335671401+337496290+338857639+339551168+340019621
4317+340744090+341295478+340983473+339916778+338678037+337764170+337478307
4307+337553084+337213903+336100297+334645039+333463666+332919604+333114833
4297+333708881+334090204+334152398+334305715+334848255+335736669+336643038
4287+337123929+336857945+335916731+334920618+334705223+335412714+335979183
4277+335279621+333677109+332523515+332465514+333116672+334111750+335623858
4267+337693846+339516006+339843610+338371547+336369441+335340810+335429375
4257+335755399+335868153+335895329+335648994+334968162+334635014+335400936
4247+336560534+336942719+336533645+335986135+335731613+336337956+338315616
4237+340899934+342287884+341644914+339874463+338263821+337239786+336371337
4227+335234519+334181585+333953952+334696949+335830578+336673259+336938927
4217+336663721+335934685+335043312+334701546+335504554+337037576+337999072
4207+337602322+336571708+336284035+337076673+338012832+338300620+338141845
4197+337947564+337683390+337438060+337632773+338173704+338269738+337456245
4187+336206070+335339632+335271549+335957351+337187043+338512253+339174843
4177+338859965+338311220+338364480+338701593+338402314+337314045+336030404
4167+335126850+335045610+335940861+337183854+337580575+336509658+334730503
4157+333709829+334051308+334938286+335368474+335513488+336257434+337794248
4147+339354388+340044556+339573518+338367727+337330018+337237717+337834408
4137+337893672+336805403+335478499+335016510+335358850+335875507+336455622
4127+337130853+337320193+336665100+336000068+336397134+337636967+338571229
4117+338691625+338369019+338162874+338708200+340277964+341852726+341718168
4107+339495639+336561309+334536566+334355269+336073552+338593091+340202469
4097+340066159+338804120+337597208+337184314+337444150+337665119+337495716
4087+337401117+337760551+338136588+338098037+337968736+337939176+337272305
4077+335532506+333940536+334083568+335763270+337261561+337438146+336658493
4067+335901017+335766746+336233418+336946281+337592267+337880601+337455038
4057+336287827+335017400+334593934+335414667+336756424+337419675+337216115
4047+337189657+337982353+339035402+339872050+340797637+341739139+341775191
4037+340446506+338606248+337475061+337447454+338178587+339378719+340864830
4027+341990989+341954937+340876694+339708420+338955856+338388439+337939204
4017+337913522+338195795+338218116+337860205+337550441+337517749+337704590
4007+338188441+339024830+339918932+340428494+340160987+338807251+336653380
3997+334842021+334402468+335189504+336153700+336493887+336327815+336376709
3987+337140132+338345808+339277370+339578861+339529134+339511008+339505348
3977+339308711+339059130+339160365+339651742+340105888+340314189+340581523
3967+341075830+341439630+341431816+341379935+341505961+341372840+340563224
3957+339375531+338392231+337946674+338387893+340108933+342645852+344345204
3947+343986316+342457316+341498492+341306193+340793012+339844041+339453755
3937+339822553+340292988+340919698+342359213+344213806+345124484+344808744
3927+344487374+345093344+346153603+346669427+346574857+346592611+346893182
3917+346795740+345897300+344739253+343976377+343656242+343611514+344088441
3907+345713849+348853577+352816136+355853365+356795384+356079160+354218822
3897+350975016+347012228+344432304+344599036+346154551+346589853+346180808
3887+347123258+349403328+350725406+350791335+351750044+353604579+353771771
3878+351756019+349796975+349145444+349479770+350680707+352443488+353320957
3868+353157672+353956371+356310959+357637778+355539091+351150998+347363244
3858+346416198+349803237+357828497+365884552+366061856+359684497+353037823
3848+349134959+348365274+349809500+352110655+354594142+357617698+361316369
3838+364270721+364809843+363179580+360492447+357461738+355030564+354394488
3828+355519959+356946690+358086007+360198023+363349472+364584795+362721067
3818+360530367+359328166+357315173+353849104+350945887+350448994+352482240
3808+355382040+357161167+358140416+360076105+362552036+362968838+360896379
3798+358246045+355597895+352617229+350234604+349832252+351491357+354302131
3788+357531085+360533527+362370567+363029653+364121714+366878941+370154376
3778+371807390+371820260+372181273+374738732+380063903+386866825+392390959
3768+394948964+395383404+395510148+396743402+399591608+403248194+406125529
3758+407695148+409210646+412215788+417484625+424444569+430297744+432658192
3748+433297772+435518808+440739585+446153666+447958877+447082154+446920708
3738+450035674+456599327+463912327+468847068+470670492+470649406+470681724
3728+472169271+474944481+477715410+479638919+480164281+478602790+475746024
3718+473881061+474241356+476346076+479430820+482476553+483390075+481165650
3708+477904147+476390344+477570597+480043885+481052321+479394911+476835471
3698+475645939+476640816+479594594+484437925+491349435+499014227+503290772
3688+501097976+495036558+489269248+485730242+485136223+487595837+492333510
3678+498165571+503275777+504893802+503250267+502162257+502745302+501275049
3668+494960833+486596881+480323659+478074384+479518697+483271720+487845706
3658+491580630+492854275+492216361+492660712+496139104+501467119+504678808
3648+502620224+496484576+489989207+486190163+485569313+486327134+486858240
3638+487437896+488916250+491034643+493111957+495768180+500244666+504751201
3628+504097314+497916564+491692379+489671830+492439686+497235215+499761993
3618+498222508+494854485+492878348+494080922+497706454+501157211+502833322
3608+503272042+503059232+501989492+500684650+500751010+502685895+505214913
3598+507315956+509018554+509934891+509504271+508983104+510707764+514865035
3588+518206571+517830074+515325645+513756054+513927785+515061414+516196651
3578+516455137+515327139+513279357+511455473+511007101+513038049+518038173
3568+524198527+527383155+525490557+520821541+516309893+512962497+511035943
3558+510968434+512708951+515572124+518899526+522023081+523871440+523414392
3548+520418385+515971201+512358079+511381185+512767153+514782876+515808203
3538+515248887+513883315+513288147+514087105+515049291+514483999+512197609
3528+509728228+508815396+509612228+510439741+509595106+507263385+504881679
3518+503517257+503669970+505045768+506446904+507250745+508265674+510041813
3508+511344472+510890756+509591659+509328174+510637153+512588930+514029421
3498+514203220+513040979+511241399+509548454+508171736+507349796+507655510
3488+509174829+511105232+512397148+512211685+509950403+505872074+501598516
3478+499158552+499579921+502370126+505745963+507735716+507651833+506112405
3468+503845435+501323828+498959473+496724447+494441620+492894321+493170273
3458+494825184+496262573+496668544+496353178+495795240+495371573+495269362
3448+495080166+494186178+492605269+490881298+489375768+487989226+486507540
3438+485081871+484059014+483502226+483350776+483956631+485537426+487286159
3428+487887762+486889495+485052340+483567321+483408116+484811320+486750226
3418+487449846+486075140+483679300+482280635+483192318+485889850+488209850
3408+488216515+486116334+483615411+481942172+481508939+482552048+484848952
3398+487186476+488119762+487358264+486068417+485577931+485734666+485223381
3388+483857120+483265227+484674808+487476390+490118708+491316111+490733985
3378+489326128+488355784+488000372+487774003+487722868+488255986+489299641
3368+490470673+491768621+493382624+494975197+495788289+495606389+495122739
3358+495031157+495180366+495217366+495641263+497225046+499710342+501955192
3348+503208900+503688930+503981142+504221875+503913461+502484001+500030362
3338+497438373+495698085+495126531+495314062+495741061+496251944+496805573
3328+496962480+496404370+495795240+496045568+496987530+497635671+497643312
3318+497478591+497031597+495377893+492479559+490081765+489987541+491877152
3308+493736772+494360782+494280058+494144754+493788710+493216926+493041633
3298+493497762+494011977+494092585+494104249+494633976+495484413+496144964
3288+497009707+498743675+500511483+500747735+499803303+499760672+501534513
3278+503920470+505402559+505550044+504664157+503105023+501247242+499652830
3268+498854332+498776481+498598775+497539090+495793057+494438287+494212435
3258+494585427+494425303+493480468+492698344+493098226+494714814+496564322
3248+497495942+497210280+496357487+495626095+495190248+495064940+495326357
3238+495701245+495404724+493973655+492104728+491035505+491231998+492086687
3228+492522305+491619757+489393234+487232382+486776253+488185087+490153411
3218+491594362+492522477+493201988+493332811+492484845+490877793+489371229
3208+488651098+488422775+487579808+485446476+482718838+480695588+479922887
3198+480175513+481056257+481833153+481720945+481123162+481181852+481733326
3188+481498884+480308290+479190059+478528387+477985072+477657554+477745689
3178+477750343+477129406+476132720+475336893+474865998+474386687+473488706
3168+472018568+470272133+468851549+468096113+467658456+467005575+466221153
3158+465747414+465650891+465758790+466046291+466439191+466676965+466516467
3148+465739543+464298534+462774159+461936219+461578882+460721982+459210132
3138+458081703+458097675+458769487+459037654+458420194+457314488+456428889
3128+456107462+456107174+456009071+455765063+455670322+455948859+456461667
3118+456628973+455852250+454345916+453032370+452318760+451727757+450893034
3108+450067360+449500028+449101957+448809831+448746689+449016580+449492415
3098+449812062+449832717+449983994+450637334+451340257+451366083+450722136
3088+449875405+448989548+448106477+447454917+447092669+446791723+446468630
3078+446244214+446056540+445654418+444964220+444195541+443601895+443205863
3068+442758180+442075481+441351788+440857078+440466505+439863178+439118198
3058+438721535+438966864+439508312+439767086+439786822+440128847+440631628
3048+440191299+438505162+436984465+436969469+437976296+438515303+437976699
3038+436950279+436193837+435964595+436017970+435890766+435398528+434889742
3028+434727147+434663660+434134133+433033857+431897614+431457888+432087701
3018+433374991+434262515+433929970+432510822+430857061+429840983+429805247
3008+430348017+430739308+430718797+430610439+430634110+430555771+430055776
2998+429089971+427900554+426876433+426287068+426005829+425624592+424981479
2988+424414147+424288753+424446379+424407655+424034375+423668679+423629869
2978+423812487+423797175+423240444+422157145+420848511+419588224+418550142
2968+418008895+418213346+418978693+419817381+420478477+420899329+420816997
2958+420057625+419112418+418784124+419172658+419489805+419072803+418236155
2948+417756326+417766122+417686261+417173540+416577108+416357834+416501325
2938+416633987+416421866+415769704+414816941+413875008+413341776+413468002
2928+414074144+414596087+414541534+413931830+413243558+412921038+412980820
2918+413070391+412938935+412788549+412955195+413289061+413225460+412537015
2908+411585228+410783398+410262662+410062347+410214888+410608823+410968429
2898+410933841+410264902+409225498+408523006+408498961+408660379+408352597
2888+407616379+407122301+407412503+408232316+408635042+407944672+406518831
2878+405278050+404701383+404592363+404578660+404489434+404341317+404210867
2868+404142526+404135344+404214315+404440770+404756510+404888482+404580901
2858+403922850+403288699+402948340+402865434+402926709+403149487+403443136
2848+403470685+403080542+402559663+402182275+401885840+401541402+401146835
2838+400732447+400433800+400504641+400931985+401317876+401419656+401433244
2828+401499719+401359013+400736727+399756587+398801382+398201762+398069215
2818+398195873+398199665+397934887+397610874+397434633+397375685+397283069
2808+396996258+396438234+395758034+395228019+394965683+394933767+395042700
2798+395094926+394941236+394711908+394576402+394442074+394233113+394169052
2788+394400506+394651696+394528686+393989996+393337345+392915430+392926231
2778+393339930+393830532+393936075+393458171+392624712+391800273+391214470
2768+390968824+391062159+391331159+391465315+391165547+390395087+389526465
2758+389107337+389380589+390073774+390621916+390526887+389636433+388280801
2748+387132493+386745251+387117497+387744294+388094477+387952967+387369721
2738+386545684+385821445+385472210+385348109+384962534+384131258+383308744
2728+383051205+383342785+383711067+383843211+383766654+383524340+383087775
2718+382620557+382443024+382624062+382877119+382929345+382755718+382442593
2708+382101631+381934956+382076983+382337049+382365662+382049118+381518557
2698+380863263+380099898+379392551+379034554+379135558+379503064+379886772
2688+380147987+380147384+379773558+379208582+378832315+378723841+378584285
2678+378236026+377836203+377538532+377324458+377188378+377139542+377072320
2668+376945778+376967610+377297771+377708827+377791877+377402194+376792978
2658+376407403+376484047+376764797+376775627+376452849+376194104+376284221
2648+376607143+376890593+376950345+376750577+376415303+376133433+375981581
2638+375865983+375634271+375252315+374882052+374731981+374830889+375020028
2628+375122354+375035081+374718336+374205040+373620070+373130733+372839469
2618+372707180+372631800+372616690+372756304+373027516+373241820+373248198
2608+373054692+372745215+372416319+372199199+372213965+372467999+372857366
2598+373215420+373315333+372995055+372427120+372060505+372114454+372329764
2588+372370815+372209771+371982970+371809257+371831061+372096528+372407384
2578+372571761+372669347+372817406+372929069+372910396+372826972+372783365
2568+372864174+373116283+373382210+373365261+373041851+372704940+372481816
2558+372209512+371871365+371678607+371624600+371421585+370967410+370509069
2548+370342653+370587781+371121387+371597194+371734308+371617332+371513368
2538+371513225+371545342+371562003+371582888+371674269+371858151+371991129
2528+371921236+371756687+371725403+371859645+372032007+372123647+372012013
2518+371630489+371146121+370885308+371018889+371394352+371679526+371689523
2508+371572719+371612075+371888027+372234361+372453578+372496496+372492101
2498+372599684+372785376+372861732+372806777+372798475+372839181+372687617
2488+372300175+371995581+372031577+372271304+372379232+372223904+372011496
2478+372036891+372349614+372712897+372872361+372804680+372700516+372709881
2468+372720711+372514565+372154816+371962287+372074667+372324794+372526171
2458+372588595+372445821+372138470+371880386+371862604+372062171+372303162
2448+372423069+372373601+372238641+372170357+372232408+372267857+372071996
2438+371785299+371852205+372398996+372943978+372992469+372658948+372403133
2428+372371160+372299945+372033214+371893083+372347977+373359716+374292686
2418+374573408+374274473+373953477+374057268+374544451+375008250+375161336
2408+375161480+375330654+375666790+375902984+375943575+375945873+376088044
2398+376478704+377101507+377757979+378386643+379465431+381742427+385646210
2388+391297548+398932981+408930557+421441381+436221387+452825276+470838402
2378+489908828+509682954+529829498+550071013+570017214+588873854+605370160
2368+618298733+627550812+634002976+637489124+636580026+631378066+623855875
2358+614850160+603105775+587181942+567195638+546058929+528659558+518677983
2348+517216348+523430019+534582568+546359242+555364785+560780590+563333395
2338+564530740+566244369+569607566+574094681+577732336+578707678+577186464
2328+574905877+572909056+570654611+567209945+562462217+556979191+551304899
2318+545835720+540851453+536243454+531480961+526100203+520001325+513166632
2308+505562971+497480085+489498031+481998132+475008973+468469335+462342592
2298+456542275+451001019+445765448+440860756+436151379+431503248+427055805
2288+423176785+420092529+417671955+415624890+413751740+411962444+410322701
2278+409116106+408522920+408220510+407662112+406711963+405643287+404687938
2268+403972519+403664133+403774618+403956575+403807367+403293496+402681351
2258+402162798+401705692+401176568+400495448+399773881+399353489+399505139
2248+400041129+400475311+400550777+400316679+399843487+399253892+398840423
2238+398761883+398825858+398852517+398931114+399050360+398900462+398357664
2228+397755745+397399931+397243311+397254055+397585020+398123854+398365707
2218+398013542+397345120+396784683+396401980+395997905+395479496+394964706
2208+394600533+394452129+394536098+394780881+394997340+395085906+395182946
2198+395399634+395592623+395631089+395666969+395883629+396213760+396546391
2188+396953972+397465630+397882604+398065480+398150886+398293258+398464787
2178+398625372+398828214+399114996+399509620+400070488+400785736+401475186
2168+401902300+401999886+401961909+402012498+402105056+402049900+401887362
2158+401827524+401888827+401960731+402155530+402720362+403592258+404324770
2148+404547377+404349102+404107364+404050455+404100871+404066456+403895932
2138+403805097+404157062+405072910+406149889+406759018+406683380+406288526
2128+406023921+406009212+406221075+406757697+407622526+408487614+408989189
2118+409111107+409107430+409227768+409603260+410216669+410923155+411587067
2108+412175570+412693606+413119658+413427095+413608909+413706121+413843466
2098+414177705+414771437+415550229+416380183+417111029+417577529+417722285
2088+417724353+417833229+418080454+418320469+418500186+418717506+419066828
2078+419519337+419923068+420145559+420252539+420429756+420738457+421108032
2068+421495474+421863985+422132813+422341343+422702587+423318093+424019609
2058+424615093+425099116+425512327+425785435+425859522+425850358+426010541
2048+426559056+427491796+428538267+429401803+430019407+430493950+430908080
2038+431330110+431849783+432548024+433537845+434886697+436335749+437409195
2028+438049206+438784505+440038643+441651095+443265415+444816132+446408332
2018+447979187+449302299+450261670+451027448+451915604+453047250+454211129
2008+455189372+456164054+457572429+459553794+461766154+463748037+465265718
1998+466403455+467591435+469365132+471721932+473890081+475153700+475710690
1988+476299911+477361550+478850016+480414953+481634103+482459662+483375597
1978+484780524+486487603+488154924+489818395+491666180+493666448+495689237
1968+497718003+499787445+501911125+504138796+506501370+508894395+511192505
1958+513400413+515489390+517267999+518706078+520187132+522145171+524638856
1948+527499155+530693839+534254677+537818676+540570617+542081720+542927446
1938+543904454+545160001+546593770+548519980+551274506+554502110+557448764
1928+559943540+562626076+565939517+569207110+571427427+572944850+574997516
1918+577657473+579735361+580883009+582196872+584500670+587395155+589949568
1908+591644812+592590565+593237787+594009569+594996173+596044252+597149096
1898+598412514+599558898+600187504+600792037+602577541+605756827+608844013
1888+610347187+610478700+610230383+609907950+609383106+608822295+608572255
1878+608807127+609516055+610664507+612389856+615004826+618562045+622066004
1868+623510058+621860376+618430590+615310310+613495160+612676667+612125222
1858+611587738+611384465+611744128+612265180+612329989+611983942+611980955
1848+612974625+614767540+615933229+614579206+610822793+607049431+604883580
1838+603947019+603132721+602236436+602150139+603522433+605542120+606458572
1828+605754931+604440666+602851598+600363142+597235393+594787959+593712416
1818+593440026+593028539+592150639+591129850+590288893+589528372+588577275
1808+587487426+586666463+586564712+587421986+589008411+590441893+590701816
1798+589783353+589034668+590056031+593166429+596356401+596744964+594445991
1788+592202462+591667794+592482207+593804113+595319812+596626321+597261534
1778+597925532+600163833+604607398+610149257+614407647+615743802+614882449
1768+613106195+611020091+609682270+610410329+612926191+615297498+616697025
1758+618035650+619492229+620553006+622062270+625482174+630147799+633028265
1748+632717783+631321818+631134000+632434361+634450371+636650407+638745417
1738+640908970+644151570+648746986+652141150+651642965+648908605+646339196
1728+644508188+643728592+644296699+645815731+648046677+651893523+658288232
1718+665835588+670085417+668453316+663761606+659747224+658187630+659458976
1708+663091575+667635743+671301838+674157369+678011224+683033180+686428838
1698+686917946+686104739+684011280+680596260+678321993+678967721+681709665
1688+685442866+691266481+699834855+705938617+703800919+697374724+692693816
1678+691903189+694560733+698441361+701157049+702866426+704789131+705916037
1668+704570517+702545659+703001788+706115403+708593518+707741127+705399926
1658+705191080+709289231+718553892+730571012+735918561+731888839+727705426
1648+727921684+730179519+729800551+726671998+724161364+724180037+727209539
1638+733293651+740836296+744864065+742563828+738653611+738049192+741443299
1628+746802109+752211250+757595397+763042859+767490561+770898284+775199248
1618+781472442+787562874+790288099+790441214+790891425+792863081+796017029
1608+799215389+801332232+802291085+802991279+803993051+804873938+805104387
1598+804957189+805058653+805454226+805780336+806200785+807307238+809185588
1588+811266464+812861795+813694421+814387779+816114220+819262365+823255317
1578+827544560+831318266+833010407+832732846+832920779+835399697+839838206
1568+844065744+846449403+847239226+847873291+850388808+856446204+864928396
1558+869630907+867729231+864680482+864244289+866110861+867791684+867432710
1548+866681611+868982537+874981961+881483306+885596624+887781665+888398206
1538+886753464+884635703+883520747+881778276+877432958+872575492+870749368
1528+872459033+875536624+878288738+881243205+884397900+885621847+884568366
1518+884060701+885577435+887718465+888785160+889129138+890892292+896129357
1508+904626890+911775514+911995851+907558203+904118478+904179092+907588252
1498+911666006+912687082+910894339+910440566+913488511+918985211+924553442
1488+928323988+930228997+931290061+931968021+931980374+931954462+933816552
1478+938307000+944010133+949747509+955195833+957932951+954931084+948418536
1468+943386870+941933566+942682654+943354466+944058510+946514447+950392777
1458+952105946+948579006+942476164+937881666+935382007+934338179+934767534
1448+936648182+938501597+937930158+934304108+929667670+926976688+927886590
1438+931760554+935589646+936563725+935765571+935269914+934763685+933499865
1428+932772724+934308360+937344814+939328076+939772829+941664623+947088701
1418+952433952+952410741+947941264+943078398+939431034+936099035+932425299
1408+929770858+930245027+933913937+938044721+940355529+941668472+943806803
1398+946867388+949027723+948029341+943534929+938308321+935273935+934560354
1388+934556447+934485951+935010623+936732812+939624310+943389398+947519493
1378+951171224+953909893+956318718+958939204+961096781+962026160+962654939
1368+964744663+968718425+973508381+977978663+981397072+982729090+981357544
1358+978768313+977661860+979039267+981269294+983127363+986044657+991602776
1348+998359505+1002949405+1004232472+1004633618+1007198373+1012434863
1340+1017829812+1020379170+1019603538+1017284112+1015361235+1014877471
1331+1015997138+1018813083+1023410798+1028760128+1032921996+1034758002
1322+1035027002+1035506515+1037428932+1040889629+1045096425+1048895181
1314+1051465912+1053044638+1055199171+1059278074+1064821944+1070090379
1305+1073433294+1073741823+1071019413+1067525164+1065831185+1065786370
1297+1065313982+1063811670+1062759109+1063149912+1063918075+1064015057
1288+1064370124+1065560690+1065190226+1060215497+1051398461+1042854677
1280+1037902125+1036076461+1034749728+1033070572+1031370043+1029688473
1271+1028677394+1028999712+1029630100+1028968572+1027531528+1027332507
1263+1028333933+1027781454+1023955923+1019050944+1015864189+1013379755
1254+1009253395+1004786676+1003642303+1006833194+1011220052+1011859287
1245+1005507036+993739038+981841653+973452881+967939231+962913828+956854880
1235+949302297+940654061+931950957+923693582+915657292+908474081+903420984
1225+900158620+896674655+891903544+886508250+881215857+876083071+871478462
1215+868535371+867997025+869264809+871036697+872363659+872604334+871490413
1205+870071754+870164082+872517349+876008725+878874656+880649818+882471001
1195+885460573+889351716+892983280+895570098+897016795+897710095+898612528
1185+900843589+904637290+909211793+913857482+918360109+922452859+925803415
1175+928550645+931199054+933917614+936760390+940269578+945208685+951892332
1165+959573096+966495063+971804520+976746270+982156962+986763064+990085756
1155+994019874+998843614+1000836125+996337347+986735486+978086102+976455552
1145+983841978+996693333+1008670809+1016318307+1020417090+1022587939+1022864294
1135+1019927925+1013293344+1005233095+999213734+997124239+999000693+1004428391
1125+1011876064+1017983675+1020794104+1022066715+1024982055+1030661288
1117+1036665941+1038922167+1035910303+1030563731+1028103542+1030914776
1108+1034885320+1034086822+1029834292+1029437973+1034729505+1039492342
1100+1040670728+1040856650+1040013107+1037264843+1035388504+1036332821
1091+1037406181+1034865326+1028989830+1024589069+1025440425+1029067968
1083+1029276412+1025383660+1023130077+1024534832+1023867674+1016508021
1074+1007389810+1004400354+1008599451+1014768768+1019019804+1022282857
1065+1025021009+1025051345+1022222875+1019958146+1021142851+1023781148
1057+1023875373+1021751061+1020678391+1020670807+1019580786+1017946100
1048+1017518985+1018123059+1018488582+1016361053+1009343138+999304396+992485617
1038+993068318+999284057+1005622864+1007770502+1006392865+1005132665+1005233210
1028+1004812415+1002648345+999862047+998467978+1000229409+1005052114+1009351412
1018+1008320109+1002114021+996407671+995193434+997610417+1000605849+1001427559
1008+998594147+992888256+987866070+987232580+989975903+989785040+982382412
998+972157518+966569064+966777737+966505404+959123402+945424311+931776698
988+923353971+921466026+924058819+927535257+929051818+927547610+924005157
978+920303095+916579432+911212750+904117616+897738017+893717947+891250462
968+889375042+888395735+887930644+886129972+882710872+880048043+879643508
958+880071541+879596338+878778880+878885170+879280110+878474257+876991307
948+877008888+879435753+882925119+885982659+888979872+893255211+898764379
938+904029597+908358368+912526210+917051992+921331928+925492416+931472478
928+940204080+948549991+952227002+951451888+949368541+947292606+944994611
918+943067137+942868174+945023683+948383949+950030356+947617452+942714943
908+939229255+939118081+941007175+941721273+940111464+938782835+940476987
898+944195710+946560353+946385692+946622403+951139509+959795731+967773763
888+971162527+970978788+970361385+971380393+974121992+976716279+977190851
878+974964501+971443363+968024149+965945571+967080291+971809346+977764818
868+981485322+980355313+973893095+965030210+958738746+958916395+965876741
858+975405979+982113986+985284768+988487150+993589427+999007933+1002504825
848+1002808183+1000493583+998567604+999277508+1000917021+1000134150+995897248
838+989634970+983779583+980486538+979994845+980566744+982361154+987873424
828+996175096+1002109885+1003407775+1003248972+1003800877+1004388748+1005945412
818+1009086663+1010357435+1007291679+1003985419+1006753103+1017344554
810+1031844385+1043791295+1048616758+1045385534+1035613495+1023640615
801+1016026325+1015695964+1018084679+1016814712+1012898404+1014151595
793+1022322845+1029596087+1028193285+1018618888+1008227033+1003180831
784+1003687577+1006054345+1008437775+1009531013+1005296179+995050488+984117069
774+976816364+972914075+970904672+970127432+969862453+970026772+971797625
764+975547546+979613694+982429409+984620023+987126290+989681048+992277174
754+994949253+996812608+998971392+1005014079+1014445186+1020258401+1018036647
744+1012364424+1008238754+1004879292+1001187055+998438332+995073929+988240786
734+980905724+978909650+983850941+993070386+1003998059+1014083799+1018649799
724+1014646620+1005359609+997534462+994730008+996120744+999191441+1003081090
714+1009317284+1016628330+1017769141+1009481373+1001001823+1002129764
706+1011456763+1020132002+1023294166+1023622919+1022880841+1020252311
697+1018630609+1020960951+1024318689+1021347963+1012016942+1004835856
688+1002574574+1000636185+992706816+978781757+967462132+966058526+972623242
678+978618587+978342118+974208288+971207226+969903360+964551617+950818972
668+937857191+941469509+956863384+966753492+966363837+963302735+964544608
658+968723136+970054120+968124349+966891382+966959982+969494746+975422870
648+979361470+973777382+957412244+938953704+928232177+924626409+923196948
638+924717474+928919961+928852510+921038739+913079092+912566543+918671626
628+930033940+950935949+976753509+981852799+960684375+937080870+924327245
618+916864979+903580190+888922245+883779003+889884661+903269248+920665229
608+934721743+934854290+926113036+918425607+906762520+893968735+883450078
##END=
