##TITLE=<SNM>
##JCAMP-DX=4.24
##DATA TYPE=INFRARED SPECTRUM
##DATE=29/4/2025
##SAMPLING PROCEDURE=Instrument type and / or accessory
##ORIGIN=Admin
##XUNITS=1/CM
##YUNITS=ABSORBANCE
##RESOLUTION=4
##FIRSTX=4497.3318
##LASTX=599.83466
##DELTAX=-1.4281778
##MAXY=2.1127272
##MINY=0.38582188
##XFACTOR=1
##YFACTOR=1.9676305e-09
##NPOINTS=2730
##FIRSTY=0.39282036
##XYDATA=(X++(Y..Y))
4497+199641324+199806418+200326679+200783794+200847075+200338568+199397741
4487+198564058+198399009+199108901+200571140+202363371+203723176+204043293
4477+203504569+202806067+202482815+202669660+203074899+203117051+202553412
4467+201787145+201302524+201312794+201952361+203039335+203771629+203458191
4457+202459459+201777058+201731740+201613448+200953554+200501861+201175901
4447+202657346+203943963+204554662+204313336+203039684+201300222+200297083
4437+200435838+200894559+200832186+200332888+199943901+199797527+199535905
4427+199009829+198635382+198883554+199714011+200571731+200775191+200002654
4417+198596138+197369636+196988237+197493790+198442358+199400528+200139925
4407+200480898+200285799+199580087+198587808+197798806+197767757+198468742
4397+199149523+199101343+198237368+197030980+196370753+197033449+198740391
4387+200182471+200292766+199070293+197309233+196084518+196109418+197106499
4377+198202516+198927236+199253669+199082698+198445917+197816512+197674667
4367+198052037+198770851+199663619+200289101+199996080+198766837+197580154
4357+197380102+198020579+198725381+199212153+199719766+200237164+200379524
4347+199988295+199492481+199519381+200162129+200744822+200519143+199517836
4337+198442797+197910601+198163181+199227481+200843925+202386076+203288810
4327+203513081+203304986+202644320+201292891+199364177+197556481+196646188
4317+196906856+198024365+199273889+199879363+199623284+199076912+198935869
4307+199330491+199984387+200644569+201139444+201440416+201736829+202074758
4297+202138418+201747856+201214873+200959052+201152182+201714140+202243564
4287+202198640+201555362+200943012+200873263+201233260+201613402+201754626
4277+201629563+201308280+200884592+200610475+200923306+202012765+203450285
4267+204488064+204616399+203849753+202771988+202194323+202427107+202998198
4257+203299185+203285872+203356060+203828124+204677786+205570827+206035289
4247+205747342+204831082+203886407+203544692+203906067+204501665+204853968
4237+204984984+205262419+205796931+206192386+206016674+205364399+204754548
4227+204584228+204857179+205324579+205694118+205787223+205634593+205384801
4217+205160302+205134508+205579037+206546431+207635495+208341889+208498622
4207+208275139+207977832+207833639+207786716+207678768+207616305+207722708
4197+207716346+207420433+207339734+207934771+208732118+208947937+208685376
4187+208735965+209394935+210093240+210160111+209590913+209037891+209201214
4177+210104024+210955019+211021678+210555490+210384337+210770780+211265473
4167+211513312+211589407+211622108+211587226+211503527+211524959+211719514
4157+211860526+211668546+211290116+211167401+211355578+211480884+211473129
4147+211704685+212229732+212441659+211725496+210213638+208795808+208411546
4137+209304936+210926090+212449338+213312874+213515622+213659179+214334083
4127+215250510+215491215+214739443+213681474+213200004+213614361+214562777
4117+215366197+215664413+215673591+215744385+215990619+216350101+216620296
4107+216569268+216273279+216061912+216076983+216273355+216651421+217104023
4097+217341987+217227814+216912392+216629762+216603105+217001559+217763357
4087+218574320+219091400+219140065+218825491+218481322+218348534+218350821
4077+218339764+218369784+218448394+218286964+217727066+217174454+217106946
4067+217355573+217413190+217273147+217408312+218010060+218680390+218902949
4057+218632527+218279921+218138728+218088745+217928270+217713541+217672540
4047+218036323+218938074+220183569+221271619+221866096+222016438+221923894
4037+221793257+221776202+221838393+221889012+222036174+222368256+222689540
4027+222876596+223168905+223730318+224244080+224247715+223674307+222926261
4017+222507602+222541091+222668108+222535608+222299416+222445260+223123451
4007+223841749+223941669+223346616+222657747+222477809+222830127+223361278
3997+223924857+224620072+225314545+225617577+225473369+225328676+225524851
3987+225935785+226325515+226643103+226911995+227106594+227136205+226920961
3977+226596422+226518070+226792809+227033089+226814331+226180489+225583089
3967+225476126+226033540+227065896+228054405+228413205+227970040+227223675
3957+226973792+227623916+228894736+230267097+231565332+232779172+233474463
3947+233156481+232344624+232264864+233126461+233611824+232745365+231284626
3937+230552166+231131421+232953718+235460067+237313156+237301705+236086094
3927+235566621+236413966+237383662+237286150+236678450+236877791+238189975
3917+239443574+239032291+236668969+233752776+231807885+231275614+232088182
3907+234693694+239632130+246127137+251790384+254368753+253145432+248573809
3897+242269556+236951917+235094359+237293829+241099383+242676007+241993923
3887+242787120+246578224+250366616+251498454+251166962+250087440+247044306
3878+243272498+242145386+244635211+248807093+253122274+256981702+258596813
3868+257345516+255750187+255511784+255059031+252570191+249085906+246824427
3858+247420252+252537793+262998994+272978679+271663466+260966058+250069537
3848+243643613+242575223+245610269+250425429+255396279+260419761+265163370
3838+267527677+265863432+261679873+257583586+254575531+252442008+251203252
3828+251050245+251703883+253586356+258436474+265829141+270405293+268967485
3818+265594252+263274808+259962888+254443485+249529980+248417772+252046235
3808+258037884+261959019+263100020+265169974+269194982+271109535+268857644
3798+265213050+261798771+258139879+254601946+252475375+252142035+253035531
3788+254751773+257087030+259354310+261036488+262836959+265413012+267454854
3778+266957571+264306453+262085157+262739296+267138781+273720242+279115627
3768+281500715+281983670+282230615+283588693+287391868+293562411+299495065
3758+302754670+304573226+308289916+316244237+327881867+337982571+341456163
3748+341411179+343532872+348217047+350367580+347979614+345985513+349209918
3738+359019782+372462124+382891412+385574609+382315852+378119419+376435544
3728+378121963+382080812+386497776+390506033+394155291+397090553+398845737
3718+400266733+403567990+410978590+422954345+435989221+443770481+444620855
3708+442715511+442128653+444937383+451051338+457507661+460710104+460832516
3698+460850692+462814379+467008299+472989815+480659144+489213320+494530247
3688+492078394+484046857+476602117+473815440+476632773+483430644+491854471
3678+501015832+509384193+511987903+508112298+504492817+504847574+505781949
3668+503588068+499880678+497100392+495595608+495490795+497823174+503155520
3658+509795688+514206473+515612837+518274405+526375495+539420337+550418853
3648+551578696+544417283+535680170+529543071+526900829+527295178+530585863
3638+536628025+543655061+549030725+552286876+555751684+561090815+565251988
3628+563686406+559155300+557190340+559134155+563403049+567957239+570937909
3618+571917814+572970603+575367293+577382297+577938226+579590930+584099863
3608+587729885+585715367+579741727+575857307+577489411+582871074+588242194
3598+592056759+594410555+594803995+593060838+590939932+591179607+595057484
3588+600371109+602846135+601406328+598538649+595877020+593491477+591795274
3578+591539846+592866723+595367680+598098376+600151124+602432036+607277519
3568+614725258+620327389+620269046+616456722+612813189+611181750+610951405
3558+610644905+609788230+609225394+610012456+612583813+616808480+621901272
3548+625877418+626446798+623463764+619034138+615238717+613481746+614721865
3538+618323352+621713760+622901291+622090237+620407786+619055040+619232433
3528+620949296+622592731+623119701+622854519+621706006+619696697+618288273
3518+618581748+620027796+621985303+624693220+627965366+630108809+629337317
3508+626523317+625034011+626965831+630733806+633338909+634314452+635346339
3498+636632079+636137219+632698282+628406184+626767899+628716380+631233998
3488+631096591+629403174+629741784+633065913+636772636+638189906+637176921
3478+635098849+633705026+634609321+637329960+638964548+638270908+637344803
3468+637069625+635530761+632448913+630159519+629281397+628319183+627440092
3458+628016681+629332410+629539187+628659854+628097441+628515661+629779287
3448+631937271+634821308+636893322+636358536+633906593+632220385+632590682
3438+633838010+634775809+635716212+636566707+635875127+633348785+631027826
3428+630613363+631568186+632301448+631699232+629686106+627738959+628098108
3418+630993050+633659223+633464139+630898174+628499061+628027223+628951208
3408+629143263+627526183+625552802+625289681+627040775+629233232+630152613
3398+629700162+629130358+629088676+628983439+628598360+628857059+630068096
3388+631187468+631759574+632537064+633566649+633617723+632253707+630871698
3378+631175533+633678005+637609015+641593401+644591641+646094942+645891981
3368+644568801+643457607+643356127+643858681+644497007+645822127+648262983
3358+650604359+651058021+649509342+647182810+645230209+644879784+646896181
3348+650172689+652356483+652422097+651535917+651061474+651338470+652205565
3338+652884907+652060766+649456451+646249555+643514921+641756799+641795816
3328+644120955+647117317+647852034+645256261+641533421+640151231+642639586
3318+646929988+649202963+647937095+645038518+643001098+642970321+644377412
3308+645603959+646109967+647036436+649317650+652064523+653238119+651756023
3298+648735427+646666866+647208437+649323345+650729588+651503504+653942603
3288+658936763+664581122+668203148+668696009+667227969+665873889+665138991
3278+663682220+661027013+658827164+658446628+659114520+659450101+659269315
3268+659351044+660603946+663016207+664990194+664949359+663425036+662087617
3258+661455653+661050580+661161572+662478574+663938435+663115385+659311240
3248+654953467+653081385+653880685+655021929+655199807+655509397+657088187
3238+659721765+662766656+665590351+667439047+667590935+666009843+663887058
3228+662775320+662821365+662140448+658815592+653871234+650844155+652133772
3218+656865779+661899440+664260021+663204202+660247281+657118298+654586200
3208+653286102+653901587+655827167+657153740+656602657+654365609+651363976
3198+648681142+646954040+645829942+644764975+644040922+644078182+644312101
3188+643826814+642680299+641579284+640835056+640399145+640468334+641211896
3178+641957639+641435576+639234940+636232640+633317462+630626752+628286649
3168+626952684+627006120+627925743+629044812+630274449+631362802+631165415
3158+628727103+624800031+621256342+619558987+620356410+623134423+625795385
3148+625821498+622679307+618602105+616194388+615900005+616559717+617481157
3138+618947501+620825157+621577080+619664345+615805249+612544190+611346603
3128+611231915+610530278+609069266+607816727+607139385+606484156+605510854
3118+604792435+605045439+605944402+606138699+604712220+602618820+601803706
3108+602593192+603178142+602150314+600389708+599472146+599655537+600375471
3098+601033547+600639622+598491938+595693750+594218863+594358997+594581708
3088+593855837+592808137+592472010+592838733+593076348+592784327+592517267
3078+592855575+593407628+593362068+592633955+591657261+590515835+589179265
3068+588129203+587946417+588476780+588947709+588926564+588655506+588283937
3058+587484334+586138252+584897709+584533107+584909705+585241227+585288968
3048+585539549+586003631+585774922+584324088+582408748+581059334+580417373
3038+579905973+578904257+577130565+574965917+573353865+572804237+572693850
3028+572098480+571074832+570487883+570701385+571164316+571365762+571435435
3018+571508743+571325352+570832794+570364592+570056152+569764738+569327555
3008+568510806+567258388+566006335+565025036+563865557+562271015+561017204
2998+561005693+562076779+563185851+563360094+562458708+561197445+560058201
2988+558472686+555971123+553524329+552691767+553789087+555502860+556093081
2978+554732822+551983102+549232716+547556505+546920542+546554547+546145052
2968+546148990+546832694+547737715+548155935+547711664+546634822+545583003
2958+544898632+544179486+543108037+542269416+542233974+542394222+541743416
2948+540283797+538819937+537856875+537354260+537062542+536600520+535684229
2938+534624836+534221581+534832644+535721610+535615283+534048005+532062688
2928+531139976+531463137+531747039+530912660+529374280+528287261+528127074
2918+528430666+528475499+527909149+526865447+525520577+523751004+521640277
2908+520056398+519776736+520165148+519920142+518999671+518493663+518776657
2898+519067344+518683901+517637473+516111514+514355936+513003372+512623563
2888+512888866+512818829+511967304+510815519+509941456+509389343+509015108
2878+509031103+509835311+511332977+512696629+513044145+512308883+511125352
2868+509912557+508496257+506729108+505055048+504099286+503892448+503820715
2858+503231706+501883594+500235646+499400419+500131531+501832733+503075093
2848+503011903+501893106+500548175+499756114+499595957+499255984+497958249
2838+495917133+494020150+492886328+492386531+491861045+490878626+489691428
2828+488642456+487614780+486645235+486341733+486976727+487824132+488009795
2818+487515995+486872581+486282511+485552459+484721473+484210527+484190716
2808+484248363+483895091+483028753+481776032+480286545+478813749+477678140
2798+476997708+476570976+476062272+475327980+474604047+474261074+474333262
2788+474409599+474029245+473119164+472044959+471237964+470768186+470356267
2778+469762350+468964019+467964303+466757385+465587243+464918049+464898025
2768+465154816+465252812+465045338+464554840+463883980+463302605+463019278
2758+462888778+462665400+462348661+461961309+461263246+460077624+458705551
2748+457614775+456796693+455827179+454557767+453371024+452693561+452515289
2738+452423866+452051903+451492913+451043523+450546270+449547038+448149640
2728+447008518+446447863+446229907+446030461+445606334+444807337+443829067
2718+443126733+442879273+442798907+442546994+442100329+441641851+441278612
2708+440934034+440426693+439638510+438715222+438064537+437967934+438192735
2698+438172863+437571101+436473539+435099043+433627883+432327936+431492618
2688+431111234+430894430+430705404+430588262+430329109+429530960+428318741
2678+427466428+427573997+428411103+429159815+429131794+428252067+427008041
2668+426001993+425491654+425296115+425073313+424603808+423900595+423266480
2658+423129588+423497037+423754585+423410249+422746235+422313203+422208693
2648+422210541+422149047+421880049+421295977+420527060+419864318+419457671
2638+419203758+418832734+418109862+417116234+416256197+415810593+415557529
2628+415058943+414315592+413796438+413694806+413598355+413186890+412804991
2618+412924435+413412085+413682629+413333385+412433089+411374605+410585119
2608+410314061+410573123+411095368+411347493+410912461+409987083+409214409
2598+408953015+408987215+408944926+408698678+408360885+408157804+408293848
2588+408713249+409019022+408826361+408191610+407538714+407171749+407018741
2578+406859402+406607883+406308501+406027598+405846811+405841995+405984673
2568+406129684+406117476+405851264+405336048+404715231+404223007+404023379
2558+404079692+404252875+404559073+405178163+406066069+406720844+406625119
2548+405868319+405067322+404671701+404584822+404514391+404410609+404360050
2538+404272232+403988179+403610460+403475809+403794821+404378771+404738799
2528+404568342+404110894+403843622+403902572+404122526+404442022+404837129
2518+405037181+404761518+404139944+403587892+403392929+403593617+404041948
2508+404439023+404529235+404387102+404339270+404509242+404628382+404435055
2498+404091779+403965126+404097474+404191563+404068000+403837564+403681436
2488+403736447+404085630+404586397+404864604+404747311+404526660+404560618
2478+404816560+404989076+404896048+404653555+404554317+404782693+405224965
2468+405606742+405742726+405586204+405217301+404867149+404764396+404929915
2458+405223753+405460096+405408326+404939033+404223189+403576139+403190696
2448+403154950+403492804+404079571+404711869+405260165+405650515+405851325
2438+405979463+406198205+406452209+406525154+406348305+406086486+405976857
2428+406153857+406538301+406900873+407086475+407120130+407104378+407113739
2418+407149211+407097502+406835774+406467901+406272483+406326888+406465507
2408+406677828+407148787+407800684+408208392+408142112+407898650+407936728
2398+408363581+408891430+409247035+409492041+409818141+410164961+410261776
2388+409952761+409286718+408357735+407187410+405748027+404062274+402231723
2378+400337072+398405858+396461255+394391180+391865292+388797500+385821948
2368+383790678+382800171+382137914+381282935+380673630+381243525+383346740
2358+386440069+389792278+393244150+397133629+401392860+404990712+406746199
2348+406371661+404596090+402678448+401528843+400953738+400160496+399072719
2338+398586129+399220244+400155074+400333558+399932696+399840394+400228503
2328+400565115+400641937+400768590+401168786+401767428+402518048+403457907
2318+404404884+405059476+405478999+406046621+406887180+407719167+408407869
2308+409227647+410381129+411662869+412823682+413907279+414943346+415638592
2298+415732589+415443053+415268779+415485644+415994227+416529527+416889827
2288+417041381+417104208+417194813+417236617+417026477+416566636+416155595
2278+416009524+415997256+415889354+415621476+415204408+414671621+414209114
2268+414054531+414221746+414520431+414801031+415036253+415273959+415641924
2258+416272010+417083518+417734749+417919018+417702608+417503586+417698307
2248+418253994+418767635+418871478+418541804+417976605+417327707+416684777
2238+416161775+415812138+415558043+415318005+415090477+414874885+414681194
2228+414605886+414678407+414675741+414376117+413981192+413956898+414436187
2218+415090023+415620810+416088073+416656635+417272877+417755772+418087476
2208+418419907+418802230+419108215+419339348+419781438+420639506+421686085
2198+422532097+423156034+423896021+424927969+426001266+426761156+427136754
2188+427311421+427492783+427809795+428255550+428667651+428902540+429006746
2178+429124918+429370227+429860695+430649393+431503402+431996414+432006501
2168+431947249+432295887+433041963+433810486+434354935+434658831+434780395
2158+434901474+435279435+435940117+436699734+437544837+438627010+439887727
2148+441032515+441862835+442454995+443092079+444046205+445276963+446404211
2138+447168099+447825176+448876542+450470538+452337774+454269776+456302803
2128+458443308+460620195+462905863+465374558+467745499+469562843+470740892
2118+471639219+472661383+473984503+475512916+476914676+477906092+478605276
2108+479377707+480357460+481436816+482620772+484022683+485638430+487391038
2098+489123018+490356260+490512267+489585980+488169074+486717876+485159898
2088+483176399+480602255+477604438+474566757+471716647+468888682+465835945
2078+462747614+460195887+458545728+457612231+456921196+456201595+455575508
2068+455264009+455164589+454907374+454396641+453974695+453893117+454027526
2058+454267049+454710866+455261192+455492809+455241744+455007219+455432527
2048+456545053+457810829+458896546+460019947+461427099+462947394+464397258
2038+466093614+468522686+471694110+475204174+478806328+482568517+486548965
2028+490610173+494485141+497826294+500319284+501971231+503178482+504298611
2018+505230199+505616339+505387115+504829519+504190527+503495978+502676200
2008+501668971+500524456+499453946+498529779+497459360+496024823+494528127
1998+493448892+492983870+493113371+493653095+494177974+494406653+494600556
1988+495166634+496140056+497314379+498520691+499648545+500697881+501836307
1978+503241096+504941965+506814199+508635724+510347377+512322212+514956336
1968+517915135+520330909+521923937+523277895+524866075+526532774+528018747
1958+529438985+531090538+533109176+535387543+537674877+539812687+541937531
1948+544409710+547592493+551566276+555682132+558647898+559857240+560282063
1938+561259726+563150348+565572060+568129543+570582880+572854340+575093509
1928+577551208+580449180+583795180+587051149+589513817+591285813+592889624
1918+593945321+593697346+592740766+592502909+593402902+594693548+595664911
1908+596330258+597038196+597920680+598854722+599709761+600461805+601181921
1898+601967105+602729751+603182020+603430601+604240262+605969060+607649694
1888+608041680+607194517+605984812+604918816+604058445+603343843+602724904
1878+602300808+602139773+602038474+602113963+603341419+606465677+610145016
1868+611189808+608144857+603116588+598785715+595929244+593895520+592010533
1858+590145599+588449880+586977054+585569235+584175291+583211562+583316375
1848+584881836+587810040+590772898+590949504+587110765+581814407+577976153
1838+576071657+574862800+573545133+572993565+574525341+577474810+578950787
1828+577479536+574819482+572411342+569582316+565965016+562797137+561091724
1818+560393298+559726618+559068178+559282589+560631337+562010014+562171897
1808+561274509+560508894+560923479+562980346+566253341+569260669+570505331
1798+570113405+569889907+571809730+576276435+580752348+581558556+578956300
1788+576593659+576645157+578579218+581045157+583571438+586080211+588144288
1778+589923070+592860422+598517626+606633074+613764679+615777198+613025661
1768+608862246+605605852+604584628+606435324+609842272+612108704+612770900
1758+613633330+615086103+616479260+619000573+624630271+632557239+638584921
1748+639891684+638141014+636480979+636782391+639312792+643004127+646065800
1738+648289822+652207686+659500569+666070428+665740238+660809633+656587632
1728+654231110+653166870+653491607+655423912+659200793+665906727+676415896
1718+688286536+695017794+693593376+688423762+684387939+683630745+686557374
1708+692513323+699554111+705009324+708771423+714216881+723465394+732732809
1698+736672665+735143615+729422737+722003715+717595475+718605491+723628429
1688+730528053+739840422+751923171+760326036+758713197+752782209+749716416
1678+751143561+755293466+759299420+762418588+767110246+774185991+778965134
1668+776798667+771830439+770807821+774641350+778846447+779612123+778901822
1658+781027211+788722077+802862239+818800691+822984462+815695396+811694834
1648+814886099+818292260+813998647+805501330+800128029+799623839+802914766
1638+809478385+817554150+820476599+814224085+805324906+800163047+799321034
1628+800310512+801208384+801981027+802191076+800560547+798093638+797558005
1618+799205983+799191866+794418783+787655959+782527907+779591585+777713383
1608+775973800+774562710+774065730+774107594+773323621+770964676+768093665
1598+766560677+767040936+768519881+769502513+769393096+768587797+767615405
1588+766677667+765865401+765456451+765671286+766227034+766982532+769056787
1578+773790976+779207898+779735717+775263438+772212671+773703491+776493318
1568+776018088+773380996+772009953+772922487+777169025+787712304+803694559
1558+811239112+802782691+790331947+781324261+776349307+774354903+773943347
1548+774651528+777777724+784672926+795018515+807482891+818801297+820682709
1538+811373854+801928561+799640985+802950209+805088139+803232051+802098199
1528+805711319+813032131+820993087+829168818+838195286+845640601+849262930
1518+851068914+852511145+852249901+850484752+850322626+854759643+865318614
1508+880949232+892650900+889039901+877361013+870109752+870676587+877354833
1498+886014943+891396726+891510445+890442812+893422816+901737651+911139626
1488+915123466+912883449+909809417+910847484+916782289+924430686+930296484
1478+934405797+938879347+944650270+950653354+954128279+952905548+948947638
1468+946043487+945938856+948129132+951240728+954635983+958946802+965205495
1458+972643662+976236849+972236105+964447999+957538923+953598764+953427490
1448+956297169+959779424+962178174+964418797+967996656+973053460+979168264
1438+985706255+990142001+989761465+986644720+984693816+985009525+986281572
1428+987194046+988181645+990392702+994163646+999571845+1007080411+1014959335
1418+1017917892+1014291443+1009357809+1007163352+1006852247+1005967522
1410+1004365285+1004065994+1005759290+1007167836+1006135221+1004345353
1401+1005330165+1010246291+1016595559+1020237941+1018481092+1013038481
1392+1009282138+1009986138+1012438990+1011436548+1005335739+998839794+997197753
1382+1000560050+1005200695+1008586923+1012150968+1017964300+1024201183
1374+1026342385+1023950360+1021782379+1022864310+1025994868+1029686688
1365+1034387979+1040045667+1044496014+1045600967+1043763296+1041152316
1357+1039596125+1039874938+1042344754+1047309348+1053807595+1059192045
1348+1061633386+1062125217+1062660790+1063398960+1062904585+1060501533
1340+1057313298+1054809311+1053330426+1052560752+1052913358+1055805211
1331+1061895720+1069189572+1073741823+1072986204+1068756388+1065393061
1322+1064680216+1065202218+1065232874+1064225948+1062273893+1060352494
1314+1060498625+1063445489+1067084479+1068145810+1065410146+1061215227
1305+1059379011+1060958951+1062724041+1062125944+1061691669+1064127194
1297+1066258218+1062803286+1054411145+1046339985+1041051987+1036991931
1288+1033387111+1032120880+1033571896+1033850951+1028312010+1017236066
1280+1005855802+998674336+995671672+993776810+990758334+986587952+981479104
1270+975251976+968539499+962453110+957163719+951622354+944416592+935120036
1260+925431735+917759770+912278446+907321486+902387790+898345606+895282721
1250+892322953+888381461+882041765+872602288+861660177+851773823+843927434
1240+837508068+831700492+825984036+820239408+814904517+810581036+807452477
1230+805265351+803775743+802886231+802348658+801803634+801297384+801226620
1220+801622363+802278137+803574418+805882108+808271407+809515282+810305555
1210+812641054+817251467+823130352+829074063+834286511+838118827+840731564
1200+843352480+846679395+849874901+852133638+854423153+858510837+864581959
1190+870616547+874285345+875404838+875859348+877132365+879237519+881930834
1180+885718136+891472579+899428446+908563179+917178092+924447528+930863138
1170+936784554+941927086+946776992+952230326+957266653+959241852+957577092
1160+955385119+956193689+960634887+966619251+971577665+974515502+975785550
1150+975436579+972914478+968507449+964569957+963887646+966265312+968498907
1140+968889136+969609918+972461724+975470446+976137913+975227923+975385021
1130+977744875+980970128+983501196+985701529+988542006+991238290+991758111
1120+989461326+986230681+985327840+989275390+996918334+1002791403+1002587837
1110+999142599+998591940+1002141445+1005546878+1004854147+1001137730+998881416
1100+1000488681+1004468280+1007566001+1007135059+1002585595+995613753+990991829
1090+992772610+998627443+1001651371+997872006+989945644+982614653+978263848
1080+976359958+974365311+970336456+965517570+962044220+958797520+953408648
1070+947615491+945906685+949422445+954185593+955520163+952542825+947584471
1060+943362046+940937669+940005869+940257115+941613255+943432325+944552485
1050+945224011+946451771+947169887+945374929+941915999+940482311+943647342
1040+950200662+956686974+960299124+959633535+954244784+946146239+940228943
1030+939919292+943345264+946247901+947704430+949077654+950075614+949651578
1020+948844583+949933844+953587920+957895649+959874846+957994524+953331281
1010+947969672+942146344+934374414+924943661+916707163+911019425+905305574
1000+896785901+886466484+877187921+870134592+864636243+860003050+856531942
990+854791935+854515546+854488343+853365457+850527282+846327637+841717407
980+837630935+834626878+832854882+831466451+828652814+823609399+817744327
970+812839652+809112633+805885138+803133479+801410436+800678143+800058841
960+799024894+798522945+799926886+803183280+807374988+812207264+817427406
950+822234357+826422673+830608868+834850740+838405759+841335417+845053046
940+850852746+858516108+866581512+874209492+881922776+889751111+895989993
930+898973027+899282254+899094621+899703200+900536428+900579322+899651641
920+897990214+896066876+894910244+895121141+895795454+895638114+894825121
910+894517530+894937507+894741635+892407772+888720011+886972734+889570325
900+895227650+900432645+903441912+905789771+909644080+915043978+920163731
890+923197474+923450660+921492606+918623352+915841037+913961563+914395050
880+918080690+923492585+927456129+928856435+929463438+930781590+932118887
870+932062240+931190904+931474079+932816465+932996040+931232586+928884062
860+927388637+928073189+932267987+939084913+945020324+948106534+950004123
850+952441466+954420178+953533635+948591095+941773321+937920526+940080934
840+946802922+954069027+959033620+961826113+963933388+965606691+966486145
830+967884331+972073797+978984388+984199016+982672269+975493650+968886289
820+966970403+969755141+975756650+982992402+988634701+990681936+989486893
810+987137520+986842955+991397508+998610721+1000758891+995008810+987949907
800+984573918+983204753+981418580+980045174+979874021+978583314+973780604
790+967264181+961240315+954181230+945940250+939618366+936132414+932673424
780+926942427+920259092+915261479+912925496+912561500+912685578+912219314
770+912218345+915076088+920812235+926210315+929896137+934816201+942118414
760+947151045+945601336+941026002+940067484+943923732+949211366+953426945
750+956818504+960178438+963743574+967913775+972069314+974105219+973332273
740+971873442+971799043+973145852+974733003+975620091+976281439+977790435
730+978718782+975300807+966904123+958093762+953075429+951445263+950411256
720+949479698+950684434+953697034+956822261+960575332+964885727+965952450
710+960945205+953346669+948549654+948030076+947534307+941361523+930615587
700+922065561+920811326+927422928+939458057+952591111+960065023+956652319
690+946446621+938795800+936497380+934278144+928839531+924711619+927020945
680+933184944+935691112+931807055+925888366+922282759+919900670+914809392
670+906344731+899689325+900892669+906813963+911102305+912287836+912283656
660+913332446+915271779+917330706+920552688+927173984+937331153+945809325
650+945798177+936232198+922744236+910676936+901546444+896720954+897876253
640+903366726+907594846+905330959+898062552+891223150+888277012+889568144
630+894079863+902523017+914843078+925196967+924635948+912083482+897879282
620+887826683+878382298+869379216+865141281+865908471+865431848+859976150
610+854515061+854621873+859273483+864588805+870740081+877644007+880942083
600+877922153
##END=
