##TITLE=<SNM>
##JCAMP-DX=4.24
##DATA TYPE=INFRARED SPECTRUM
##DATE=29/4/2025
##SAMPLING PROCEDURE=Instrument type and / or accessory
##ORIGIN=Admin
##XUNITS=1/CM
##YUNITS=ABSORBANCE
##RESOLUTION=4
##FIRSTX=4497.3318
##LASTX=599.83466
##DELTAX=-1.4281778
##MAXY=2.1727297
##MINY=0.62000531
##XFACTOR=1
##YFACTOR=2.0235122e-09
##NPOINTS=2730
##FIRSTY=0.63478816
##XYDATA=(X++(Y..Y))
4497+313706110+312282912+312107884+313037193+314095725+313919961+311913975
4487+309533692+309106491+311135305+313862079+315501867+315728738+314934426
4477+313457619+311797860+310645864+310472220+311275044+312584159+313743931
4467+314369901+314475973+314287454+314120586+314284450+314660485+314418651
4457+312900193+310782922+309369445+308881889+308635165+308522172+309097271
4447+310387328+311590960+312156899+312289009+312073450+311029646+309148319
4437+307675164+307894287+309668836+311915448+313794331+314787470+314540540
4427+313260852+311600740+310177984+309476282+309571602+309809783+309484500
4417+308746774+308319897+308653133+309582029+310500527+310932618+311125555
4407+311776769+313083056+314429196+315026712+314628349+313644458+312593850
4397+311524537+310287560+309275009+309133119+309758147+310259400+309998656
4387+309115181+307982449+306915993+306468969+307123393+308447265+309260723
4377+308967842+308191498+307859588+308217921+308924099+309534870+309641560
4367+309172679+308776672+309049818+309621825+309920037+310294512+311327889
4357+312493316+312646900+311583096+310211416+309449271+309521703+310138925
4347+310894855+311446007+311674026+311819804+311978955+311496701+309810697
4337+307834992+307213146+308253268+309653284+310139249+309747366+309556403
4327+310486241+312296285+313724785+313671411+312105027+309968876+308401932
4317+307947514+308288998+308695049+308766893+308621468+308385496+307867335
4307+307044304+306665882+307651128+309821065+311854327+312642099+312308951
4297+311843163+312126029+313170599+314061880+313848353+312522507+310985875
4287+310110647+309912762+309668365+308977592+308383169+308360664+308519197
4277+308428413+308199481+307970077+307857879+308383257+309800976+311184703
4267+311299729+310113740+308585267+307508060+307207785+307803445+309019272
4257+309952940+309721445+308533365+307710658+308436985+310642417+313182971
4247+314805674+314744052+312964112+310435724+308692251+308489535+309200161
4237+309709044+309521321+309069877+309245259+310378255+311581240+311578059
4227+310322436+309128554+309008727+309628923+310145494+310315455+310445209
4217+310707162+310930968+310892263+310513105+309921952+309406648+309185728
4207+309286350+309707571+310385767+310850907+310533990+309729457+309406442
4197+309804128+310191033+310174832+310094299+309929139+309144931+307895259
4187+307151288+307409676+308040831+308032406+307173557+306400572+306815843
4177+308345082+309748544+310123903+309865838+309838915+310167822+310300757
4167+310064667+310038657+310659148+311530428+311981930+311891412+311551283
4157+311053034+310207705+308971553+307845802+307737964+309087050+311176367
4147+312655943+312701865+311538912+310036860+308943393+308359280+307959090
4137+307708891+308062510+309311652+311001722+312255106+312613556+312302000
4127+311703217+311056098+310576995+310398551+310458170+310785132+311449336
4117+312050416+312077250+311755384+311723542+311991562+311946613+311206913
4107+309991409+308931198+308678878+309295422+310073268+310423559+310646040
4097+311277371+312089091+312347539+311871205+311290450+311339347+312201319
4087+313419296+314321770+314578863+314320445+313810708+313138080+312191569
4077+310997097+310026933+309831758+310258988+310529571+310196659+309519229
4067+308994735+308930668+309260546+309632016+309783450+309631457+309080364
4057+308267318+307717757+307719289+308076266+308750103+309787721+310520528
4047+310150148+309217717+309098450+310052943+311053594+311451221+311593287
4037+311765046+311648665+311003578+310163138+309705980+309831581+310103578
4027+309985430+309659911+309749811+310133152+310054210+309457283+309047609
4017+309100247+309253830+309357692+309631486+309981925+309858622+309081542
4007+308274830+308075766+308449769+309214772+310581679+312536970+314250251
3997+314825851+314317381+313492112+312927322+312734620+312784077+312791912
3987+312513140+312101198+311896979+311807344+311433695+310790669+310289770
3977+310161312+310459760+311268505+312338407+312964318+312634264+311579679
3967+310672993+310746043+311697238+312525217+312623954+312464479+312552818
3957+312587664+312215605+311888879+312384977+313823551+315396916+315950866
3947+315068392+313685579+313149538+313620746+313985412+313614177+313300353
3937+313960846+315451881+316857964+317204515+316101033+314356499+313451580
3927+314043440+315436917+316295325+315964033+315221004+315204744+315813424
3917+315787944+314492380+312726255+311461354+310798505+310301140+309873320
3907+310200282+312257963+316280538+321166115+325081382+326644378+325534769
3897+322585042+319369238+317365816+317246784+318320486+319098655+319346881
3887+320080602+321458113+322386390+322504244+322586161+322285356+320403410
3878+317725503+316562461+318014114+321101666+324092454+325604580+324813037
3868+322607340+321196897+321522327+322218668+321454932+319400138+317681879
3858+317638461+320246321+325989128+332047587+332927085+328878117+324158112
3848+321082608+319756320+319522204+320085049+321737356+324675272+328068400
3838+330058156+329765245+328581849+327958412+327624174+326741789+325539423
3828+324703991+324277026+324503572+326437714+329799679+331559854+330300814
3818+328563969+327815697+326651241+324317233+322074863+321091179+321787255
3808+323931153+326342365+328305404+330751639+333817835+335350904+334554177
3798+333175075+331940219+330163962+328026573+326687001+326645232+327456510
3788+328634811+330043074+331645011+333594941+336395386+340174035+343876776
3778+346278003+347740230+349679880+353169772+358471475+364596504+369506147
3768+372295722+374143793+376164654+378364077+380656846+383057307+385147478
3758+386880229+389350971+393587309+399626237+406658276+412766780+416051423
3748+417522015+420451859+426877369+433883546+437029745+437572384+439517719
3738+444722364+451553278+457076019+460645206+463168027+464897862+466167535
3728+467845145+469926154+471197654+471175031+470593010+469455123+466954630
3718+463582356+461543321+463010879+468220709+474057864+475754620+472712489
3708+468555624+465852621+464929086+465140609+465566720+465676444+465705488
3698+465904846+466374493+467991247+472087933+478596597+484946994+487283181
3688+484702862+480798936+478681695+478874102+480831780+484048968+488502042
3678+494018185+498471673+498191722+493724038+489703171+488028242+486446335
3668+483308561+480158739+478318974+477282269+476139080+475110387+475406980
3658+477619422+480497601+482509095+484608279+488825558+494661181+497772445
3648+494650695+487863966+481691837+477956665+476524394+476793505+478661282
3638+482069169+485971416+488752065+490090724+491650775+494946316+498426664
3628+498657422+496236372+494025785+493214890+494374338+497529197+500343368
3618+499789359+496736477+494472839+494427065+495989000+498223005+500270612
3608+501397894+502002037+503309591+505709786+508275112+509826031+510546938
3598+511764297+513867517+515339199+514758149+513277041+513141661+514741418
3588+516597089+517936514+519253788+520221890+520130046+519691033+520048335
3578+520850246+521021032+520417125+519533326+518734007+518376293+518912687
3568+520609767+522969490+524640354+524695672+523505884+521985423+520678282
3558+520078086+520927067+523303227+525944196+527099285+526249184+524645303
3548+523841447+524261373+525158014+525688989+525730875+525575819+525405798
3538+525052680+524338842+523549479+523089317+522851901+522532362+522343962
3528+522632925+523042541+522890724+522045218+520868568+519835721+519152931
3518+518357677+516916039+515435697+515367182+516819600+517710115+516514318
3508+514826723+515124877+517351341+519470702+520458952+520843000+520897140
3498+520351025+519364955+518330636+517122114+515629635+514367562+514055800
3488+515156866+517531140+520047923+521122950+520411881+519056315+517670349
3478+515708637+513343847+512100862+512794551+514066404+513901862+512039593
3468+509920997+508705759+508205890+507660718+506766020+505756798+505273954
3458+506087648+508052424+509324336+507871918+504228913+501257683+500813192
3448+502009048+502825687+502368647+501078119+499633595+498427489+497738335
3438+497776216+498469611+499483546+500428142+500800584+500033785+498204447
3428+496431666+495813619+496177460+496635973+496963347+497318587+497072982
3418+495286415+492433009+490516570+491054850+493554312+496205620+497580922
3408+497459622+496528399+495685898+495301614+495017953+494532164+494312716
3398+494895003+495682599+495351984+493708603+492048902+491165133+490318537
3388+488842466+487486811+487303476+488144917+489015932+489296531+489178176
3378+489303453+490314001+492508740+495632288+499119352+502440696+504999719
3368+506120639+505553374+503956798+502619966+502590097+503946960+505691346
3358+506618328+506489487+506063671+506086705+506787818+508114989+509587084
3348+510049661+508819342+507093748+506646193+507271368+507205033+505950029
3338+505043608+505942312+508408724+510769802+511281748+509802289+507843581
3328+506788171+506756536+507111186+507189952+506594468+505590960+504983223
3318+505093330+505448511+505527276+505167383+504414074+503536048+502951582
3308+502899857+503316778+503816175+503856648+503298869+502604118+502138065
3298+501700407+501297213+501677667+503374629+505764162+507607344+508227334
3288+507758571+506586162+505390070+505201493+506308863+507850238+509224598
3278+510968277+513358045+515242406+515310450+513691723+511426554+509150427
3268+507152130+506183321+507147594+509841230+512553365+513357515+511918647
3258+509781376+508843201+509447285+510216500+510169901+509965063+510277769
3248+510498630+509946447+509076316+508624932+508462982+507858663+506610905
3238+505387537+504701742+504302082+503886516+503459698+502752047+501432122
3228+500029543+499404958+499407609+499230460+498766822+498591971+498940318
3218+499582931+500447701+501468117+501984246+501240304+499414030+497358235
3208+495770024+495147383+495584805+496161141+495719890+494384118+493072971
3198+491992023+490808744+489828271+489789801+490773751+492055265+492774493
3188+492428090+490857553+488187305+484999190+482229233+480713484+480898586
3178+482548448+484536730+485546984+485167708+483917064+482407383+481032581
3168+480161979+479747562+478865619+476591318+473554077+471682323+471945130
3158+473152562+473592635+473084283+472496724+472125578+471576399+470654514
3148+469674453+469072902+468936844+468933280+468666114+467988507+467046356
3138+466170009+465606398+465342531+465312073+465466099+465471636+464903665
3128+463897653+463003073+462418990+461934585+461445055+461072584+460906746
3118+460845949+460622083+460032050+459226780+458667175+458669826+458992075
3108+458958024+458121767+456775361+455630405+455087913+455013154+455127532
3098+455208771+454841631+453616525+451932995+450960652+451402256+452780151
3088+454070767+454656647+454614466+454348243+454078190+453734497+453262906
3078+452722476+452111558+451406086+450658727+449880293+449057645+448308578
3068+447717336+447137877+446448164+445772384+445326243+445347687+445992126
3058+446906294+447226186+446473172+445221644+444418614+444294810+444376433
3048+444298492+444097455+443876328+443649016+443389626+442945959+442102339
3038+440901740+439736960+439085010+439253322+440273001+441796025+443046228
3028+443180783+442088111+440576369+439303957+438064329+436734389+436082085
3018+436672443+437701519+437882997+437032307+436041583+435606694+435600656
3008+435548165+435194869+434461061+433256810+431779354+430702618+430575780
2998+431231825+432116596+432919833+433526951+433654378+433010292+431788809
2988+430658935+430122658+430083393+430170141+430226520+430258774+430197535
2978+429957380+429418688+428324485+426728204+425430548+425276139+426097020
2968+426861404+426777926+425945262+425008943+424410426+424043787+423577793
2958+422896416+422162371+421666773+421589039+421711282+421579289+421075326
2948+420448590+419835934+419292234+419000855+418988219+419048103+419139240
2938+419348819+419489766+419258978+418679077+418031987+417568556+417413617
2928+417536390+417836164+418265397+418652272+418551592+417659221+416291401
2918+415183353+414777596+414687638+414027469+412551015+411179777+410972878
2908+411881833+412882277+413109354+412618322+412127201+412231034+412918243
2898+413683776+413955744+413468011+412400112+411226613+410359515+409874610
2888+409554835+409208904+408932842+408941237+409180066+409349350+409298597
2878+409073259+408660697+408093345+407610089+407327517+407068893+406786174
2868+406696245+406804526+406749561+406292580+405630113+405115310+404909207
2858+405003967+405400415+406069185+406778545+407115964+406755982+405713710
2848+404348157+403104612+402202079+401606449+401248823+401145550+401333391
2838+401780681+402350479+402815619+402968024+402729725+402157512+401409447
2828+400714314+400224578+399842916+399321102+398578427+397844413+397455652
2818+397536685+397878110+398119208+398071047+397805236+397434119+397009128
2808+396683697+396670472+396908918+397057819+396910332+396524105+395962702
2798+395274167+394629787+394133512+393655706+393102286+392613050+392329683
2788+392209120+392169825+392179310+392145347+391936062+391527713+391035002
2778+390651544+390543793+390597845+390368560+389648301+388924802+388792721
2768+389126840+389363814+389370177+389431121+389521051+389217359+388419689
2758+387623051+387197559+386817370+386025356+385009240+384335139+384243708
2748+384577710+385020669+385180203+384836599+384191865+383597354+383194631
2738+383007025+383070150+383296136+383414226+383163290+382549131+381897947
2728+381539055+381457933+381419434+381284731+380977210+380379164+379554071
2718+378858231+378619431+378835167+379227198+379472449+379397837+379078032
2708+378761321+378636869+378691422+378835992+379062273+379329351+379420105
2698+379105721+378387023+377484697+376709708+376311433+376263921+376289253
2688+376201297+376047684+375889800+375713152+375529759+375315702+374955336
2678+374451668+374015483+373782309+373665074+373617767+373751704+374033863
2668+374167329+373965437+373590786+373277580+373060283+372866639+372664747
2658+372455462+372274307+372218783+372307003+372285677+371808048+370901509
2648+370012732+369462876+369152468+368919942+368802590+368811073+368860913
2638+368978324+369212942+369423700+369425025+369211970+368905185+368671098
2628+368678992+368918588+369167138+369246639+369156209+368936379+368580049
2618+368112936+367675425+367457362+367488733+367511620+367201713+366556538
2608+365960289+365840844+366292818+366980616+367429614+367488792+367437862
2598+367576364+367840114+367955964+367832926+367582049+367256060+366820906
2588+366318209+365886678+365708764+365942851+366504106+366965535+366938641
2578+366493855+366023707+365846677+366040586+366440186+366742346+366761434
2568+366548084+366219030+365827589+365422893+365087094+364889120+364864053
2558+365010155+365265008+365485752+365504074+365287513+365003763+364850297
2548+364918399+365230987+365671678+365880964+365567080+364928090+364464452
2538+364441447+364736184+365054781+365153075+364990478+364759042+364669437
2528+364730381+364800840+364792475+364763402+364828558+365002113+365160086
2518+365174667+365056990+364962524+365062292+365344275+365543456+365423393
2508+365121793+365003969+365170808+365358914+365378679+365399240+365634358
2498+365941761+366007831+365835837+365710884+365741460+365806381+365881553
2488+366052044+366262920+366360036+366311375+366166952+365910567+365559245
2478+365331962+365517712+366130986+366807032+367106158+366845118+366123681
2468+365254522+364713915+364844759+365478093+366066478+366251697+366121060
2458+365951953+365943175+366141414+366400097+366454590+366206217+365861699
2448+365677687+365678542+365722254+365718042+365668880+365607553+365569790
2438+365561572+365574974+365683431+365984943+366383896+366621547+366597894
2428+366492854+366551648+366882086+367380865+367753631+367781231+367654629
2418+367785561+368181391+368323664+367860998+367154053+366884383+367297151
2408+368028249+368578135+368782353+368829954+368977117+369334242+369827041
2398+370239867+370385969+370375395+370649895+371684185+373777213+377194378
2388+382359140+389808100+400003186+413139694+429054023+447408814+468055932
2378+491032964+515890969+541027865+564377073+585531984+606348917+627926286
2368+647992325+663531974+674465877+681297025+682197732+676616403+667269355
2358+655156916+637881954+614272178+586865636+560438389+539809740+528280943
2348+527385244+536913976+553489181+570156995+581368256+586939865+588982405
2338+589481273+590278235+592300392+594971524+596845517+596816120+595013587
2328+592536688+590112044+587336461+583416864+577986586+570847857+561911721
2318+552017027+542838704+535400761+529164094+522737082+515221728+506758421
2308+498016754+489492207+481263428+473121457+464890999+456833036+449582875
2298+443413338+437854101+432416723+427299769+422920363+419223955+415915395
2288+412899686+410139184+407541869+405217317+403411662+402088084+400945603
2278+399873491+399049105+398550179+398139768+397508967+396570969+395459681
2268+394410222+393725016+393611080+393869939+393985731+393707224+393280936
2258+392975860+392700446+392225144+391526712+390790959+390215977+389892108
2248+389823564+389968016+390177478+390207936+389996117+389840766+390039683
2238+390418429+390522084+390258836+390031583+390164694+390465529+390475190
2228+389986397+389188492+388427230+387939144+387722642+387566554+387258091
2218+386825647+386511204+386461806+386559983+386620603+386598423+386501306
2208+386306190+386092957+386046476+386210752+386424426+386540365+386571736
2198+386641988+386867739+387247221+387653685+387985714+388282365+388657665
2188+389157357+389677521+390040920+390226552+390454129+390913526+391515195
2178+392015770+392294424+392428420+392577055+392826872+393100548+393225559
2168+393140225+393006495+393064965+393399556+393898217+394402563+394814359
2158+395102409+395301444+395453319+395527254+395505368+395495765+395604252
2148+395784493+395961259+396143798+396298560+396322537+396260503+396361242
2138+396817487+397556185+398318036+398884917+399226490+399468353+399763385
2128+400221927+400926279+401883100+402916830+403771791+404440325+405211661
2118+406231576+407248781+407995934+408566085+409203690+409961064+410716876
2108+411342699+411765305+411985459+412062545+412064431+412067170+412132474
2098+412232035+412310035+412412719+412588718+412734113+412735351+412673552
2088+412732169+412997362+413418141+413834267+414022638+413869113+413488424
2078+413071974+412690695+412365707+412239075+412479437+413028291+413624157
2068+414095601+414448779+414689641+414803194+414894655+415107268+415439473
2058+415811032+416198055+416581867+416945207+417392438+418055287+418854576
2048+419569857+420120774+420606739+421142603+421782830+422526242+423349243
2038+424280496+425363712+426492968+427470290+428286487+429125306+430072259
2028+431040007+431980686+432982662+434192274+435779572+437861347+440265195
2018+442468948+444016981+444981813+445820132+446860784+448134964+449570386
2008+451115384+452717527+454336107+455959782+457559392+459062769+460371030
1998+461430799+462429270+463797120+465718566+467716569+469061561+469595393
1988+469866477+470540195+471862034+473542766+475076424+476229864+477196846
1978+478319180+479825149+481770131+484014033+486306272+488547876+490836698
1968+493149056+495264323+497169480+499174081+501404139+503551778+505380585
1958+507145061+509173757+511344961+513366469+515343676+517665342+520449232
1948+523438901+526444654+529579483+532846864+535749461+537789292+539177142
1938+540474798+541924683+543622234+545828138+548606490+551600578+554551896
1928+557629933+560990101+564356926+567260760+569608229+571822381+574199188
1918+576391188+577937335+578976309+579919255+580949981+582174527+583640730
1908+585126257+586448008+587740657+589032952+590102559+591039320+592288786
1898+593927897+595478050+596558085+597400527+598563334+600164387+601555124
1888+602037437+601808799+601672713+602083860+602840821+603465760+603751071
1878+603962036+604520227+605650691+607383236+609585251+611822849+613320571
1868+613348142+611910334+609801282+607837448+606342319+605322610+604739616
1858+604376541+603820823+602924299+601996081+601379154+601076346+600886943
1848+600829269+601160413+601601606+601003530+598917984+596518378+594827896
1838+593615957+592278477+590979701+590489258+591123505+592142390+592302513
1828+591272494+589744669+588006115+585689280+582838525+580200325+578420238
1818+577405477+576491692+575358047+574542940+574625770+575215185+575363349
1808+574882391+574520730+574937592+576070706+577282881+577843135+577548516
1798+577006525+577127942+578445334+580728943+582639107+582474271+580453941
1788+578686874+578661011+580070541+581822056+583525675+585194654+586402292
1778+587080724+588298083+591272848+595982160+600624667+603027042+603101507
1768+602234734+601517244+601766029+603476718+606012824+607954447+608969031
1758+609763932+610431759+610956430+612332026+615402700+619243178+621816221
1748+622498776+622438450+622711626+623705354+625467591+627579707+629115426
1738+630021082+631958699+636337339+641358296+643061739+641355056+639076809
1728+637832174+637868463+638906435+640498593+642489526+645325671+649470665
1718+654272293+657653139+658273365+657042927+655406173+654308347+654433712
1708+656097565+658741893+661295731+663883738+667973001+673721758+678297576
1698+679775504+679544391+678119485+675291765+672676069+671997520+673406756
1688+676443260+681386395+688091295+693228015+693378064+690680363+688735499
1678+689236016+692261563+696162072+698698472+699784280+700771470+701753121
1668+701791355+701326716+701959785+704200800+706607829+707437547+707179217
1658+707938594+711487810+718688397+727935058+732921140+731772001+730416965
1648+731659950+733345130+732050596+728512926+725842148+725410794+727163546
1638+730827582+735579900+738830020+738595727+736908544+736751308+739163227
1628+743258146+747640909+751911798+755851719+758441612+759766839+761965849
1618+766675987+772725314+777169581+779370477+780638972+781611139+782492227
1608+783552055+784673918+785475770+785878846+786153848+786765885+788102659
1598+789987315+791664188+792578445+792954362+793312312+793635681+793392374
1588+792514407+791962519+792794711+794809916+796672008+797632098+798657168
1578+801404002+806032959+810225790+812336609+813443979+814186920+813499298
1568+811180342+809188054+808774904+809459933+810997833+814669233+821792114
1558+829487562+833131509+833847055+833989681+833721042+832557411+831075419
1548+830944339+833493111+838329202+843482889+847439659+850181603+850906811
1538+848656488+845252077+842594377+840702063+838702646+836741581+836323718
1528+838693338+843357583+848236327+852100959+855504544+858544289+860262931
1518+861107259+862797328+865668643+868395329+870700264+874576325+882185820
1508+893089088+902099748+903105554+898834134+895261647+894521241+895978490
1498+897803585+898798669+899326109+900085191+901635580+904901193+910079211
1488+915143999+917838578+918428582+918654451+919591742+921197921+923446418
1478+927076697+932562824+938772628+943403469+945226916+945358584+945641362
1468+947033926+949504521+951922449+952357220+950430678+948576185+949734455
1458+953972707+955944317+951171850+943898449+939390733+939127926+941314919
1448+942060981+939450529+935901077+934384091+935178402+936725963+937335998
1438+935729053+931862949+928307017+927879020+930747979+935210274+938502692
1428+938669826+936797306+935269245+935061639+935763988+937140410+939080031
1418+940531447+940805035+940629772+940276240+939067482+937378591+936966855
1408+938425459+940227284+940841914+940465525+940134085+940302162+940845449
1398+941563410+942377162+943428213+945037278+947207304+949185394+949720375
1388+948057641+944877921+941814316+940264517+940900119+943781449+948453706
1378+954064610+959722819+964968585+969705646+973225052+974170002+972642294
1368+971412446+973445148+978285187+982082246+981746683+978737631+977130628
1358+978752477+981944686+984270299+985631168+987942701+992216948+997363388
1348+1001422665+1003010110+1002400134+1001397333+1001720878+1004055799
1340+1008393141+1014136007+1019586080+1022440841+1021713749+1018667288
1331+1015990441+1016842310+1022904126+1032175943+1040206600+1044051084
1322+1043628566+1040271992+1036556173+1036119870+1040564078+1047096366
1314+1051325664+1052658726+1054903158+1060907947+1068758569+1073741823
1305+1072980797+1067809142+1061797166+1057989090+1057726931+1059370342
1297+1059950626+1059027709+1058512936+1058809970+1057844402+1054100186
1288+1048228538+1041466376+1034861744+1029564960+1026088087+1024546948
1280+1026019985+1031253969+1037686931+1040521544+1038495440+1035046256
1271+1031876669+1027444008+1021902149+1017577532+1014746101+1011598900
1263+1007803314+1004527920+1002254386+1000863236+1000762025+1001626148
1254+1000561607+994796236+985543860+976532081+970759936+968568584+967499448
1244+964443855+958303451+950284163+941666153+932941452+924897304+918422102
1234+913061045+907442542+901072439+894531256+888257474+882435548+877353263
1224+873029883+869143925+865506341+862200078+859328350+857124508+856186334
1214+856921733+858766800+860522851+861417549+861439051+861003750+860792904
1204+861562237+863699331+867107217+871410508+875809531+879257477+881622738
1194+884178697+887927625+892198986+895566871+897413057+898512592+900511420
1184+904425478+909404255+913447214+915301412+915307244+914824813+915311015
1174+917637040+922040835+928691359+937658541+947575328+955756211+961188787
1164+966048974+972872699+981057647+986940606+987411608+983072381+977665667
1154+974736442+975120548+977921169+982832845+990003504+997593499+1001851545
1144+1000864768+997195135+996049767+999960939+1006294222+1010302953+1009673065
1134+1006190537+1003068669+1001557810+1001300717+1002531744+1005708165
1125+1009417975+1011290554+1011415212+1011580755+1011664646+1010614480
1117+1009936637+1011570858+1014852967+1018624046+1023542851+1030849243
1108+1039328575+1045121987+1045855207+1042250377+1035822600+1028111953
1100+1020256618+1013913202+1012310911+1018359296+1029842436+1038488960
1091+1037863078+1030450173+1023143427+1020070220+1021268963+1024466003
1083+1027012771+1027217432+1024876620+1021469264+1019242859+1017552200
1074+1013589657+1007350633+1001601051+998765849+999148777+1000994728+1002543055
1064+1003879888+1004035533+999790212+992584441+989653802+993914087+999249164
1054+999753569+998478594+1000975523+1006283500+1009275526+1007899812+1003781505
1044+998477298+992950403+988132044+984448921+982752842+984606687+989572150
1034+994683361+998169895+1000528380+1002272413+1003305377+1002979358+999542663
1024+990921707+978467932+968923117+969431763+980218975+992843537+997953569
1014+995885520+993120541+991569622+988998464+985270626+982401196+980752660
1004+978783701+975172096+969271110+961158153+952666214+947093721+945593231
994+944441441+938769505+928732480+918411262+910430385+905149567+902524150
984+902232241+902731933+901696554+898330083+894559239+892319225+890980390
974+889123128+887101207+885616034+883522299+879720291+875703725+873622774
964+873032416+871365322+867229754+862177868+858773516+857848479+858491799
954+859865687+861711697+863736445+865897576+868696900+872084050+875074780
944+877295765+879370942+881671576+884469075+888457775+893328153+897125095
934+899070725+901629983+907873955+918142800+930172821+941158390+948652947
924+951166961+949344810+945606781+942648983+942019566+943056713+943415841
914+941395098+937564871+933967524+932178953+932171177+932900155+933922456
904+935704193+938258207+940725857+942715318+945259082+949057378+952599938
894+953537936+951379398+948153844+946802166+948753274+953164080+958300446
884+963036210+966793092+969095965+970117618+970653364+970995761+970998294
874+971266874+973072058+976828527+980881265+982043541+979043503+975383826
864+976146384+982207081+989529379+993823951+993813583+991060975+988214344
854+987021257+987591349+988440684+988124916+986825846+987246066+991658462
844+996937336+997967708+995026111+992322165+991646679+991703824+992046692
834+993663357+996498913+999001144+999676630+998921377+999544667+1004136155
824+1011869542+1019210928+1023012524+1022996264+1020969571+1018054367
815+1014217070+1010145540+1008444041+1011920796+1020801319+1031278123
807+1038813330+1042523729+1044511069+1046628840+1047891444+1045155567
798+1038480241+1032719348+1029198291+1023414069+1015763983+1011568502
790+1011041828+1008939727+1001873932+993513249+988763640+987804846+988261297
780+987643781+984144227+978798487+975254514+975458703+977511082+977922170
770+975396728+972058063+970777727+972300722+975257224+977418885+977731472
760+978667467+982979595+988942969+991864418+990084920+988066887+991151818
750+999247985+1007534557+1010235557+1005530604+999466667+997724519+998987476
740+999173167+997755625+998362301+1003683828+1011903829+1018196580+1019864852
730+1018033041+1015549897+1015496169+1017403977+1017658360+1015380230
721+1013952673+1015707310+1018529316+1018384039+1013561379+1006994215
713+1004056153+1007594765+1014022660+1015040425+1007000813+993648393+979533710
703+968555270+964514491+969006183+978978758+987937045+990554214+986077780
693+976196400+965064906+960512889+966357555+978501924+989385163+993720502
683+993039596+988992690+981038265+969027509+953508715+938708354+930663381
673+930606885+933805457+936120347+940087839+948432734+955453697+960667886
663+967974161+973856354+968041026+951947251+937675979+930430620+929331733
653+931830312+936521597+945379675+958253081+967902347+966359028+958482720
643+954841365+959373588+967738866+966981669+952360696+936028327+928993283
633+929738521+930190789+927673535+924960929+923453016+923193803+923565420
623+921453717+915902904+909777404+905917662+905499681+910325463+920772635
613+930246343+933566097+930146192+919002621+901574429+885011242+877687707
603+881370182+888334531+884320498
##END=
