##TITLE=<SNM>
##JCAMP-DX=4.24
##DATA TYPE=INFRARED SPECTRUM
##DATE=29/4/2025
##SAMPLING PROCEDURE=Instrument type and / or accessory
##ORIGIN=Admin
##XUNITS=1/CM
##YUNITS=ABSORBANCE
##RESOLUTION=4
##FIRSTX=4497.3318
##LASTX=599.83466
##DELTAX=-1.4281778
##MAXY=2.2113292
##MINY=0.60538071
##XFACTOR=1
##YFACTOR=2.0594608e-09
##NPOINTS=2730
##FIRSTY=0.62325561
##XYDATA=(X++(Y..Y))
4497+302630476+301327195+299192327+297922850+298606109+300473062+301705263
4487+301454076+300701964+301048716+302752408+304204740+303846006+301978416
4477+299951414+298677248+298583245+299737302+301222078+301495174+300226102
4467+298959808+299092680+299873474+299490428+297859120+296741703+297077371
4457+297945887+298340047+298464699+298869307+299510861+300077659+300556415
4447+301135860+301689837+301560293+300270354+298604141+298195772+299511237
4437+301018588+301263291+300898421+301355934+302557195+303201933+302616468
4427+301413876+300847020+301847136+303922036+305143933+304300943+302470109
4417+301361202+301222657+301260223+300941863+300060004+298484930+296608513
4407+295361639+295379178+296469013+297937407+299051177+299210676+298252527
4397+296725004+295610394+295674935+296820975+297982991+298264306+298240718
4387+299170476+300928521+301896887+301012568+298943456+297164428+296633171
4377+297180086+297865921+297933008+297206481+296103361+295567821+296423314
4367+298530050+300854806+302288586+302212642+300903370+299547009+299150564
4357+299569266+300119509+300674382+301460327+302209951+302265982+301487272
4347+300519022+299927508+299650737+299493496+299475755+299503249+299169608
4337+298083564+296288300+294527882+293951070+295022093+296842942+298046200
4327+298182835+297812263+297463861+297142577+296992513+297708911+299568426
4317+301614154+302632126+302326876+300965769+298828209+296644429+295611234
4307+296227985+297621825+298475379+298430143+298220430+298512743+299259240
4297+300033667+300422993+300393733+300369566+300513031+300247808+299164687
4287+297793972+296804189+296160232+295627933+295445599+295981892+297062205
4277+298100061+298804419+299192993+299092912+298485190+298083680+298676091
4267+300201848+302039657+303557253+303982467+302800423+300693310+299089004
4257+298735364+299257272+299814548+299913935+299728272+299669694+299777647
4247+299775621+299511932+299115342+298996911+299578267+300574996+301004522
4237+300393530+299301438+298332059+297568399+297121363+297210388+297626253
4227+298059889+298710387+299619798+300098873+299740399+299096385+298699476
4217+298534362+298854112+300139131+301756027+302144918+300920793+299245638
4207+297970488+297025131+296541078+296949274+297783205+297815823+296760052
4197+295707205+295538532+295900392+296063971+296040384+296377933+297279414
4187+298409449+299346327+299713078+299149464+297873272+296858628+296738925
4177+297148076+297667206+298475437+299587065+300495029+300883227+300849596
4167+300582405+300498097+301101014+302204336+302993726+302994796+302313389
4157+301247257+300329135+300202485+300943541+302040670+303092302+303862792
4147+303902732+302879000+301176784+299556473+298317906+297363027+296824158
4137+296959143+297485278+297689028+297421692+297434571+298396136+299952282
4127+301121881+301369537+300860623+299985855+299189056+298983193+299582087
4117+300692934+301958996+303174468+303913788+303702136+302790930+301941341
4107+301288384+300354111+299325517+299157626+300142141+301357439+301743205
4097+301129811+300154441+299505478+299327456+299312320+299277358+299343606
4087+299485797+299376716+298989242+298889045+299408291+299973294+299844735
4077+299186915+298707782+298552277+298343693+298000501+297706249+297413473
4067+297097949+297037171+297298603+297535665+297628164+297895413+298434658
4057+298870175+298900535+298614879+298247404+297962905+297826850+297890030
4047+298436684+299871679+301920937+303325631+302986837+301178434+299184831
4037+298004205+297713687+297917611+298460937+299382822+300225262+300124863
4027+299047502+298087124+297996709+298282713+298244799+298069440+298343028
4017+299053203+299555374+299371159+298648480+297893532+297618989+298131202
4007+299161880+299752381+299186857+298041280+297501080+297798515+298238056
3997+298450663+298664717+298862332+298549383+297660318+297003395+297394140
3987+298726450+300070250+300568976+300116817+299293189+298864329+299279529
3977+300373068+301429070+301764999+301442152+301137423+301200140+301269890
3967+301040555+300953961+301623183+302820537+303571868+303322418+302592765
3957+302252553+302452947+302617886+302471470+302500643+303148565+304053924
3947+304537195+304539569+304500005+304467995+303856801+302259094+300341203
3937+299509761+300565127+302908550+305238254+306716808+307136146+306541709
3927+305387797+304516936+304355817+304544778+304789597+305463856+306891906
3917+308378129+308514155+306770118+304241786+302492887+302145353+302882994
3907+304481048+307034705+310108447+312542979+313549057+313135767+311384465
3897+308679298+306357263+305860476+307302099+309023243+309187835+308231480
3887+307834398+308139966+307947879+307501045+308324036+309958123+310255675
3878+309182568+308817206+309942987+311579302+313067985+314163377+314023530
3868+312730696+311766585+311560606+310895782+309252897+307742478+307388635
3858+308618404+312191741+318597155+324460662+323663314+317392305+311130992
3848+307605497+306937345+308114873+310117622+312478207+315191739+318089746
3838+320104621+320069370+318439625+316647197+315339690+314269536+313335842
3828+312688239+312371933+313037393+315941739+320483499+322821337+320979852
3818+317952707+315901394+313900816+311093281+308325541+307053373+308430745
3808+312049405+315183288+316138978+316641785+318065522+318745482+317651624
3798+316497857+316114174+315411176+313867562+312500811+312301257+313284528
3788+315034353+317273325+319720071+322218912+325197435+329014376+332736503
3778+334873686+335571532+336577494+339575466+345095491+351887366+357654236
3768+361347189+363205923+363235328+362175853+362145811+364322124+367268551
3758+368960145+369833466+372190550+378002714+387423003+397443749+404287227
3748+408636235+413764994+420064424+423746582+423430160+422919915+425793032
3738+433358697+444229466+453862854+457778717+456439056+453764307+452226972
3728+452108484+453225033+454980531+455761932+454286244+451020675+447435559
3718+444871425+444353366+446329285+449969912+452931765+453369655+452413590
3708+451600584+450599918+449316694+448980737+450369802+452407628+453619568
3698+453944817+454267461+455375414+457722947+461433815+465669978+468108794
3688+467224562+464645176+462569841+461582345+461511148+462552910+465403974
3678+470510477+476288837+479132954+478779227+478745394+479728896+478412881
3668+473452794+467699759+463706852+461914539+461521769+461720629+462674235
3658+464831185+467192986+468238019+468972998+472016004+477827965+482347759
3648+480861594+474970303+469492447+466852370+466561359+466712146+466141065
3638+465776224+467322386+470844148+474694516+478041991+481640449+485069684
3628+485548064+482205481+477580194+474348719+473980983+476415573+479765913
3618+481909608+482761657+483446827+484486853+486147392+489141776+493273807
3608+496254240+496170772+494288566+493203478+493804948+495224836+496736354
3598+498345406+499788274+500550198+500915502+501869831+503845924+506009965
3588+506750530+505612073+504032541+502986524+502018187+500832323+500315132
3578+501401841+503757999+506129727+507354720+507153111+506750530+508112997
3568+511522523+514535198+515056267+514063851+513346382+512619073+510097889
3558+505224946+500028144+497303441+497955501+500782022+504499142+508750182
3548+512791856+514952366+514289424+511422847+507808876+505135458+504444095
3538+505078500+505221010+503929855+501752732+499652479+498604841+499197455
3528+500578792+501023976+500073467+498820342+498282776+498636272+499361208
3518+499467309+498448092+497086782+496296843+495839388+495275368+495283067
3508+496786134+499136445+500185588+498599226+495718758+494080417+494501521
3498+495835220+496929628+497583193+497738264+497221130+496555236+496627996
3488+497292906+497611035+497566059+497891077+498251056+497348938+494839330
3478+491898026+490056686+489987689+490784343+490447402+487919156+484315170
3468+481651968+481137121+482639464+484841883+486156307+486086209+485226665
3458+484072260+482793840+481779717+481380580+481267099+480741688+479630928
3448+478473861+478102277+479139206+481344750+483320727+483536518+481750457
3438+478838963+475884722+474001272+474082859+475834507+477413344+477149684
3428+475435688+473783629+472761084+472155591+472154809+472735267+472738972
3418+471253849+469074642+467456849+466602109+466316627+467030015+469098780
3408+471629630+472966860+472489754+471234747+470438614+470227107+470134783
3398+470099850+470363742+470882438+471328866+471481737+471604161+472276944
3388+473424113+474064133+473586100+472494789+471657472+471676950+472684243
3378+474005873+474655503+474444458+473940581+473676602+473979565+475003065
3368+476524019+478154603+479728925+481188869+482453166+483542335+484622966
3358+486015823+487827468+489235490+488957243+487060508+485370708+485423585
3348+486805357+488042217+488441614+488451107+488297079+487349001+485560133
3338+484293637+484605659+485614283+485693352+484691501+483710140+483253524
3328+483140766+483730689+485312912+486688432+486447925+485207216+484522046
3318+484400664+483867005+482997041+482594807+482628929+482379827+481642417
3308+480824896+480132317+479303856+478262643+477654517+478220273+479772164
3298+481279341+481897250+481702963+481507895+481920693+482737982+483502019
3288+484191559+484932123+485624413+486295575+487232713+488443582+489437504
3278+489722408+489253607+488371807+487457417+486730745+486341303+486338119
3268+486359363+485860752+484980948+484535388+484878812+485406510+485276734
3258+484143139+482437624+481363880+481926800+483400520+483745651+482330076
3248+480872679+481051395+482631013+484325531+485285069+485323967+484722179
3238+484119031+483984972+484005463+483363937+481865472+480367383+479844114
3228+480377136+481245624+481647800+481210228+480122737+478787012+477220939
3218+475250837+473409497+472783861+473647168+475037448+475861539+475676311
3208+474598140+473160163+472014325+471387908+470991983+470406026+469411699
3198+468217963+467442147+467518322+468110617+468559245+468706444+468644219
3188+468162568+467228267+466337320+465708008+464835555+463345425+461567063
3178+460046371+459195653+459330957+460226881+460794808+460126482+458607989
3168+457151229+455873069+454405890+452888960+451807142+451291774+451141739
3158+451103420+450912780+450538388+450310558+450360164+450287259+449803930
3148+449178236+448711809+448330297+447903549+447466469+447025135+446530344
3138+446015150+445572224+445198498+444688166+443756729+442433912+441260262
3128+440845322+441259336+442033125+442645506+442807291+442494951+441961205
3118+441534457+441245935+440808855+440073124+439257427+438559030+437802837
3108+436744838+435563315+434752162+434509947+434488646+434258442+433736476
3098+433046212+432339336+431801596+431462600+431108438+430721948+430710227
3088+431234191+431659376+431241252+430127454+429164789+428857079+428935512
3078+428907699+428678884+428503583+428487144+428304839+427655644+426937539
3068+426890653+427522801+428038921+427877860+427187365+426355662+425704007
3058+425439971+425434703+425310543+424948885+424593218+424470071+424507956
3048+424309472+423468190+422164996+421184995+421028854+421308606+421269563
3038+420622162+419645490+418734371+418099792+417759638+417623466+417572008
3028+417512966+417452160+417464170+417418442+416891845+415709107+414396014
3018+413683523+413683726+413936446+414089664+414118259+414063559+413916563
3008+413617651+413060231+412300999+411684537+411448864+411335325+410929617
2998+410288381+409895901+410031088+410410574+410476619+409965159+409112676
2988+408291479+407584777+406900099+406363893+406212614+406298484+406147060
2978+405610449+405024984+404646569+404421517+404336891+404423746+404383488
2968+403824678+402904153+402151288+401718202+401383952+401165991+401312379
2958+401741703+401952197+401508374+400489244+399518736+399236726+399568574
2948+399767028+399346676+398608456+398048518+397774033+397711461+397839008
2938+398021370+397982559+397564118+396881148+396252414+395975528+396012139
2928+395967453+395544901+394830848+394002300+393050489+392020361+391264052
2918+391174419+391787060+392813194+393958279+394992951+395593090+395461520
2908+394695631+393743820+392934084+392302747+391856752+391678355+391759016
2898+391971217+392176300+392227208+392018508+391678905+391486586+391433304
2888+391143306+390419383+389572110+388926186+388319390+387493360+386682062
2878+386295601+386324138+386578942+387152888+388060158+388819216+389001319
2868+388811836+388679803+388668834+388507339+387872470+386730105+385605945
2858+385162093+385407375+385761508+385821302+385621198+385359476+385226836
2848+385229585+385109245+384757023+384471019+384446013+384417245+384157405
2838+383830449+383510641+382912007+381957678+381089827+380690256+380603893
2828+380477417+380230283+379982280+379784607+379600074+379406134+379233322
2818+379144529+379152053+379149072+378997793+378652488+378173066+377740385
2808+377583202+377702239+377799687+377642040+377278936+376784753+376063146
2798+375066156+374023554+373340671+373267911+373599903+373795579+373562018
2788+373158887+372967060+373042859+373268924+373601524+373984107+374233730
2778+374090931+373350656+372107255+370871437+370162159+369966946+369865737
2768+369627603+369374101+369224500+369090297+368840992+368506048+368270895
2758+368316681+368650496+369033166+369077418+368532356+367585667+366795583
2748+366548709+366635274+366547320+366151945+365770462+365607896+365460205
2738+365076783+364502692+363948687+363596696+363589692+363961132+364539825
2728+365056756+365241463+364838013+363870197+362838535+362226443+361935404
2718+361575396+361070621+360612008+360283142+360088826+360111864+360328436
2708+360450918+360237674+359848522+359639185+359677504+359703986+359562431
2698+359399199+359363398+359387015+359400994+359479976+359578754+359426057
2688+358903280+358250525+357737357+357418939+357291189+357379664+357635974
2678+357943221+358121502+357892370+357166623+356364586+356023912+356103212
2668+356102315+355854833+355736229+355997893+356297817+356117394+355425336
2658+354683614+354286560+354165815+353944612+353409766+352761555+352319063
2648+352096124+351928377+351857324+351994219+352187696+352251571+352328845
2638+352618553+352945857+352995203+352776258+352524724+352326501+352113489
2628+351866210+351630565+351466435+351455148+351601768+351746651+351773682
2618+351825083+352077688+352415324+352542176+352316198+351834605+351317964
2608+350980038+350883923+350914196+350951791+350974308+350927422+350695193
2598+350319440+350079165+350200316+350572248+350871420+350926728+350857556
2588+350829599+350789312+350586255+350294087+350182719+350353215+350645673
2578+350947363+351273596+351479141+351261701+350586776+349807140+349270008
2568+349065736+349151607+349428233+349699737+349828934+349919782+350139943
2558+350416540+350485625+350217189+349796200+349581104+349762657+350138293
2548+350311510+350156758+349941865+349931214+350048226+350012801+349670101
2538+349112478+348594968+348386529+348594534+349029299+349282279+349078124
2528+348591755+348316026+348563740+349182083+349841813+350449274+351001542
2518+351193572+350658523+349602637+348729114+348505335+348844129+349399205
2508+349848296+349989243+349838224+349625212+349591900+349804478+350125009
2498+350331538+350331538+350251658+350247346+350281092+350175078+349848411
2488+349455815+349292033+349537691+350066865+350491297+350422213+349794580
2478+349009242+348642259+348884589+349350467+349562929+349495813+349429594
2468+349454252+349450808+349427770+349486204+349542698+349432401+349179999
2458+348935701+348817126+348918567+349223007+349476769+349435700+349207146
2448+349092739+349180375+349317589+349386326+349400160+349377180+349288618
2438+349162460+349116645+349221125+349406238+349578500+349746912+349930085
2428+350007881+349824390+349443515+349154820+349194788+349558298+350062263
2418+350520644+350891737+351264045+351659188+351961544+352112302+352176582
2408+352170649+352102259+352184483+352672501+353477056+354223380+354687087
2398+354966463+355242742+355572476+356008022+356809365+358387507+361109664
2388+365346753+371659872+380720442+393019492+408691051+427489634+448874231
2378+472291791+497461579+524029983+550788130+576014442+599273632+621900443
2368+644504274+664616905+677687110+681134261+677322269+670340217+660885140
2358+646917852+627927240+604763673+577530532+548615580+524407848+510570857
2348+509140318+519217934+536905410+555716699+570806584+581403649+588080249
2338+591365614+592469167+593020915+594070695+595441787+595966040+594613239
2328+590970731+584991283+577273413+569121183+561493727+554226887+546579172
2318+538173296+529237146+520165954+511088395+501903172+492531100+482983930
2308+473292022+463552273+454131926+445596911+438215751+431695090+425608383
2298+419888399+414685693+410014273+405788558+401982239+398568951+395480130
2288+392683101+390183420+388006558+386228861+384860258+383698242+382549047
2278+381578713+381139405+381235550+381428939+381274245+380631475+379609566
2268+378464018+377503698+376872794+376457218+376102709+375813522+375661867
2258+375600597+375432531+374989923+374348369+373764727+373387788+373193444
2248+373182822+373419364+373876559+374391811+374700186+374532410+373905848
2238+373237262+372922085+372954905+373115532+373248780+373230460+372953255
2228+372440839+371785798+371015568+370170986+369406342+368912276+368802094
2218+369020171+369273325+369182679+368636894+367924750+367448396+367354914
2208+367505151+367749999+368088416+368519679+368923997+369203778+369399396
2198+369582772+369772457+369981938+370225918+370494701+370815088+371262037
2188+371833581+372394706+372790226+372955686+372937163+372896587+373055420
2178+373509257+374107746+374618715+374979707+375280702+375560802+375751644
2168+375773611+375624647+375465757+375605227+376212717+377047690+377651012
2158+377801655+377659116+377483410+377353143+377200301+377039008+377035014
2148+377319107+377842636+378475219+379144760+379851318+380641981+381562737
2138+382576658+383613153+384731727+386098507+387752853+389525977+391237194
2128+392877764+394552948+396322801+398187844+400166368+402239011+404226739
2118+405903370+407235419+408318366+409129578+409571839+409672006+409518065
2108+409110708+408438272+407572708+406614964+405664715+404799411+403952167
2098+402903864+401541917+400081684+398918800+398239795+397810442+397210390
2088+396298808+395355911+394736816+394500505+394417558+394262892+394024875
2078+393832353+393773022+393839936+393974082+394116649+394309634+394725355
2068+395443779+396229782+396715050+396805841+396773426+396934227+397337300
2058+397788012+398124461+398377326+398656442+399038706+399610742+400414516
2048+401286939+401977637+402502093+403166829+404168334+405327282+406287949
2038+406896886+407343720+407946955+408811970+409734897+410473175+411042838
2028+411681440+412579507+413734229+415055889+416542517+418267684+420179989
2018+422014208+423511690+424720186+425979997+427559384+429366948+431103750
2008+432640621+434088727+435541667+436974202+438383585+439806685+441191525
1998+442443666+443644319+445059200+446798780+448553873+449893997+450786044
1988+451510314+452184196+452746421+453299819+454150391+455548139+457518414
1978+459876279+462371184+464840128+467183957+469299405+471210928+473093539
1968+474958755+476620192+478195180+480189969+482809874+485637032+488217836
1958+490542099+492709382+494633264+496383437+498361614+500838227+503640379
1948+506459375+509191834+511849624+514307020+516344759+517985416+519589606
1938+521494155+523715559+526091628+528568126+531226437+534089656+536991831
1928+539715550+542280494+544873743+547437356+549736961+551930813+554425949
1918+556984584+558733889+559458130+560055201+561399724+563444236+565495346
1908+566992856+567917607+568642716+569498585+570470858+571364409+572187690
1898+573159789+574426633+575978785+577714487+579404287+580692258+581298706
1888+581321512+581234976+581447583+581986596+582626790+583150464+583441099
1878+583532787+583627426+583917192+584568095+585982774+588433340+590909432
1868+591236012+588742034+585395775+583151101+582073885+581210607+580096229
1858+578994296+578197874+577608155+576887155+575875694+574748177+573757728
1848+573201987+573504429+574492852+574697876+572955460+570277469+568305080
1838+567413786+566851272+565913440+564900996+564761091+565619622+566175190
1828+565451470+564038123+562356426+559783784+556320542+553189784+551261503
1818+550193375+549274933+548504153+548432957+549105681+549672247+549418774
1808+548708194+548316089+548548261+549403725+550777422+552134911+552710680
1798+552485976+552419757+553541602+555960737+558233136+558369568+556552771
1788+554896370+554719536+555760285+557370495+559446206+561754783+563479082
1778+564408868+565733827+568903135+573994357+578900235+580942837+580054495
1768+578153825+576815379+576988509+578931377+581607979+583391261+584217204
1758+585185946+586334938+587168927+588513856+591779888+596633555+600505514
1748+601545048+600794759+600310504+601135000+603080877+605157051+606387601
1738+607362421+610136152+615509326+620524315+621331099+619176724+616977663
1728+615502438+614837701+615271192+616698489+618908085+622417403+627894304
1718+634236915+637742180+636178856+631996814+628499999+627074265+627836073
1708+630678859+635014872+639262439+642611244+646412411+651626694+656099429
1698+657567823+656842308+654647936+651477296+649096712+648563140+649350127
1688+651171497+655244081+662134445+668037486+668145729+664367889+661058733
1678+660403084+662515378+665698752+668199503+670679763+674385191+677883105
1668+678613250+677589403+677681496+679191104+680067753+679442724+679167950
1658+681111686+685672925+692493828+699556918+702151209+700562069+700173264
1648+702444448+704381296+702732535+699174248+697133152+697810508+701210193
1638+707125853+713948146+717471471+715653112+712428756+711827633+714741443
1628+719832433+725307309+730645521+735920871+740425325+743938868+747988299
1618+754083051+761242170+766234353+767890754+767687061+766799819+765745582
1608+764931505+764554393+764727176+765811859+767935208+770312320+771920619
1598+772804446+773936420+776011958+779020523+782524688+785821167+788315551
1588+789947873+790865967+791113535+791126906+791762470+793412967+795993771
1578+799681081+804005691+806681887+807064094+808027916+811450408+815505453
1568+817267723+817509156+819058993+822918276+828986575+838429612+851677058
1558+861520998+860919123+855297570+850682558+848414036+847109973+845390248
1548+844113332+845285767+849169998+853704610+856393483+855398114+850309092
1538+844173647+840400091+839604537+840347532+839973024+837454271+835155361
1528+835872830+839534092+843309443+845856791+848779919+852662413+855699746
1518+856748947+856043171+854500395+853775170+855387116+859421208+864702693
1508+870084376+874265145+875711023+875489328+875962527+878234638+882011957
1498+885990075+888758017+889842295+890084654+890879745+892952099+895523410
1488+896990242+896926802+896501588+897334708+900565779+906054430+912012461
1478+916242257+917965283+918099631+917671870+916358025+913913768+912111790
1468+912727846+915115493+916533528+915377822+913913074+915246773+919472575
1458+922789776+920156182+913413132+908711873+907210369+906611388+905414699
1448+903790366+902064909+900439997+899720387+900386570+901444106+901602360
1438+901241455+901629045+902582274+903238271+903955334+905445493+907429458
1428+909052634+910022187+910582559+911279422+912901150+915461348+917284512
1418+916733401+914763849+912924130+911161570+909295225+907804834+906609535
1408+905183454+904160359+904816992+907218877+910600040+914415910+917018305
1398+916060097+912573413+910434493+910632281+910655724+909782432+909800318
1388+910905319+910897620+909005227+907358146+908052635+911828102+918197049
1378+925413704+931578322+936201728+939757584+941963822+942403044+942272864
1368+943454618+946185804+948864316+950454383+951891231+954196103+956518920
1358+957256648+956366049+955587975+956034143+957093126+958288889+960496458
1348+964709353+970463343+975713630+978650188+979924440+981986491+985749165
1338+989661295+992477223+994534990+996580254+999557909+1004216045+1009051884
1328+1010624470+1008476636+1006172631+1006023291+1007171705+1008962975
1320+1012829956+1019372439+1026099340+1030078268+1031035202+1030449765
1311+1029879379+1030810844+1034302739+1040401601+1048567491+1058269732
1302+1067645855+1073464097+1073741823+1068746456+1060056718+1050509143
1294+1043193912+1038985996+1036528831+1035162428+1035054417+1034855297
1285+1032220429+1026380539+1019417588+1014147042+1011411457+1010724724
1277+1011601084+1012647969+1011484159+1007463786+1003003728+1000695904
1268+1000074117+998100281+992552820+984409272+976383345+970391741+967305149
1258+966940192+966977758+964590228+960000048+955573041+952085488+948916759
1248+946275003+944317433+941508509+935591807+925632042+912878633+900034753
1238+889790547+883329449+879625989+876074996+870451185+862783095+854668374
1228+847142736+840513369+835394826+832226270+830237848+828278715+826495491
1218+826066862+827300596+828596728+827904960+825543882+824221760+825588279
1208+828383716+830308582+830719962+831307250+834566973+841080109+847957276
1198+851488531+851841390+852502191+855161196+858307988+860740494+863560126
1188+867742342+872079629+874999632+876971673+879553461+882856133+885421367
1178+886186416+885844150+886322269+888980291+894186528+902315951+913319418
1168+925203991+935324500+943568186+951123171+956688461+957722670+955178390
1158+953547111+956029860+961263997+965330098+966665186+967027018+968144000
1148+969941753+971954892+973877558+974512079+973062786+971245932+971208539
1138+972778809+975387513+979779731+985532796+989341546+988399777+984094037
1128+980112331+978442964+978625645+979512308+980834720+983156089+985893759
1118+987052475+986508484+987439602+992750203+1001587429+1010536834+1016464244
1108+1016802169+1011051999+1003086965+998188496+997719985+999690116+1002956727
1098+1006427551+1009610810+1012578856+1013029192+1009290828+1003535564
1090+999662447+999463559+1002455106+1007304722+1011768137+1013349173+1010450934
1080+1002908683+992474561+982324069+975777765+975387745+981193252+988738629
1070+991683406+987955230+980877785+974121248+968592541+965307465+965491362
1060+966276381+963600474+959134512+957418664+959512261+961965490+960958255
1050+956968734+953649044+952716190+952458896+951648813+952134632+955854530
1040+961690137+966185619+967551734+968458598+971906269+976166975+977173342
1030+974598095+971581541+969335363+966089012+961220179+957771929+958758673
1020+962452234+964651295+964569969+964405984+964523604+963696040+962446446
1010+961649097+959556427+954010065+946370916+939685576+934719615+931323923
1000+929904903+929132734+925455380+917335565+907682989+899888597+893939075
990+887877721+881388607+876307804+874313593+875158059+876606079+875902039
980+872019372+866202808+860086871+854413222+849461848+845462544+842577387
970+841108182+841012848+840969261+839396387+836567898+833898184+831489468
960+828492364+825421979+824047124+825078034+827373240+829492074+831298741
950+833765804+837421972+841951201+847212254+852941992+858068523+861911713
940+865244543+869150769+873795302+878779208+883551201+887510159+890880729
930+894870829+900243135+906363066+912072718+916729696+919768072+920254237
920+917864797+913953245+911048986+910872730+912636622+913745674+912356233
910+909023229+905973856+904807904+905015996+905297079+905482018+906243421
900+907807034+910301650+914517727+920169958+924556909+925057835+922434544
890+919495671+917467483+916151148+916128574+918514947+923424182+930009615
880+937162887+943218626+946062454+944728813+940391295+936181700+934814949
870+935578262+936033402+936742072+940996122+948933893+955443498+955700907
860+950482977+944410568+941275064+942161090+945959652+950276911+953105805
850+954691993+956265794+957240730+956657493+956340869+958526906+961964390
840+963318696+962142325+961884800+965006470+969745469+972268390+971408816
830+969469711+968828938+969850239+971611294+973461605+974704485+975170912
820+977379061+984711773+994176111+996392827+988287598+978269429+974809139
810+978038009+982572737+984007559+982980007+983654237+988047149+993373842
800+995272198+992852542+988970048+985374426+981494479+977542872+975242572
790+975615343+979489386+987360648+995905214+999226120+994464141+984191861
780+972300689+960586468+951307705+947333928+947512557+946735179+942744616
770+938991435+940188702+946139208+951194195+952795085+954883357+960465954
760+967290852+969984124+966528639+962042649+961136884+962767469+963389140
750+961125423+957577266+955511685+955422312+954876816+951692516+948051629
740+950224526+962550058+980354401+991062082+989987760+986326613+986208530
730+986486372+982716752+974582582+965900832+962278583+966409109+973821411
720+976446785+973488463+972022731+975740488+980173919+979620203+975201127
710+970823207+967070546+963528119+962607999+965916576+969651408+968344393
700+962980250+959699920+960389605+960167679+954782350+946922143+943849732
690+951041497+967722028+986054675+996378472+996765714+992068333+985511842
680+976264104+964615523+954581898+948173242+944290806+942758508+942067608
670+939586537+939111080+947318126+957988067+959217865+951664442+944301168
660+942582368+944470188+944496988+939081328+928912429+920869252+921049270
650+928833649+934902585+929498907+917027856+909332849+911902308+920728247
640+927088339+927227838+927052103+931904439+940050070+945186789+943230434
630+935210237+923550890+910880255+898780933+886286439+873512309+864630455
620+864793108+873980067+887179701+896519242+896693009+894607053+894649250
610+893591135+890034585+887524167+890440987+900048356+909355713+909208862
600+905462916
##END=
