##TITLE=<SNM>
##JCAMP-DX=4.24
##DATA TYPE=INFRARED SPECTRUM
##DATE=29/4/2025
##SAMPLING PROCEDURE=Instrument type and / or accessory
##ORIGIN=Admin
##XUNITS=1/CM
##YUNITS=ABSORBANCE
##RESOLUTION=4
##FIRSTX=4497.3318
##LASTX=599.83466
##DELTAX=-1.4281778
##MAXY=2.2098334
##MINY=0.64158696
##XFACTOR=1
##YFACTOR=2.0580677e-09
##NPOINTS=2730
##FIRSTY=0.64833826
##XYDATA=(X++(Y..Y))
4497+315022802+312306361+311742395+313666623+316447155+317844053+317179475
4487+315696937+314984485+315641216+317272267+319085168+320178549+319617074
4477+317234472+314606104+313844968+315242474+317293409+318711420+319157282
4467+318598383+317267778+315883652+315233583+315579296+316336464+316527349
4457+316020350+315759697+316342315+317291555+318095960+318906302+319821339
4447+320375024+320108231+319155978+318009684+317061370+316687506+317182429
4437+318100536+318565396+318536116+318548946+318631399+318785445+319774595
4427+321950498+324063440+324617385+323655807+322288392+321532556+321602555
4417+321666126+321016086+320298768+320672400+322235074+323939021+324431685
4407+322911845+319989084+317345366+316057594+315912324+316316973+317017493
4397+317863052+318585901+318887535+318520419+317690355+317160389+317445891
4387+318193821+318620162+318517813+318476021+318643476+317975770+315853880
4377+313750264+313688663+315614542+317594029+318224549+317798526+317229491
4367+316927017+316969012+317450351+318104504+318169667+317300244+316201012
4357+315657724+315466230+315001167+314250950+313732858+313935183+314921523
4347+316021856+316366642+315939663+315353744+314866439+314457734+314261347
4337+314154218+313778270+313497778+314081091+315290290+316164636+316536849
4327+316944365+317284691+316847171+315572200+314298649+313828865+314428599
4317+315911802+317511315+318088314+317247766+315933958+315302251+315347749
4307+315234278+314646331+314055286+313933938+314470825+315805832+317722965
4297+319253781+319458046+318628503+317859576+317620934+317619689+317413251
4287+316447068+314460573+312457801+312098679+313560566+315120575+315472052
4277+315275606+315665254+316551851+317054274+316608326+315314472+313765469
4267+312586419+312184521+313079372+315574546+318512744+319593586+318006961
4257+315585523+314507345+315352383+317507173+320023403+322113059+323501703
4247+324015508+323210901+321381087+319924934+319708592+320065571+320139017
4237+319987375+319647049+318569451+316821221+315520910+315277025+315358841
4227+315032272+314600514+314607523+315197294+316559526+318628909+320148632
4217+319639982+317668518+316412981+316846418+317755286+317707934+316796401
4207+315873486+315385399+315490935+316153862+316782616+316678528+316047400
4197+315851215+316508409+317423330+317895981+317751000+316917402+315371787
4187+313861968+313645366+314967398+316462649+316698772+315959154+315828046
4177+317135511+318881047+319554662+319242197+319449561+320822536+322180076
4167+322117896+320668490+318950786+317677148+316470556+314787750+313037609
4157+312220172+312637970+313548692+314273192+315146351+316831329+318915424
4147+319939560+319140223+317470711+316409621+316410895+316800543+316703927
4137+315959241+315320467+315632817+316725359+317524145+317519163+317550934
4127+318580746+320153382+320754651+319545655+317200616+315145888+314400275
4117+314954510+316027735+316960989+317664492+318164888+318241202+317769333
4107+317097195+316827709+317297087+318346245+319567550+320549691+320903918
4097+320519455+319807611+319218564+318691263+317981070+317089752+316097040
4087+315130654+314664461+315275664+316824088+318216642+318424672+317694235
4077+317205974+317508216+317995724+317973076+317470479+316922499+316579074
4067+316290358+315781215+315212094+315136881+315743768+316626253+317265229
4057+317367434+316897361+316107987+315501911+315516218+316176858+317070116
4047+317838319+318602843+319409449+319705088+319088440+317937280+316708851
4037+315340943+313810764+312677503+312575500+313452917+314742599+316039146
4027+317224046+318107458+318299935+317545026+315979341+314104810+312746576
4017+312590531+313372925+314077876+314349708+314952251+316272083+317340326
4007+317214489+316486369+316382919+317239077+318572202+319738828+320139017
3997+319518836+318286092+317280579+317192507+318082319+319387351+320544217
3987+321382680+321631922+320761978+318890228+317107158+316531433+317529705
3977+319615684+321603135+322286191+321406718+319710996+318191272+317510823
3967+317725630+318363911+318923505+319072048+318507097+317293988+316228612
3957+316239414+317447020+319078535+320358950+321317720+322360013+323165605
3947+322843178+321444020+320307138+320371983+320905482+320530286+319079694
3937+317679233+317487856+318881366+321223073+322920939+322635842+321022747
3927+320153874+321108936+322875238+323766034+323553718+323390115+323934851
3917+324511126+324259132+323358865+322542963+322173473+322242951+322780592
3907+324058169+326451515+329815504+333041521+334835104+334677930+332768907
3897+329870734+327290354+326319624+327282303+328891778+329450561+329449895
3887+330657298+332693173+333212973+332159789+331860560+332367762+331475083
3878+329150230+327557698+327634851+328864091+330815775+332724827+333071380
3868+332150145+332309491+334068118+334867396+332795088+329536750+327700391
3858+328374816+332026596+338741773+344853365+344069987+337623398+331127255
3848+327301563+326332107+327613999+330512404+334336764+338351634+341806678
3838+343728618+343429823+341458995+339063361+336886242+334819957+332876325
3828+331420925+330692805+331013842+333020987+336374290+338835638+339404470
3818+339790439+340087265+337951299+333168083+328731535+327357950+329692968
3808+333879695+336812332+337980608+339491354+341515528+341450307+338968889
3798+336685162+335602322+334629854+333200780+332173517+332434460+333983608
3788+336221460+338473359+340403843+342522113+345857691+350338550+353990040
3778+355171175+354912984+355325047+357534227+361751595+367522745+373600510
3768+378806796+382730987+385092823+386074066+387118619+389627318+392855623
3758+394538371+394370945+394901577+398944973+406670963+413905304+416771475
3748+417876471+421847145+429164489+434627953+434868304+433901425+436565503
3738+444369719+454859183+462887850+465335498+463821567+461871911+461717604
3728+463838220+467396019+470590410+472266352+472790699+472429955+470726095
3718+467915298+465827003+466931854+472270696+479247628+482156517+478135392
3708+469987056+462428608+459113998+461168408+466357780+470782744+472609806
3698+472386542+471130802+470362339+472217060+477674789+484523537+487961262
3688+486100083+482698473+481085117+481202179+481737387+482272507+483984970
3678+488381898+494173901+496351918+494024286+492757975+494817946+495489156
3668+490634810+483268898+478126877+476954344+478948890+482339669+485592939
3658+487697365+487956397+486857078+486658054+489748706+496034964+500538471
3648+498001389+490961611+484553686+480423984+478180022+477372460+477728049
3638+478939710+480581737+481998242+483134227+485600498+491002679+497222326
3628+498834379+495263662+491303704+490308762+492981326+497833876+501487654
3618+501758617+500148881+498821462+498240900+498640511+500662136+503516925
3608+504710080+503180741+500737262+499516884+500190123+502473212+506035414
3598+510100792+512763682+512639611+511180070+511315493+514124176+517920734
3588+519693117+517850763+514145897+511617156+511614723+513237492+514712035
3578+515366217+515761367+515917527+515066234+513839600+514913955+520196583
3568+527798734+532588438+531481068+526391555+520791857+516689582+514386798
3558+513611963+514736826+518079269+522229677+524597277+524222168+523171678
3548+524095433+527223328+530165812+530145076+526420690+520899767+516748779
3538+515916427+517586113+519490676+520575573+521454147+522716577+523904519
3528+524133777+523066953+521071856+518798671+517009838+516391858+516770095
3518+516833868+515548269+513518476+511917081+511008270+510322695+509449101
3508+508435624+507773159+507927350+508722864+509517450+509900552+509826411
3498+509547338+509644649+510481983+511803957+513300570+514823653+515810891
3488+515649981+514806797+514301362+514259484+514213667+514101122+513849332
3478+512991609+511722865+511089073+511348104+511590338+511407649+511306400
3468+511440086+511432208+511052755+509947933+507340649+503145350+498914370
3458+496583552+496378273+496643966+496090802+495472764+496281889+498669588
3448+501051494+501365958+499111077+495985787+494038709+493673852+493643790
3438+493103543+492916047+494165096+496211687+497021276+495571523+493107366
3428+491386302+490909307+491545185+493289534+495445946+496403817+495228156
3418+492626606+489960240+488329710+488390761+489840282+491256497+491223481
3408+489615193+487442099+485928168+485875574+487104119+488593665+489630543
3398+490367091+491144474+491912590+492478149+492695013+492187260+490575150
3388+488241377+486302639+485675508+486270087+487137482+487613319+488020807
3378+489004164+490690127+492614732+494138510+494787710+494434670+493447026
3368+492582237+492595733+493920778+496538662+499754079+502145716+502707453
3358+502206709+502388877+503723073+505041746+505457054+505102739+504359878
3348+503748791+503615336+503421758+502566642+501934877+503084125+505798509
3338+507838207+507578944+505884467+504485049+503825886+503550637+503748212
3328+504514590+505065495+504449311+502747246+500767730+499094279+497910972
3318+497256906+496981019+496545844+495498250+494355026+494265651+495496339
3308+496987449+497700074+497868630+498514760+499965845+501133803+500550403
3298+498395555+496860366+497826636+500625355+502536117+501752072+499546889
3288+498623366+499715213+501091056+501223467+500618984+500788235+502441644
3278+505065842+507650595+509395754+509969249+509617136+508997882+508461805
3268+507649262+506238839+504823377+504407143+505108184+505986875+506242199
3258+505767347+504454408+502056747+499135404+497060258+496654102+497586429
3248+498982951+499976677+500069180+499503388+498869422+498327553+497798949
3238+497711080+498734114+500635318+502085592+502025005+500738653+499007858
3228+497020580+494909811+493328979+492694549+492653945+492668889+492408352
3218+491749884+491087594+491019940+491334635+491202049+490550648+490289010
3208+490894479+491642669+491589032+490545725+488736560+486420686+484274787
3198+483102861+482759437+482389830+481865918+481816249+482471531+483539108
3188+484589714+484863110+483528421+480769031+477925914+476177279+475572303
3178+475496105+475572390+475796059+476163927+476648482+477276945+477677424
3168+476965407+474896140+472663819+471782696+472419211+473195841+472624200
3158+470666087+468744668+468137085+468511731+468381694+467065772+465555142
3148+464965226+464918453+464245910+462751007+461376901+460877113+461020444
3138+461103245+460842302+460391748+459723579+458726117+457836247+457666967
3128+458042655+458327115+458525211+459084254+459909164+460486597+460574524
3118+460094285+458903795+457240423+455864435+455256071+455051834+454619266
3108+453823174+452909411+452023595+451219625+450624728+450278175+449978656
3098+449512029+449018931+448840094+448870938+448476048+447386489+446258006
3088+445782661+445773625+445651176+445305029+445075973+445196250+445530407
3078+445764734+445805918+445894279+446151833+446342689+446335246+446387898
3068+446704534+446999883+446752407+445841395+444786011+444208896+444131163
3058+444027887+443536295+442818688+442249363+441986625+441861222+441611545
3048+441203160+440810008+440484858+439985214+438926731+437211604+435440437
3038+434503592+434477237+434596095+434608288+435066921+435890296+436017176
3028+435043086+433874375+433338878+433254745+433089867+432769698+432614871
3018+432800948+433058039+432986736+432549476+431942472+431174125+430195314
3008+429220761+428521747+428078724+427694463+427320890+427121577+427226186
2998+427480988+427565150+427329578+426862227+426327106+425920053+425776230
2988+425744199+425565101+425287476+425086136+424840920+424396390+423999676
2978+423957016+424044509+423692887+422692356+421457063+420623668+420500147
2968+420855562+421190038+421228094+421111813+421041089+420854635+420245315
2958+419325210+418571691+418305100+418518401+418940225+419041185+418364269
2948+417090688+415892900+415140424+414698269+414451749+414467533+414618828
2938+414527947+413970381+413112948+412375241+412149024+412555005+413403779
2928+414294633+414729982+414374972+413402939+412436176+411946148+411793956
2918+411420990+410456023+409237383+408654302+409177172+410225288+410898149
2908+411046490+411079969+411095174+410841964+410310724+409797382+409467627
2898+409233213+409004852+408817703+408696904+408533504+408109653+407257636
2888+406121275+405220631+404970984+405095026+404884215+404163683+403516018
2878+403353863+403390470+403329390+403389572+403696071+403814118+403406775
2868+402813210+402537034+402597621+402649983+402489102+402256194+402135889
2858+402011036+401701785+401413155+401483039+401829418+402144143+402328424
2848+402299608+401869993+401145436+400460092+399835016+399108634+398439248
2838+398061330+397781591+397331646+396987381+397195237+397744115+397907689
2828+397406830+396715838+396414697+396650067+397103198+397204737+396582645
2818+395451004+394384615+393781000+393747578+394270883+395129590+395806448
2808+395850586+395314683+394653348+394192774+393844281+393385618+392840650
2798+392418624+392179721+391950404+391590007+391220923+391119905+391420235
2788+391905514+392060979+391491799+390393986+389403359+388882719+388661598
2778+388556468+388645930+388854598+388778081+388146084+387123166+386075659
2768+385316376+385048251+385240555+385534166+385520439+385138437+384627962
2758+384192411+383958605+384061186+384367657+384316192+383492731+382255439
2748+381364498+381103063+381118934+381070423+381046472+381242628+381541974
2738+381636736+381372289+380819241+380180032+379700749+379493762+379439488
2728+379388574+379367750+379484726+379777121+380210674+380628240+380716601
2718+380304451+379636657+379049087+378544231+378004013+377498665+377076030
2708+376701645+376600048+377017673+377557804+377488962+376721947+375816902
2698+375218210+375060892+375373791+375935528+376183177+375677336+374584099
2688+373506762+372916325+372892026+373290072+373840977+374140757+373946860
2678+373440614+372885539+372274944+371623195+371199982+371135745+371168877
2668+371033946+370803036+370699991+370815779+371070292+371283767+371272646
2658+370998497+370608067+370263513+370007233+369806414+369583845+369207694
2648+368645928+368123637+367925599+368060270+368298478+368491332+368668026
2638+368834467+368820942+368450554+367839207+367357867+367240979+367368004
2628+367441450+367276920+366949511+366691146+366591750+366497770+366323596
2618+366249889+366424150+366689611+366789354+366649673+366367762+366092599
2608+365926245+365803274+365569439+365286805+365244492+365542737+365936555
2598+366214006+366438776+366701282+366886838+366790223+366321337+365641988
2588+365133888+365062903+365301054+365571438+365787664+365890130+365697710
2578+365289035+365138898+365502104+366017010+366185334+365912922+365426833
2568+364993019+364769553+364687997+364531692+364284593+364208801+364421291
2558+364636475+364512172+364080183+363673420+363531885+363644429+363907428
2548+364229856+364482458+364537195+364396240+364174974+363961905+363777246
2538+363626241+363517839+363452473+363416271+363385630+363363213+363395911
2528+363518592+363725232+364030138+364468759+364981232+365390921+365552902
2518+365471173+365277826+365152076+365207971+365384897+365505869+365495414
2508+365436941+365368505+365191203+364895130+364696975+364746818+364833645
2498+364657327+364325023+364252678+364566359+364942511+365094732+365077384
2488+365030003+364962986+364881952+364842999+364845953+364872105+364975874
2478+365169018+365337748+365427094+365537061+365696175+365716824+365410818
2468+364854294+364380485+364331974+364756057+365293610+365492402+365280925
2458+364973876+364823334+364793562+364771030+364739665+364696454+364594539
2448+364466153+364458941+364650376+364899011+364971762+364823856+364678295
2438+364757273+365000752+365166933+365151526+365051087+364968171+364965043
2428+365150280+365553829+365943448+366009393+365759224+365553047+365686270
2418+366051764+366329649+366451432+366666528+367121455+367619245+367897999
2408+367945901+367939964+368035218+368294278+368698928+369143486+369483146
2398+369679389+369879918+370287435+370991720+372089649+373989086+377378677
2388+382793601+390398099+400294490+412788145+428111422+446062284+466156179
2378+487959177+510974559+534416370+557541690+579978364+601198541+619975414
2368+634928679+645534713+652358902+656052299+656492976+653314398+646790192
2358+636963974+622721308+603142782+579249868+554742101+534797329+523222708
2348+521391938+528833585+542739140+557444148+567713012+572877246+575656156
2338+578385426+581566726+584812090+587566788+588989780+588435863+586439897
2328+584251512+582293312+579826490+576022982+570813510+564706060+558152313
2318+551169589+543546296+535480066+527768846+520956705+514422826+506823224
2308+497525031+487340966+477797151+469805758+463034771+456553225+449963103
2298+443620370+437989567+433195779+428992226+424943675+420856113+417008351
2288+413706049+410803474+407982657+405274210+402976553+401242746+399985066
2278+399074865+398447647+398013254+397624881+397207488+396774688+396250746
2268+395467049+394450560+393516669+392952412+392748379+392695640+392606381
2258+392385289+392040879+391715816+391586445+391655982+391728212+391597885
2248+391198246+390647312+390234901+390214135+390512931+390802806+390863422
2238+390699587+390381011+390012969+389789213+389845833+390082679+390240635
2228+390148509+389840156+389425254+388944639+388442273+388067831+387932957
2218+387896031+387644733+387014763+386188550+385556554+385337894+385393356
2208+385484411+385575552+385728469+385875940+385896011+385781497+385636111
2198+385601183+385763136+386053561+386355861+386733344+387348776+388150863
2188+388863402+389285718+389422271+389380625+389320790+389421344+389730189
2178+390093540+390349994+390545918+390872864+391442449+392169584+392840216
2168+393281994+393481857+393532945+393510529+393460831+393450173+393531410
2158+393685717+393840313+393932990+393985120+394115765+394399037+394704928
2148+394810029+394691954+394590820+394734266+395087249+395453901+395768683
2138+396126965+396544329+396883757+397069081+397215510+397485431+397888633
2128+398279757+398571747+398891886+399422374+400144730+400889648+401574673
2118+402231317+402875738+403506779+404167477+404871096+405497880+405892393
2108+406079686+406285342+406692569+407230238+407648442+407818822+407918710
2098+408207050+408628671+408863751+408837339+408882779+409255137+409755851
2088+410003182+409882239+409617329+409533862+409787998+410238204+410599556
2078+410766577+410908894+411230974+411742897+412283665+412689242+412949924
2068+413233138+413674337+414167319+414526904+414809539+415233564+415827274
2058+416363785+416603875+416483424+416143562+415840509+415790811+416136177
2048+416973250+418209701+419517630+420702501+421900926+423132367+424046362
2038+424472559+424775438+425328109+426072187+426847833+427742597+428883911
2028+430188653+431470372+432612264+433614302+434626794+435902460+437535104
2018+439248753+440638904+441645401+442585548+443741718+445144814+446675804
2008+448168767+449529000+450894388+452525816+454454910+456398340+458049809
1998+459387684+460742327+462512162+464672484+466676298+468045191+468886463
1988+469581277+470282869+471016462+471952786+473229552+474707282+476209281
1978+477806013+479592240+481407718+483035063+484497414+486033587+487931026
1968+490288547+492779754+494932054+496751876+498648736+500763096+502867494
1958+504882748+506996587+509264327+511501889+513659460+516018892+518812920
1948+521833195+524753669+527668292+530713937+533322496+534736973+535211652
1938+535793314+537224821+539611419+542636038+545736188+548459897+550859065
1928+553358728+556295536+559598185+562724169+565144942+567091152+569246811
1918+571711953+573975812+575791116+577325379+578714139+580048567+581407265
1908+582708851+583883064+585041406+586238789+587433160+588802863+590673657
1898+592996424+595116693+596261018+596475391+596759271+597790241+598971868
1888+599399745+599289112+599448400+600010658+600526056+600807330+601027785
1878+601228603+601380825+601927212+603671329+606844925+610465050+612609009
1868+611793628+608753022+605847029+604602671+604778294+605220535+604962257
1858+603691718+601799897+600103451+599221922+599227830+599773695+600401985
1848+601035604+602005234+602955401+602370148+599676617+596471973+594279243
1838+593078907+591968988+590448569+589140785+589016541+589840842+590111921
1828+589163201+587781161+586213535+583928186+581303119+579466441+578686799
1818+578227412+577466826+576546895+575951157+575706491+575217332+574143846
1808+573079802+572796559+573417898+574708016+576352679+577632312+577751923
1798+576963708+576551760+577613893+580082220+582255951+582111086+580163891
1788+578759260+578977977+580135799+581447405+582867038+584134855+584656393
1778+584850029+586221528+589842174+595205836+599936053+601541329+600262854
1768+598112061+596623731+596795009+599061881+602405018+604727495+605434444
1758+605883752+606935401+608419560+610565488+614097686+618802127+622930641
1748+624817307+624456621+623082515+622344288+623479055+626171023+628580211
1738+629957444+632209603+637123494+642672857+644443329+642346114+639180800
1728+636478870+635004847+635137896+636454774+638601687+642395059+648773357
1718+656214714+660151619+658332840+653690665+649525023+647392069+647934865
1708+651051755+655489577+659432448+662691887+666949163+672595026+676716647
1698+677210498+675510461+672568498+668986544+666733632+667086499+669565773
1688+673614817+680086892+689042587+695706850+695177956+690673001+687187895
1678+686683328+689081337+692781569+695849746+698261251+700885680+702684361
1668+701762344+699303458+698403973+700255769+703102854+704364183+704024002
1658+704268553+707178890+713794672+722289821+726210334+724453126+723396902
1648+725236533+727053228+725376533+721377709+718276284+717469475+719228421
1638+723807285+730636571+736261524+737136044+735324505+734817911+737046264
1628+741103590+745615959+750305051+755305247+759902068+763443186+766737031
1618+771109863+776446997+780756810+783003871+784337083+785938594+787670315
1608+788472316+787989065+787234619+787255298+787854221+787968734+787187586
1598+786518808+787171541+788985282+790882083+792572100+794505973+796364372
1588+797335565+797810302+799181511+801640513+803523529+803938431+804892537
1578+808884237+814720261+817917142+818263464+819911371+823574995+825410283
1568+823159340+820086008+819377958+821149241+825462356+834081228+845972224
1558+850996690+844704813+836571450+832341513+832404360+835811559+840908545
1548+845410546+848278078+850706148+854167506+858255532+860341336+857741003
1538+852172409+847508050+845167733+844747444+845082007+845375270+845980391
1528+847580859+850656566+855541264+861315658+864733052+863428860+860756528
1518+861215046+864190836+866492750+867649297+870230169+876062659+884382302
1508+892547348+896962349+896043807+893103466+892058652+894594112+900079297
1498+905327345+906435063+903142435+899506497+899512116+904411989+911382144
1488+915103459+913947028+911125082+910060458+912042754+916483878+921892547
1478+927148241+932089008+936849693+940455221+940675849+937382294+934029484
1468+933415964+935276043+937294772+937647870+937220052+938415349+942719485
1458+948653109+950692807+946076234+939711780+935862860+934672080+934475200
1448+933546580+931274843+928901046+927964780+928163166+928110398+927661264
1438+927742588+928562603+929778694+931704226+934399611+936230902+935014637
1428+931219411+927984879+927573453+929717933+933065994+937152861+941831527
1418+945383766+945823690+943481867+940007998+936186707+932061379+928452897
1408+927052205+928624638+931850134+934460546+935490473+935505765+935335587
1398+935331301+935233122+934527852+933140541+931819666+931653254+933644180
1388+937791519+941953744+943767948+943616016+943581494+944896808+947556397
1378+951104407+954832732+958057590+960678313+962963198+964812908+965614272
1368+965244666+965263838+967857453+973278575+979064379+982632199+984229482
1358+985493012+986953828+988224194+989327394+990222187+990168550+988990514
1348+987857310+987766139+988713642+991092189+996106576+1003983282+1011732326
1338+1014643416+1011976182+1008231233+1007948454+1011917911+1017904940
1330+1023477357+1027539143+1029415035+1028607242+1026703779+1026810705
1321+1029712990+1032781283+1033942290+1034709306+1037404575+1041230384
1312+1043821623+1045483432+1048083128+1051401996+1054127385+1057211085
1304+1062834474+1069836428+1073741823+1072136663+1067182516+1062934101
1295+1061964935+1064260884+1067355589+1067381307+1062445580+1055063999
1287+1048955795+1044854852+1041556142+1038981932+1037519957+1036219935
1278+1034010524+1031011854+1027801998+1024688293+1022080487+1020334575
1270+1018801819+1016548965+1013699273+1011371930+1010518378+1010568076
1261+1009859331+1007502795+1003852608+999386172+994614829+990797941+988995148
1251+988587950+987388598+983476136+976863772+969130772+961999245+956108021
1241+950356796+942678186+932664472+922633033+915340538+911450608+909155702
1231+905867766+900118916+892418064+884631950+878169374+872536891+866364683
1221+860168552+856466293+856250936+856981402+855518790+852118309+849771272
1211+850397245+853272423+856590422+859214909+861099316+862956846+865358098
1201+867801808+869323965+870274190+872130967+875403554+879036596+881908993
1191+884063957+886324515+889275746+892673852+895539878+897032204+897688297
1181+899283436+902868170+907314507+910895533+914348318+919605345+925963370
1171+931166238+935535595+941680985+950504441+960033746+968143303+974086831
1161+977725896+980089962+982231720+982795079+979997054+975459604+972782986
1151+972819825+973261314+973559269+976968960+986025903+998075956+1007222332
1141+1010508183+1009681160+1008069744+1008670521+1012438523+1016216719
1133+1015031152+1007793336+998948506+994768094+997773250+1004254014+1008335958
1123+1008463852+1007629530+1008641675+1011451168+1013603468+1012671720
1114+1009267938+1006751187+1007505112+1010314257+1011699194+1010513049
1105+1009382046+1009719621+1009444950+1007626866+1006809457+1008686160
1097+1011453022+1012691993+1012743081+1014008581+1017838097+1022748686
1088+1026025617+1027265979+1027921666+1027336066+1023981518+1019857869
1080+1017155765+1014753238+1012248420+1010782043+1009873696+1007687106
1071+1003849828+999929026+998216361+1000862048+1007256043+1012759879+1012853251
1061+1008293443+1003457690+1000310506+997689146+995263914+993689685+992634213
1051+992006097+992671631+993707177+992061471+987961455+985712077+986877949
1041+988581578+989235180+990722293+992846559+991635390+986390470+982406416
1031+983286728+985616736+984314976+981305880+983271089+991768729+1000099319
1021+1001063388+995389375+988267868+982768202+980741132+984615364+994056221
1011+1002822275+1003746262+997340450+989752548+984110856+978460243+970238375
1001+960672868+954246262+953125859+953624170+950287810+942651600+934883557
991+929873456+926397154+921453491+914633473+909053468+907181226+907503567
981+906814168+904512775+902290968+900140000+896375879+891045581+885795215
971+881530814+878976008+879151051+881116608+881654132+878807858+874062870
961+870033462+867556331+865644759+863430829+861143163+859529083+859303358
951+860847930+863903017+867735313+872048253+876793878+880918801+882955892
941+882992499+883086566+885328994+890147775+896392793+902468559+907595607
931+912142729+916602852+921117712+926190891+931718533+935905201+937132530
921+935985598+934210435+932976619+933038075+935131988+939469662+944685447
911+947309240+944287690+937688359+933888963+936678299+943352757+948745612
901+951134469+951561303+950375853+947556339+944427574+942868289+943275430
891+943980236+943382703+942462829+943070035+944331422+943903314+942607347
881+943594064+947516024+952538926+957509176+961688720+963559109+962996967
871+961892898+961067439+959901798+959036545+960528524+964865966+969559228
861+971761747+970912308+967696717+963406772+960505818+961322010+966197208
851+973324797+979079439+979374151+974292921+969777134+971459853+979264098
841+988289878+992872624+990309187+982660350+975195708+972581415+975923567
831+981926698+985391763+985578622+987441539+993468535+999991698+1001347905
821+995616317+987220274+983679214+989041950+1001000831+1014314298+1024468302
811+1029775779+1032588052+1034539128+1033396309+1027223927+1019081007
803+1013321731+1011397879+1012746557+1016644769+1020720226+1020342684
794+1014009045+1005849791+1000511151+999857780+1003434173+1008835717+1012596652
784+1013263692+1012690024+1010828497+1003897788+991877972+981485673+977762967
774+978030455+976094440+969767982+963191009+960514391+960200796+959748128
764+961127910+967122469+975418016+979568772+977098939+973031128+974014891
754+981616000+990679083+996588147+1001252564+1006381639+1010689945+1012476752
744+1010439718+1004361056+996704341+993269628+997978877+1007161397+1012438175
734+1010999601+1005997610+998567026+988146693+978352738+974984636+979066349
724+986928806+993911182+996047263+991914811+984673171+979738602+980372163
714+986271265+994359505+1001642154+1008499417+1016366623+1022839509+1022357243
704+1013134177+1001674707+997380301+1000529455+999413975+989815105+981065616
694+978154989+977548652+975219688+972731898+974791521+982524926+990627647
684+991245106+982913705+974293153+974901227+986244273+1000899234+1007025742
674+997570057+975749566+951722618+934514356+930611858+942557938+960390609
664+970186360+967457901+955238018+943042058+941288789+952284992+967962525
654+976776656+976062582+971077562+963265729+953763185+948264157+947017250
644+944077430+936981641+928341279+920422116+913237704+908072833+909492119
634+919461580+931677234+937208062+938292610+941977435+943880029+938009541
624+928294767+917893606+911291031+911767910+914193780+910577478+901291392
614+894100435+894911298+905801444+925075064+943138152+943822685+923645758
604+900889523+892408796+897550614+902445448
##END=
