##TITLE=<SNM>
##JCAMP-DX=4.24
##DATA TYPE=INFRARED SPECTRUM
##DATE=29/4/2025
##SAMPLING PROCEDURE=Instrument type and / or accessory
##ORIGIN=Admin
##XUNITS=1/CM
##YUNITS=ABSORBANCE
##RESOLUTION=4
##FIRSTX=4497.3318
##LASTX=599.83466
##DELTAX=-1.4281778
##MAXY=2.1722908
##MINY=0.59646833
##XFACTOR=1
##YFACTOR=2.0231035e-09
##NPOINTS=2730
##FIRSTY=0.60353124
##XYDATA=(X++(Y..Y))
4497+298319514+299632133+301613570+302387477+301251836+299624768+299520325
4487+301124383+302493570+302064898+300749273+300576861+301939125+303205902
4477+303045481+302176971+302079599+302702396+302593888+301124884+299325051
4467+298316214+297960696+297689734+297949618+299660653+302418442+304320449
4457+304239605+303338598+303195796+303516048+302990505+301565753+300329528
4447+299643329+298933236+298009544+297312768+297154587+297542601+298518559
4437+299942751+300994249+300745679+299470475+298623885+299177476+300506300
4427+301199658+300541330+299006361+297667373+297201903+297440044+297871485
4417+298116255+297945170+297385215+297038094+297766129+299409813+300460251
4407+299918975+298834097+298947378+300558271+302560242+303830407+303927602
4397+303089468+301996281+301016081+299782979+298105207+296710506+296415562
4387+297075658+297864503+298260236+298377289+298556859+298963405+299493456
4377+299901622+299868566+299109537+297738612+296293266+295241237+294828386
4367+295214868+296266985+297329738+297770048+297709503+297784572+298305490
4357+298931410+299084789+298677241+298354573+298740702+299672467+300554235
4347+301159561+301463549+301134606+300089649+299125328+299050436+299586791
4337+299874164+299597516+299011487+298382385+297822490+297382505+297140769
4327+297229067+297660537+298069853+297856194+296885982+295865831+295531703
4317+295801339+296173326+296473543+296733162+296801367+296614902+296446851
4307+296486330+296529462+296338637+296069207+296165459+296952271+298301159
4297+299536912+299806372+298925576+297916150+298055681+299224497+300040005
4287+299890191+299688258+300109388+300439333+299835156+298672557+297969358
4277+298033673+298203699+297794089+296837281+295889695+295545550+295985182
4267+296600672+296654086+296526192+297223351+298617846+299513637+299393079
4257+298790198+298198071+297761680+297673206+298019797+298546459+298988595
4247+299431762+300145096+301007006+301316622+300618226+299505241+298845764
4237+298481702+297622207+296308792+295454453+295482059+295842497+295992989
4227+296178010+296930381+298093216+298745534+298301954+297408903+297254640
4217+298097252+299020886+299140266+298563429+298101436+298390134+299300274
4207+300094922+300311291+300165808+299820012+299105441+298396350+298498112
4197+299216454+299319984+298224882+296714307+295852396+295938514+296532615
4187+297070708+297295651+297167992+296731837+296229009+296026576+296429380
4177+297589239+299299655+300862201+301583430+301484909+301191409+301092976
4167+300813353+299752132+298272934+297753225+298868390+300554352+301329527
4157+300762030+299146187+297097902+295799630+296218491+297895114+299385802
4147+299805399+299402300+298908252+298721022+298627656+298355104+298263153
4137+298921746+300067699+300706966+300435267+300023742+300279443+300861936
4127+300852802+300051407+299023419+298295973+298122030+298620379+299617137
4117+300594951+301023859+300758760+300218839+299961401+299955449+299676267
4107+298920892+298071709+297578221+297537239+297781538+298126832+298535411
4097+299092950+299794410+300474069+301007831+301426751+301720369+301649160
4087+301020382+300125946+299542923+299528987+299864176+300150075+300126682
4077+299887186+299781358+299865796+299714627+299034851+298117581+297547845
4067+297795326+298942487+300339869+300822309+299816860+298034970+296741972
4057+296543633+297038683+297473866+297532761+297513198+298002709+299418740
4047+301564015+303596361+304666391+304455090+303098601+301278057+300163127
4037+300238608+300536440+300042686+299134344+298532583+297981437+297116669
4027+296483472+296679424+297387425+297927286+298091124+298110392+298271314
4017+298696332+299251809+299644743+299745798+299763740+300019205+300609829
4007+301277350+301611979+301522974+301494573+302002321+302602461+302354156
3997+301332885+300661123+300779089+300847146+300160122+299053647+298219962
3987+298055387+298689703+299809259+300405805+299643034+298116962+297382564
3977+298262328+300300302+302469470+303647272+302951468+300574180+297907223
3967+296331949+296347034+297805166+300125622+302241758+303162946+302813085
3957+301927310+301157498+300544659+299894109+299429700+299650253+300452208
3947+300971799+300734424+300273491+300163804+300268895+300369832+300692500
3937+301392487+302248063+303193439+304289366+304888328+304056381+302202397
3927+300920064+301065665+301918737+302395344+302560419+303226289+304498605
3917+305449785+305147388+303690758+302113599+301442779+301908749+303145357
3907+305061359+307833908+310914188+313051744+313696254+313087422+311308596
3897+308642816+306189841+305301268+306506057+308671012+309829251+309848018
3887+310412303+312100151+313378065+313241155+312709661+312457554+311857974
3878+310848724+310296135+310530799+311155777+312036336+313197492+313988576
3868+314102741+314256061+314574251+313965448+311995561+309770769+308375979
3858+308489113+311343184+318005629+325208613+325824163+320230981+314103419
3848+310614766+310308980+312256241+314870638+316919189+318231161+319219492
3838+319712804+318956132+316998619+314962265+313752026+313286497+313095878
3828+313005341+313117061+314043964+316811682+320995667+323462843+322396791
3818+319980525+317878383+315302109+311893063+309042468+308315464+310280579
3808+313697138+316039425+316805112+318004745+320184373+321305342+320849330
3798+320506981+320328825+318851247+316113787+313822911+313117414+313834490
3788+315451393+317747424+320439248+323145390+326088289+329708018+333339532
3778+335812011+337543905+340170941+344701841+350985523+357796722+363253111
3768+366585526+368865855+371161945+373488529+375656489+377891210+380371644
3758+382872878+385340702+388535265+393937798+402369848+411404071+416939124
3748+419408215+422759398+428867545+434282658+435457631+434886629+436852863
3738+443233710+452116734+459004563+461444134+460956862+460285718+461363938
3728+464980721+470265288+474319169+473998121+469023406+462586375+458280977
3718+456801101+456661953+457599462+461142855+466982044+470855411+469697791
3708+465600012+462126768+461209970+462601489+464281382+464747588+464906801
3698+466222278+468783261+472027203+475735936+479661451+482884828+483948082
3688+482237549+479125744+476579168+475593282+475961026+477150112+479532997
3678+483681952+487952909+489238158+488286389+488446986+489531393+488185511
3668+483517259+478044136+473748195+471347957+470747433+471012208+471294748
3658+471554839+471676517+471294513+471567684+475363390+484055412+492946509
3648+494193281+488499900+482601257+479769754+479155236+478956750+478552473
3638+478306966+478514202+479126952+480325760+482972448+487686012+492847251
3628+495069834+494140662+492647205+492261930+494091166+498331629+502237758
3618+502364740+499707504+497627076+497395740+498635854+501083850+503871249
3608+505031403+504029695+502965411+503757820+506001056+507976835+509075650
3598+510341101+512592409+515116653+516296370+515543262+514271212+514313460
3588+515698645+516745606+516696581+516502545+517042053+518115412+519006931
3578+519554099+520069154+520220470+519477145+518921433+520580201+524429881
3568+527712712+527986061+525459990+521379623+517282168+515403200+516811895
3558+520129669+523172679+524769283+525119586+525107860+525223469+525424046
3548+525897088+527087765+528670404+529366001+528376019+525964909+522780422
3538+519803230+518154184+518094965+519007933+520311508+521489575+521870931
3528+521470307+521174744+521239737+520769642+519019187+516327246+514037814
3518+513697764+515515981+517697405+518396184+518001335+517772945+517348516
3508+515984898+514985017+516374208+519595759+521601472+520866454+519123542
3498+518371908+518623867+518927089+518916247+518757329+518451750+517821322
3488+517001454+516699763+517638068+519472313+520561522+519598233+517390470
3478+515776955+515451400+515854970+516207277+516037576+515291834+514279166
3468+513260725+512015013+510206401+508203987+506876843+506515580+506404037
3458+505567670+503803486+501891285+500755762+500463970+500328091+499850925
3448+499010316+497874026+496682937+496071424+496649998+498284608+500003361
3438+500789054+500463734+499550590+498315779+496636446+494861832+493720505
3428+493017365+491715734+489686658+488134689+487986407+488980425+490586221
3418+492821030+495613349+497976495+498716108+497938842+496837318+495924762
3408+494627845+492714643+491034043+490566187+491462420+493059407+494380188
3398+494680111+493916869+492995710+493083183+494121600+494636979+493736591
3388+492282436+491395100+491377452+492358536+494090046+495217144+494592137
3378+493147646+492967987+494766965+497427146+499739205+501473102+502622591
3368+502825171+501951270+500524839+499279422+498776623+499278538+500406225
3358+501391610+502206529+503665074+505954741+507842548+507851445+505989035
3348+504021446+503685049+504610509+504832122+503738257+503109715+504473157
3338+507013546+508806838+508844844+507262912+504891930+503097282+502765835
3328+503173294+503116374+502987566+503969298+505496195+505682041+504286309
3318+503141475+503434504+504462786+505234396+505745915+506321366+506879907
3308+507244116+507492480+507808666+508195031+508225553+507234452+505223495
3298+503302102+502717871+503674325+505263563+506271281+506188493+505673144
3288+505710619+506350298+506993748+507721223+509013779+510301327+510261259
3278+508712972+507020794+506374103+506708733+507495014+508521528+509629358
3268+510687279+511795698+512718035+512610852+511245819+510037289+510652573
3258+512892862+514826334+514665060+512048894+508105054+504757937+503398266
3248+503743973+504406396+504657825+504892755+505497668+506291669+506879023
3238+506745206+505372514+502941487+500514586+499132406+498995703+499603857
3228+500367394+501075130+501739497+501971245+501132521+499413120+497993759
3218+497816398+498720587+499639093+499344533+497577579+495495442+494281461
3208+493707571+492926475+492011739+491642963+491982365+492743368+493713876
3198+494729902+495697728+496668795+497357557+496898481+494757891+491730436
3188+489484549+489094649+490153807+491309660+491583303+490908240+489582451
3178+487885028+486158202+484689198+483621407+483090532+482966556+482488241
3168+480957573+478872548+477629134+477964294+478993283+478916829+476867512
3158+473962502+472188272+472433896+473927059+475431859+476475403+477039895
3148+476698371+475004543+472468160+470199028+468711404+467806007+467285738
3138+467093322+466982515+466597241+465899051+465254747+464949491+464802240
3128+464561359+464329640+464129387+463627060+462811553+462148570+461648011
3118+460769837+459556710+458861732+459152345+459741791+459617373+458711328
3108+457802544+457387483+457271167+457140121+456836574+456143775+455001416
3098+453879091+453430415+453819136+454573009+455030819+454904987+454379916
3088+453649582+452676011+451639980+451209040+451855347+453041310+453566617
3078+452816456+451317136+450047206+449578761+449857029+450386461+450619771
3068+450396272+449908794+449337673+448747432+448119597+447322916+446394127
3058+445799260+445966191+446728579+447559878+448054545+447962624+447206276
3048+446106843+445248969+444951992+445008323+444969993+444615271+444067455
3038+443538641+443116157+442719186+442137135+441259993+440380935+440017021
3028+440315618+440889037+441279585+441351266+441129005+440571171+439762970
3018+439011896+438491833+438092299+437758789+437581133+437429345+436934737
3008+435958338+434740261+433553238+432519770+431732487+431221322+430835399
2998+430456990+430237822+430309297+430458404+430498443+430653118+431022159
2988+431041132+430188591+428881628+427976673+427736882+427790827+427772885
2978+427591193+427293568+427019689+426963446+427126047+427147996+426644049
2968+425726043+424882929+424308214+423799936+423428450+423568129+424014125
2958+423955407+423179496+422426124+422219684+422191312+421737509+420702833
2948+419434436+418546599+418432699+418921562+419656520+420494508+421216857
2938+421440620+421173312+420838771+420541941+419927924+418867028+417705076
2928+416717304+415808756+414966762+414576184+414831590+415126210+414691262
2918+413704875+413014257+412948674+413136023+413287988+413480051+413720107
2908+413795029+413614663+413389750+413300068+413212271+412948586+412640885
2898+412529548+412541421+412406751+412049171+411577042+411072241+410594839
2888+410210713+409850334+409264424+408284194+407143338+406401750+406411561
2878+406932154+407387135+407375174+406849366+406093253+405661517+405969307
2868+406692510+406875057+405996883+404682083+403924380+403922111+404173540
2858+404391912+404668590+404991169+405252998+405453310+405420106+404784081
2848+403585921+402408355+401721183+401541936+401672247+401819468+401623252
2838+400980303+400230966+399742398+399475708+399172456+398747585+398267001
2828+397778492+397432579+397536727+398189870+398977123+399267353+398830992
2818+398057733+397539585+397470879+397481810+397067574+396183302+395329759
2808+394944632+394841810+394520144+393951409+393570437+393488503+393301596
2798+392774462+392236162+392173349+392681745+393332060+393539619+393198921
2788+392796087+392659708+392424189+391597515+390412495+389608565+389437804
2778+389359995+388802279+387856491+387074128+386862473+387207590+387759237
2768+388062695+387867834+387341525+386898181+386788317+386902305+386930648
2758+386667670+386186792+385695248+385221028+384636325+384018537+383637593
2748+383492022+383247517+382749521+382217025+381868755+381682967+381512795
2738+381256181+380969781+380834403+380902195+380964714+380809095+380494176
2728+380252352+380178020+380108872+379874826+379560231+379313693+379020164
2718+378467840+377743134+377154218+376859186+376763611+376665768+376441651
2708+376201742+376180293+376363105+376421823+376136248+375668097+375281408
2698+374969229+374539968+373986436+373537406+373305098+373136605+372923801
2688+372804569+372940565+373312405+373746498+373960568+373714797+373087168
2678+372405506+371857955+371430638+371147420+371049636+371045570+371035376
2668+371033491+371030044+370928164+370691967+370370626+369984232+369556974
2658+369187727+368934413+368717189+368488623+368402300+368616783+369005063
2648+369257640+369198215+368826700+368216984+367584023+367251691+367352982
2638+367662274+367763564+367375844+366627421+366017087+365932767+366232454
2628+366458280+366382651+366180277+366111159+366155499+366028665+365580608
2618+365040245+364716046+364602941+364473780+364252255+364116406+364225062
2608+364436540+364451624+364267929+364242091+364578988+364995551+365042691
2598+364611338+364008251+363611162+363536948+363649669+363805582+363967240
2588+364099583+364099200+363885394+363527166+363233430+363174005+363333630
2578+363563905+363711451+363708564+363633494+363617585+363618734+363469480
2568+363182019+362925110+362740826+362603327+362606803+362773440+362889786
2558+362797216+362622624+362552416+362578520+362575043+362480028+362325559
2548+362159865+362004600+361911707+362000800+362316367+362669469+362774766
2538+362572716+362268845+362020598+361796333+361603829+361561580+361629579
2528+361606981+361524606+361704471+362306615+363053152+363469244+363317574
2518+362835605+362506721+362524575+362653530+362682403+362693981+362770229
2508+362776445+362571243+362188355+361773766+361507223+361525372+361783017
2498+362063966+362206297+362242034+362287671+362389285+362525842+362700286
2488+362923578+363082614+362948150+362447826+361861120+361595521+361803021
2478+362320020+362875084+363199814+363081436+362556865+361996086+361796923
2468+362031676+362464649+362811122+362943465+362949358+363000975+363120738
2458+363155061+363005218+362743359+362506397+362418158+362531646+362711924
2448+362716579+362495142+362255027+362190240+362326738+362618323+362972868
2438+363194629+363119795+362822524+362527138+362362799+362360383+362564525
2428+362923578+363197428+363218493+363131904+363211687+363581347+364160717
2418+364693389+364847004+364500384+363920160+363522894+363512258+363815363
2408+364269549+364753993+365198692+365612073+366067673+366517086+366720757
2398+366588266+366441339+366721935+367619878+369124826+371273046+374335030
2388+378924677+385818104+395515988+408106037+423628379+442353091+464467552
2378+489481986+516083831+542781634+568683492+593315185+615710418+634556190
2368+649814316+663329884+676578350+687584110+691356953+685463496+673422029
2358+659228423+642873485+622229060+596253782+567754909+543331748+528933087
2348+527274554+538290744+558484342+580068605+595171408+601790868+603274102
2338+603746083+604874182+606224955+607366961+608071397+607531418+605231085
2328+601699005+597414997+592092866+585328276+577276905+568580198+559753623
2318+550853216+541932127+533433051+525684608+518256358+510281529+501398681
2308+492052426+482869685+474051389+465482959+457251605+449770706+443317087
2298+437677209+432426376+427382838+422578973+417997634+413622175+409595341
2288+406072807+403029855+400409742+398354975+397081775+396527271+396250534
2278+395767711+394972827+394139465+393519674+393072676+392617754+392122763
2268+391726381+391522976+391423718+391211356+390661743+389697717+388582935
2258+387817424+387589801+387489100+387026016+386263864+385678454+385567088
2248+385803432+386081111+386262008+386416683+386564759+386616612+386631874
2238+386788847+387004774+387004126+386822581+386767428+386858849+386777062
2228+386360175+385781395+385293917+385034651+384919867+384629785+383945559
2218+383091073+382458996+382151619+382073810+382193809+382412564+382479001
2208+382298988+382088394+382070275+382217585+382356557+382385164+382337966
2198+382268230+382167028+382107927+382355496+383100472+384154975+385120503
2188+385793474+386251078+386656003+387123476+387651612+388063785+388172412
2178+388086500+388150286+388492339+388874078+389063578+389118200+389218842
2168+389460931+389889957+390544219+391332651+391951029+392062189+391650458
2158+391126948+390943989+391144772+391432793+391607296+391713212+391810024
2148+391863763+391916735+392136139+392581162+393065871+393381114+393564574
2138+393825607+394270335+394816679+395330024+395763881+396218981+396886295
2128+397869824+399106844+400521491+402126816+403870612+405540547+406963001
2118+408194865+409434272+410785163+412132342+413270606+414152138+414875842
2108+415430051+415676648+415618932+415451058+415328201+415252042+415137081
2098+414922038+414704020+414732686+415133782+415702516+416102344+416208083
2088+416150367+416072470+415940068+415636108+415200601+414826169+414555001
2078+414148838+413413025+412551497+412003387+411925312+412014936+411928995
2068+411710917+411636644+411776794+411943048+412021712+412133962+412425282
2058+412850036+413246535+413540448+413804633+414181894+414801097+415696122
2048+416764620+417831026+418728556+419348377+419747204+420193936+420934110
2038+421916903+422894658+423730995+424491851+425318053+426300434+427446417
2028+428728101+430161574+431823407+433768193+435952946+438286041+440714209
2018+443142938+445298111+446911685+448088073+449215141+450496590+451824619
2008+453076547+454281100+455516912+456812503+458118229+459292289+460153905
1998+460648189+461024831+461754604+463066193+464631390+465958034+466967195
1988+467863105+468698794+469432987+470184061+471146348+472366340+473736293
1978+475191597+476857967+478872990+481086145+483223022+485364408+487864198
1968+490725547+493464775+495717173+497596317+499345652+501053269+502828471
1958+504872190+507190200+509513514+511631889+513607139+515628584+517859976
1948+520455577+523583379+527285160+531149040+534269182+536073199+537057642
1938+538147794+539743396+541678636+543731842+545978318+548666017+551719693
1928+554633425+557181827+559731880+562500305+565267964+568081466+571208973
1918+574230182+576310670+577472179+578460629+579601809+580648063+581448310
1908+582259280+583395865+584803028+586092756+587021633+587846392+589096995
1898+590978908+593053916+594606150+595421894+596008776+596864470+597840546
1888+598526657+598969411+599506091+600160854+600605553+600613861+600404446
1878+600480458+601062155+601833529+602485287+603280584+604645204+606276514
1868+607136922+606654393+605340389+603928571+602722515+601788747+601135633
1858+600555586+599675203+598344346+596838956+595695242+595304576+595534262
1848+595956039+596447701+596871777+596257730+593796417+590397034+587634855
1838+586111553+585319791+584632090+584284320+585020811+586630025+587434573
1828+586230815+583762490+581176493+578803330+576703928+574978163+573487799
1818+572064903+570890489+570274616+570212392+570297950+570020005+569301781
1808+568653912+568538244+568908464+569520802+570272671+571031789+571469123
1798+571440839+571436773+572338133+574515315+576879757+577542181+576389981
1788+575216569+575300006+576429578+577801034+579084869+580270361+581277430
1778+582383315+584402345+588015504+592930529+597317949+599043066+598269159
1768+596799359+595917916+596258025+598022974+600374336+601750387+601934524
1758+602241047+603437439+605321828+607874355+611339615+615123536+617695862
1748+618364943+618099078+618144214+619042392+620809876+623087523+625092706
1738+626628795+628911509+632897598+636812330+637589301+635693481+633550593
1728+632505518+633014739+634815043+637112960+639745565+643728060+649895867
1718+656925733+661142214+660513378+656935337+653007701+650414398+650275338
1708+652868464+656964387+660411380+662761504+666044924+671517724+676555723
1698+677778808+675861835+672779463+669948932+668854478+670206371+673373416
1688+677486015+682809383+689158441+693012069+691653930+688229564+686261562
1678+686959045+690253013+694597831+697729758+699475262+701207745+702639303
1668+702177280+700670005+700973404+704347921+708899680+711450440+711536174
1658+711485028+713773576+719837796+728226389+732490010+730941252+729792942
1648+731583582+733624178+732296032+728679220+726267697+726582705+729333688
1638+733465437+737170400+737983550+735866530+734005063+734514461+737041945
1628+740064863+742761401+745553631+748483802+750714487+752561518+755937154
1618+761607172+766783761+767714406+765919169+765568513+768011383+771596494
1608+774049381+774870369+775191858+775929173+776932000+777530432+777440868
1598+777160331+777583051+779189024+781523415+783536140+784367557+783771836
1588+782331970+781479870+782460306+784918673+787289892+788915015+790836408
1578+794022839+797501828+799103735+798899623+798901862+799893670+800980110
1568+801106561+800406368+799522449+799092363+800558863+806211616+816320789
1558+824014316+823409991+818913621+814678519+811771741+810419141+810368585
1548+811384728+813962416+818411824+823664307+828303156+831596888+831835530
1538+828457595+824981258+824671612+827729884+831174521+832109939+831241164
1528+830788628+831900523+834793690+839697637+846081048+851174966+852784710
1518+852828844+854021053+856526441+859086452+861306118+864008607+868429791
1508+875226140+881873118+883197375+880293307+878378396+879440088+882342801
1498+885220765+887602826+890135319+893299418+897409307+902030949+905187506
1488+905511883+904691013+905124458+907541814+911355844+915430732+918897877
1478+921856921+925047713+929229901+934975106+941551551+946045859+946506998
1468+944191227+941262175+939232952+939142739+941542771+945928718+950564149
1458+952729134+950937256+947725074+945527623+943653605+941201484+938863027
1448+937931086+938653847+940031136+940821955+940616899+940093595+940258700
1438+941071498+940981049+939500643+938972744+941033550+944163474+945255571
1428+943242374+940044983+938019472+938391517+940936090+944020819+945529391
1418+944713176+942665096+940608944+939099371+938284570+937747184+936805756
1408+935810530+936233898+938838691+942527214+945327635+945644764+943165773
1398+939626093+937509956+937549789+938676061+939768983+939984998+938770575
1388+936978697+936414559+937444727+939411491+943036023+949017513+955479823
1378+959715690+961821044+964154845+967853326+971803353+974528057+975445621
1368+974600474+972800583+971845366+973268262+976494468+978821847+978452747
1358+976912533+976757445+978712071+982384331+987708288+993589667+997232229
1348+997216909+995728371+996052217+999025521+1002794298+1005438099+1007216306
1338+1009148541+1010346583+1009931169+1009810611+1012349173+1017398133
1330+1022839054+1027503594+1032214919+1037801736+1043222270+1045938901
1321+1044652119+1041631559+1041218619+1045047028+1050384361+1053589825
1312+1053680332+1051830473+1049222262+1046966888+1046918099+1050856931
1304+1058570197+1067191599+1072893200+1073741823+1070622859+1065616325
1295+1060656695+1057380286+1056124616+1054962753+1052318364+1048973250
1287+1045640039+1041617653+1037213911+1034591205+1034821833+1035869501
1278+1034508240+1030105559+1025593632+1023671650+1023460113+1022749019
1270+1021346628+1019487105+1014952199+1006072121+995913746+989660852+989274664
1260+991897370+993366581+992894010+992419437+992077795+990184568+986722314
1250+982624034+976601591+966816441+955078432+945515779+939619611+935093425
1240+929105630+921041060+911793237+902136836+892798093+884859090+879054431
1230+875133924+872304395+869850801+867074952+863364215+858904436+854772687
1220+851972384+850629920+849925248+848633517+846205495+843447264+841983829
1210+843011580+846331946+850329348+853084044+854118985+855160348+858268587
1200+863582528+869604735+874665420+877703716+878921498+880048419+882589810
1190+885837169+888139977+890039391+893912581+900319738+906924526+911479762
1180+914098166+915898529+917355778+918937238+921868588+927230787+934487863
1170+941561686+947213732+952327685+957747924+962587821+966062686+969225194
1160+973104218+976510023+977474314+976457994+976277038+978999915+984059480
1150+988959421+991834911+993240365+994284970+994184092+991780112+988263293
1140+986300595+987310964+990444659+993427272+994555195+994652302+996550007
1130+1001968773+1008742555+1012894102+1014470672+1016862514+1020888671
1121+1022844711+1018662759+1010017905+1003305169+1002853222+1007660593
1113+1013957916+1019167266+1022643780+1024766104+1027506422+1031439597
1104+1034680533+1036404649+1036963012+1034677587+1027776530+1019290417
1095+1014891507+1016860746+1022947239+1028940042+1030758672+1026856844
1087+1020927679+1019161609+1023288644+1029095720+1031760969+1031342019
1078+1031254340+1032663684+1032424924+1027064139+1018475499+1011127444
1070+1006054915+1000771085+994429805+990331760+991062653+994774510+998133176
1060+999550533+998819405+996468103+993658961+990962718+987499226+983042924
1050+979866333+980142038+982446555+983060601+981023187+979351161+980582377
1040+984075567+988126354+992181148+995363396+995601213+992400581+987947638
1030+985215628+986226115+990838978+996416367+998940670+995209605+985863143
1020+976186354+971197144+970787210+971534424+972054605+973602774+976600118
1010+979859203+981533587+979793503+974535717+968162500+962207526+955965945
1000+949424560+943817001+939498522+935885069+932767814+929663581+924999867
990+918159147+911082673+905685119+901472232+897589084+894749361+893185047
980+891234074+887951007+884502600+881551275+878198383+874389007+871706553
970+871137524+871364735+869784512+865132582+858615944+852728556+849415143
960+848826021+849580366+850163831+850013457+849724258+850564632+853431047
950+857504226+860762957+862744276+865457607+870718044+877808896+884319818
940+888714191+891669581+894723847+898611356+903447717+909241652+915508570
930+921106053+925951017+931588922+938588441+945133716+948631561+948228874
920+945839331+944281617+944499341+944928071+943542062+940140263+936283218
910+933537655+932023250+930534654+928915836+928900575+931317106+934063257
900+933937513+930614968+927486164+928111052+932777536+938370364+941717658
890+942858072+943580775+944075383+943776285+944238307+947978448+954492610
880+959484649+959744916+957534678+957837253+962700071+969506733+973738888
870+973311100+970134332+967348524+966331497+966317532+966675554+968350821
860+971514037+974232082+974837172+973344392+970435257+966990738+963967938
850+961437331+958869188+957254613+958470803+962117667+965856923+968711907
840+971879719+976672595+982409079+986341724+986123469+982262948+978649376
830+979980292+987458451+996919342+1002365685+1002286609+999710571+997878625
820+999555365+1006061397+1014501666+1018792392+1015479686+1007217721+1001213957
810+1003682518+1014104047+1025767340+1030932498+1028424222+1024299898
801+1022288351+1020388407+1016845072+1014302621+1016782259+1024743713
793+1033057885+1033296527+1022497295+1009194620+1002707091+1002734313
784+1001367395+993511180+982575421+974973934+972058966+971130383+971330135
774+972650916+972547210+969132094+965016373+964721046+968562417+972095970
764+972371675+971270622+972089017+975811598+980975282+985002264+986358988
754+986602816+988038734+989935438+989794020+987049165+983883475+982941162
744+983538298+982088238+978038747+974567948+973037516+973029208+976240977
734+983159770+989050635+989386856+986415202+986926485+993620543+1002027579
724+1004658181+997240007+984049404+974856853+975051832+982160243+991275958
714+1000746926+1009392958+1011604610+1004560014+996581826+996742571+1003519416
704+1008542096+1006567671+1000860649+998360505+1001904664+1007229505+1007971830
694+1005328972+1006236047+1010663712+1010172286+1001195455+989363640+979245333
684+969622518+961013314+958525249+963801773+971565065+975106219+972096972
674+966015429+962341931+961273993+957708799+952672331+956330508+966370328
664+972297077+971225722+968248470+970159610+976766991+980428880+976161135
654+969005054+966537495+969313521+968884672+957103473+939606648+927121483
644+924523761+929173393+933896090+933606184+928622041+922084309+917570673
634+917025568+921409924+927999568+929939934+924099862+912859584+906199054
624+912200461+925555343+935585381+935135556+926583330+917502027+907181670
614+890285104+868830650+854160880+856627614+876560179+900034900+906683527
604+896068079+886456342+891234074+910852987
##END=
