##TITLE=<SNM>
##JCAMP-DX=4.24
##DATA TYPE=INFRARED SPECTRUM
##DATE=29/4/2025
##SAMPLING PROCEDURE=Instrument type and / or accessory
##ORIGIN=Admin
##XUNITS=1/CM
##YUNITS=ABSORBANCE
##RESOLUTION=4
##FIRSTX=4497.3318
##LASTX=599.83466
##DELTAX=-1.4281778
##MAXY=2.1859045
##MINY=0.61628437
##XFACTOR=1
##YFACTOR=2.0357822e-09
##NPOINTS=2730
##FIRSTY=0.62204272
##XYDATA=(X++(Y..Y))
4497+305554647+306453234+308104629+308954730+308820195+308970599+310416693
4487+312794605+314799421+315437604+314757084+313501212+312287091+311171727
4477+310001407+308901999+308159760+307974896+308553878+309955820+311650108
4467+312700152+312684371+312061266+311505356+311288226+311276603+311209262
4457+311153838+311709134+313022362+313886254+312999935+310917004+309388549
4447+309014341+309016098+309031118+309476268+310234376+310505700+310111289
4437+309886694+310592042+312000367+313202454+313744692+314097264+314586156
4427+314557697+313455157+311936540+310911851+310314101+309630302+308747058
4417+307832954+307309630+308032164+310423369+313232611+314140391+312198202
4407+308957014+306553922+305506455+305109497+305340124+307039887+310060989
4397+312520558+312642298+310678472+308265573+306592716+305979303+306464096
4387+307696135+308575983+308159292+306843135+305731899+305164570+304588310
4377+303607715+302726081+302840882+304129634+305765160+306951261+307864194
4367+308955901+309954064+310295480+309930407+309209658+308556103+308402303
4357+308932127+309795813+310306108+309961940+308812993+307401242+306365837
4347+306017101+306277182+306780362+306955887+306496917+305815782+305552042
4337+305750081+305870709+305537783+305028513+304872341+305269006+306044359
4327+306891445+307513291+307662728+307254820+306523648+305809399+305146886
4317+304495176+304252105+304874654+306068514+306997521+307162242+306618247
4307+305827816+305593236+306562472+308673393+311252624+313372416+314108273
4297+313030355+310737849+308653630+308034887+308989893+310457537+311291769
4287+311257337+310884124+310706199+310859823+311150061+311364702+311581831
4277+312005286+312417381+312242647+311366898+310495218+310269598+310315390
4267+309857298+309157659+309343724+310494515+311005162+309637914+307287437
4257+305680662+305255567+305317609+305452407+305820965+306579365+307704187
4247+308990128+309818446+309511139+308212549+306886380+306352691+306770086
4237+307865599+309256152+310512522+311091592+310596434+309291081+307955953
4227+307181214+307113200+307511944+307882551+307933027+307931124+308204234
4217+308451667+308052425+306802175+305224766+304432695+305230564+306990113
4207+308070227+307708227+306775268+306466614+306967598+307470925+307130387
4197+305936644+304656881+304000047+304121377+304823944+305830421+306768270
4187+307183352+306870042+306119839+305451909+305157162+305165477+305100479
4177+304645081+304165617+304417470+305469213+306691648+307761778+308801808
4167+309727009+310265938+310294660+309768057+308802394+307816792+307223932
4157+307108691+307244690+307283660+307071683+306716594+306280637+305907863
4147+306051621+306708162+306877538+305840493+304410766+303888203+304534614
4137+305756757+307097536+308404909+309358802+309542144+309091021+308693156
4127+308722961+308923314+309037500+309050354+308696201+307495607+305609544
4117+304137568+304093065+305230944+306291792+306465384+306170725+306265851
4107+307105354+308482380+309858118+310500810+309992916+308811119+308014041
4097+308289698+309441339+310676452+311221559+310702129+309298108+307771498
4087+306989704+307162417+307773577+308274590+308440248+308104629+307222995
4077+306300166+306039353+306314629+306116033+304901532+303563622+303550593
4067+305169049+307138175+307910366+307248350+306277504+306121069+306800682
4057+307460180+307424489+306811661+306222812+306199213+306805717+307499091
4047+307669609+307374423+307170528+307296191+307539671+307806164+308282964
4037+309050295+309820612+310046174+309353854+308060184+307052799+306972283
4027+307625369+308263084+308371590+308141315+308045925+308195948+308337246
4017+308195685+307590615+306588822+305635222+305066018+304660745+304272922
4007+304461564+305696092+307451045+308806581+309535528+309951458+310051766
3997+309573033+308695235+308025548+307946203+308375835+308985385+309468041
3987+309792154+310099724+310216370+309753564+308928116+308512010+308747380
3977+309037207+308906655+308628626+308606989+308652312+308240100+307379869
3967+306830985+307251366+308403592+309422893+309714770+309350780+308685456
3957+307974779+307498300+307620977+308393988+309351014+309978745+310126455
3947+309781818+309021866+308398643+308670289+309844035+310979016+311186805
3937+310496506+309794232+310049189+311295926+312458166+312663525+312334874
3927+312357418+312856002+313161552+312641039+311366166+310068894+309607260
3917+310090092+310610985+310320338+309334618+308312711+307769946+307928811
3907+308833985+310483712+312788691+315283102+317108879+317680249+317112481
3897+315946201+314842987+314516034+315430987+317081885+318007056+317580000
3887+316741551+316351767+316077515+315452331+314953543+314835433+314321215
3878+313131600+312395978+313205734+315403495+318029337+320022646+320512505
3868+319649404+318548650+318149232+318551255+319050981+318869952+317949934
3858+317252198+318337698+322050826+325959652+325620461+321796308+318014346
3848+315842057+315246094+315688257+316682262+317967120+319448993+320836910
3838+321369047+320448004+318614497+317095470+316672161+317340707+318569408
3828+319575798+319767396+319696250+320953966+323965318+326223305+325482471
3818+323419391+322269507+321631441+320047328+317659842+316040829+316639340
3808+319280085+321860282+323023048+323828705+325099655+325643854+324772438
3798+323882255+324049552+324682348+324942254+325041039+325428482+325834282
3788+325968406+326504525+328281905+330969027+333686394+336362537+339386420
3778+342382664+344638309+346530461+349343920+353839223+359359215+364473906
3768+368700667+372618012+376306371+379203303+381159224+382501057+383383921
3758+383936494+384840585+386983537+390794250+396095064+402028439+407454623
3748+412385122+417752251+423262055+426615877+427102984+427359815+430151929
3738+436769807+446095184+454242775+457797477+457450293+456249904+456236963
3728+457877554+460442497+462355817+462818447+462596077+462351279+461797945
3718+460693853+459481049+458773388+458685348+458833438+459131201+459896599
3708+460783679+461074473+461162806+462479519+465461007+468527315+470165652
3698+470705342+471133072+471708014+472510625+474373060+477753262+480925675
3688+481545150+480017339+478257233+477088172+476541337+476916190+478853958
3678+482718076+487479462+490531365+490842068+489877693+488124116+484577465
3668+479962823+476562798+475501629+476222114+477304979+477710106+477589683
3658+477642355+477836267+477732884+477860392+479267429+481656554+482817740
3648+481563332+479512431+477890432+476325408+474807875+474519803+476373308
3638+479554651+482192117+483255863+483361968+483797047+485162918+486641277
3628+486885518+486426051+486667452+487600704+488187797+487996550+488000941
3618+489330302+491560387+493182884+493476079+493289926+493883577+495605504
3608+498104775+501022963+504044094+506736545+508945198+511232551+514005107
3598+516419354+517190491+516310965+515226899+515301969+516697558+518320699
3588+518255350+515579764+512004391+509929072+510167575+512224272+515306420
3578+518229058+519335609+517918530+515296289+513753488+514696080+517619714
3568+520103760+519849096+517428994+515322874+515159207+516828960+518817614
3558+519449151+518590354+517729801+518167690+519811209+521936418+524365480
3548+527185994+529721746+530746728+529812861+527462618+524342467+521270157
3538+519350893+518782714+518354370+517100606+515488005+514354751+513935015
3528+514164851+514980199+516347446+518230873+519910171+519646313+516300834
3518+511106712+506806813+505321808+506710955+509780806+512898380+514567079
3508+514340346+513348215+513288311+514699184+516588115+517712117+518024694
3498+518539351+519692104+520535384+520171218+519303637+519124570+519738540
3488+520689037+521693465+522098094+521006826+518512942+515686279+513397286
3478+511796748+510531214+509269310+508125751+507329610+506819461+506709023
3468+507458260+508769117+509264099+508284850+507086130+507228306+508497998
3458+509132756+507818678+504987096+502242003+501039418+501852716+503968263
3448+505973489+506784152+506058045+503787907+500676189+498561578+498693214
3438+499946803+500207791+499104343+498016296+497972553+498804063+499759947
3428+500090150+499353620+497592519+495270734+493114138+491817745+491627376
3418+492104440+492407707+492006006+491099514+490132592+489187423+488477302
3408+488922423+490933212+493068815+493466300+492231040+490863851+490044522
3398+489413131+488738964+488367625+488729478+489700675+490741555+491639732
3388+492774742+494361109+495708740+495806179+494471841+492605863+491685757
3378+492806714+495564631+498202800+499353796+499144045+498509814+498271370
3368+498801135+499918461+501008265+501402939+500902160+500272907+500923065
3358+503591566+507396599+510393195+511309143+510691953+510007539+509841998
3348+509546402+508551577+507210329+506285187+506142601+506452543+506366055
3338+505218045+503637357+503289412+504642371+505917040+505367424+503667280
3328+502708233+502996158+503551337+503752012+504044153+504838420+505665303
3318+505764147+505237251+505076571+505697744+506022267+504816285+502544332
3308+500867553+500753659+501752115+502798645+503379706+503698491+503995902
3298+504227260+504380504+504739576+505620741+506812200+507448715+506908937
3288+505831019+505452624+506050315+507082148+508423982+510315138+512508508
3278+514355278+515488590+515968933+515845788+514811379+512755794+510671926
3268+509926437+510395362+510377677+508776846+506449264+505038685+505226477
3258+506292214+507152417+507478520+507515177+507323344+506855650+506335956
3248+506004875+505899414+506115548+506815245+507865641+508903095+509781333
3238+510513003+510746645+509852245+507739099+505291124+503588813+502805497
3228+502230057+501334838+500336089+499548322+498905659+498481414+498786437
3218+499990955+501235876+501213742+499416510+496810197+495202808+495554267
3208+497069897+498320558+498797329+498829945+498570362+497824170+496601734
3198+495183601+493626336+491701334+489543655+487972161+487757169+488628819
3188+489474118+489597176+489201125+488619274+487835459+486887978+486139239
3178+485747229+485230727+484087607+482696937+481978998+482118979+482254743
3168+481663991+480642786+479746103+478901682+477807632+476516773+475231739
3158+473892424+472233153+470237120+468416613+467523531+467902043+469163127
3148+470496528+471263332+471314803+470808285+469880098+468694144+467721014
3138+467518202+468052271+468556037+468235291+467005038+465456059+464284978
3128+463886468+464237049+464852395+464944769+464032773+462483999+461145415
3118+460502723+460402532+460359873+459962037+459176612+458385448+458000055
3108+458032144+458140797+458055011+457891608+457982430+458393500+458759715
3098+458566038+457575488+456086500+454784222+454134152+453883440+453433371
3088+452590794+451635027+450903328+450668661+451062252+451771962+452204084
3078+452128135+451748188+451199861+450416544+449420109+448424288+447702134
3068+447412072+447394973+447270716+446920603+446627906+446503414+446112575
3058+445112978+444042849+443868905+444736222+445739772+446029541+445582752
3048+444818524+444112210+443735044+443731209+443890425+444054238+444160549
3038+443976533+443319231+442481661+441885199+441511313+441154789+440868299
3028+440664608+440182450+439170351+438006911+437245816+436947439+436831116
3018+436732652+436655884+436680771+436876527+437050529+436760408+435858426
3008+434806127+434229838+434256775+434298233+433598945+432201571+431046446
2998+430785048+430968916+430754949+429905931+428849270+428155663+427996827
2988+427926793+427447738+426763529+426431189+426468958+426490770+426433560
2978+426484680+426557701+426375852+425920074+425482594+425333303+425451618
2968+425601465+425617890+425505607+425287658+424907301+424283581+423448442
2958+422734925+422659269+423271248+423814598+423540903+422687757+422087226
2948+422012009+422011160+421708186+421174644+420533094+419682612+418567775
2938+417385714+416422393+415856029+415728492+416009302+416632524+417429280
2928+418068430+418233385+417884707+417212912+416413902+415613486+414803760
2918+413798512+412535174+411417673+411074968+411741171+412899662+413554271
2908+413103499+412011470+411291043+411346262+411657991+411536485+410882696
2898+410156414+409706901+409346863+408812530+408323199+408174171+408168140
2888+408046693+407999408+408143927+408106655+407696873+407315872+407216706
2878+407047330+406532643+405974097+405728158+405739723+405812948+405897388
2868+405967656+405933371+405755416+405496887+405203839+404758249+404003186
2858+403203736+403094820+404026199+405291352+405822025+405389523+404674161
2848+404364658+404573677+404890998+404692958+403641948+402111239+400891057
2838+400358540+400213699+400122526+400181288+400500746+400793501+400670854
2828+400053517+399193461+398495491+398241880+398356740+398551208+398648207
2818+398574835+398258481+397783906+397433530+397345870+397273552+396833409
2808+395949227+394937831+394137562+393610022+393302656+393294985+393674113
2798+394292709+394853304+395167111+395174138+394800339+394035321+393130762
2788+392440580+392033960+391746973+391553705+391511691+391412963+390936778
2778+390172873+389618514+389594798+389896981+390046770+389715806+388885731
2768+387798884+386892832+386585261+386862821+387180230+387007721+386405550
2758+385816291+385451773+385216286+385046383+384969527+384957289+384993594
2748+385135976+385268256+385012742+384171073+383088852+382354343+382212518
2738+382383650+382397821+382026365+381412541+380856777+380504966+380253318
2728+380016103+379961060+380211684+380485057+380442954+380234404+380224566
2718+380438826+380701308+380954918+381091620+380868459+380250068+379497669
2708+378823385+378205375+377535424+376826796+376283241+376091321+376132955
2698+376107687+375929791+375740184+375591127+375402280+375155024+374912510
2688+374701207+374505334+374330570+374187369+374047916+373875114+373650402
2678+373360457+373034528+372830018+372945375+373315485+373529540+373242025
2668+372605657+372119692+372037888+372081982+371839204+371319130+370872165
2658+370647716+370504046+370398497+370461183+370696377+370922670+370952095
2648+370649180+370013719+369333229+368989353+369047617+369239069+369268142
2638+368959079+368312229+367631972+367356374+367573825+367924757+368090971
2628+368103034+368060375+367886754+367567413+367371247+367553769+367936088
2618+368054139+367739453+367300774+367060719+366946592+366664640+366135665
2608+365616001+365405225+365515195+365691745+365766639+365849292+366093329
2598+366425522+366603418+366450819+366031200+365632953+365485126+365471892
2588+365316453+365029348+364902718+365060178+365292064+365397144+365456404
2578+365605139+365702080+365515781+365195093+365183382+365607540+366083169
2568+366185849+365865161+365390820+365068435+364975007+364919319+364731059
2558+364481664+364301397+364192305+364169087+364325961+364617546+364813273
2548+364801093+364716829+364658477+364521454+364265326+364084004+364117235
2538+364233061+364273026+364274782+364330002+364431774+364510621+364479849
2528+364300430+364090211+364057185+364277564+364626622+364924414+365102105
2518+365223991+365337533+365352612+365174481+364914254+364793510+364861963
2508+364971728+365013245+365017314+365005691+364901518+364655959+364354156
2498+364175675+364291296+364684681+365033271+364999718+364692938+364556969
2488+364780539+365087261+365106819+364757234+364296771+364095510+364273758
2478+364551874+364569002+364302129+364017951+363858442+363694541+363443478
2468+363292284+363405445+363605330+363621374+363524287+363623102+364011510
2458+364472412+364794886+364973250+365083718+365144588+365165756+365217609
2448+365340139+365427565+365294055+364883834+364404428+364195555+364399011
2438+364773044+364956913+364909599+364884683+364966165+364907666+364552460
2428+364159659+364106080+364436224+364914166+365392987+365909460+366465751
2418+366933592+367240255+367505782+367851180+368168120+368246703+368069686
2408+367831212+367712429+367766887+367970841+368257771+368537351+368779104
2398+369074055+369546259+370214160+371016449+372020204+373602209+376417073
2388+381165577+388345748+398173046+410664513+425728270+443211164+462963639
2378+484864746+508661196+533662515+558544788+581673630+602244117+621061876
2368+638915494+654022964+663082903+665712990+664977631+662444163+655960030
2358+643306858+625359608+603844128+579268109+553797924+532686604+520615841
2348+519501267+529046409+546158929+564170827+576741901+582893255+585734382
2338+588253094+590989345+592946144+594028512+594976432+595243979+593285014
2328+588962863+583628438+578217362+572798380+567249637+561339713+554591722
2318+546805340+538483513+530421971+523059249+516146654+508935653+500857657
2308+492053554+483172127+474775170+467006004+459667554+452542075+445697728
2298+439423288+433854137+428872078+424366088+420312773+416622248+413177691
2288+409993391+407151796+404706163+402760577+401413415+400504259+399642095
2278+398600337+397528422+396708273+396205385+395810477+395302641+394696078
2268+394125236+393570379+392903473+392156286+391518981+391075441+390711978
2258+390316132+389936390+389658186+389410461+389040000+388549878+388117991
2248+387893893+387897026+388087072+388421755+388823280+389155796+389297826
2238+389229022+389022023+388818010+388836456+389231247+389841118+390270107
2228+390279827+389893614+389195000+388341034+387629157+387216623+386917426
2218+386497865+385973399+385464978+384991281+384549908+384245704+384194613
2208+384328504+384412797+384330963+384250857+384372627+384622255+384783638
2198+384850774+385034233+385455082+386042145+386730160+387515117+388236861
2188+388579273+388486285+388340595+388478819+388763962+388883828+388851358
2178+388957786+389416697+390239686+391247218+392078347+392430860+392368145
2168+392193997+392108269+392197978+392562701+393175529+393779339+394111680
2158+394121781+393943299+393781652+393765461+393801620+393692558+393466616
2148+393413592+393714985+394222762+394702695+395106973+395450439+395637909
2138+395664055+395784799+396200349+396782171+397404017+398261321+399492775
2128+400750930+401553922+401901195+402225747+402875729+403875942+405055192
2118+406214357+407223235+408054832+408742848+409328418+409856807+410367424
2108+410865890+411336630+411759763+412093333+412287390+412346767+412343810
2098+412358713+412415337+412464437+412449388+412388021+412327121+412237324
2088+412062502+411849472+411711336+411688147+411725653+411773963+411849208
2078+411971973+412069412+412044262+411990009+412143867+412524312+412856945
2068+412986824+413118812+413494279+414027382+414428995+414577115+414608912
2058+414674174+414760018+414824665+414979343+415419019+416221132+417283415
2048+418424778+419510337+420499482+421387235+422134452+422717357+423212223
2038+423735049+424319477+424956401+425727392+426755858+427986726+429152361
2028+430080783+430972108+432205318+433848427+435514374+436823298+437902153
2018+439233534+441049445+443074726+444919242+446533805+448120055+449689646
2008+450985630+451927929+452846220+454080309+455624808+457304925+458978016
1998+460464309+461652021+462739805+464053326+465624410+467148678+468294053
1988+468970591+469424525+470091314+471231243+472731912+474300917+475760831
1978+477180341+478775228+480606979+482437178+484092233+485862059+488169234
1968+490878286+493367163+495380997+497324679+499535732+501790821+503756813
1958+505534018+507475417+509718091+512110262+514472392+516790722+519133588
1948+521454084+523681651+525987391+528549318+531029031+532927508+534540167
1938+536707655+539640130+542713787+545377720+547717658+550137350+552866926
1928+555758705+558486348+560970102+563386749+565780617+568057899+570217656
1918+572162686+573680132+574982732+576635679+578764050+580942312+582776434
1908+584069197+584758881+585238638+586157456+587508893+588595477+589203181
1898+590008867+591508336+593329400+594977896+596590673+598361437+599785718
1888+600267994+600155213+600276719+600758994+600977588+600595503+600140398
1878+600320871+601088436+601728698+601854069+601950688+602770310+604401239
1868+605928055+606219434+605191232+603728127+602525893+601430116+599951962
1858+598290114+597370535+597675324+598463970+598594845+597858256+596976330
1848+596636757+597040098+597819784+597899656+596415998+593978211+591811603
1838+590299017+588949922+587477507+586396017+586227022+586555585+586356199
1828+585326415+584126641+583148798+582008166+580289635+578185448+576226892
1818+574737847+573657470+572808042+572168951+571809236+571712909+571716481
1808+571553634+571127105+570827410+571265710+572473623+573617827+573890000
1798+573531280+573521208+574538460+576391438+577976810+578196984+577368754
1788+576699330+576810706+577548992+578732195+580515900+582825329+585026076
1778+586648749+588058041+589967877+592500643+594840346+596118879+596542364
1768+596717859+596842175+597201188+598299191+599981123+601275174+601806696
1758+602282999+603217100+604525556+606314062+608974482+612294547+615082621
1748+616340074+616397284+616417252+617381334+619470824+621940289+623694715
1738+624627060+625955425+628659060+631852876+633544236+633575213+632995147
1728+632371281+632232150+633143999+635043881+637505617+640652294+644907221
1718+649688810+653086755+654045919+653413972+652189838+651077547+650839630
1708+651883057+653788912+655764684+657878123+661226002+666156618+670472210
1698+671752324+670625512+668791624+667480650+667480709+668692604+670189145
1688+671562658+673957991+678519639+683453710+685308913+684447832+683583765
1678+684350335+686634702+688912276+690184778+691408678+693498284+695618516
1668+696597238+697117224+698715947+701677760+704463667+705334586+704927146
1658+705517635+708689784+714806121+722246314+726106743+725185641+724181799
1648+725249585+726716263+726069208+724002673+722870122+723554302+725834277
1638+729358120+733211346+735150988+734149546+732379544+731858972+733003293
1628+735684032+739742559+744525084+748647146+751095062+752668899+755211795
1618+759853666+766051339+771587493+775069174+777080900+778384730+779233279
1608+779886307+780650534+781451828+781969414+782094257+781877011+781606595
1598+782044952+783595893+785426560+786521166+787144388+788066368+789241431
1588+790176177+790831546+791725068+793319223+795461121+797677620+799785848
1578+801636249+802468461+801812388+801068773+801545778+802566837+802627385
1568+801603164+800778565+800581111+800520153+800878521+803157560+808194340
1558+812738304+813381026+812670495+813550724+816118038+818492407+819181155
1548+819088986+820461035+824002093+828119880+831110327+832964359+833864731
1538+833233838+831600508+830358280+830627290+832175654+833347614+833504488
1528+833851614+835775329+839602204+844724594+849864025+852994774+853532152
1518+853507265+854365477+855807208+857662528+860218307+862803598+864580452
1508+867190161+873685186+881629965+885273733+885181330+884980538+886418522
1498+888955386+891260600+893133487+895992591+901029839+907624118+913493930
1488+916723172+917063506+915171822+912865672+912941269+916724109+922427678
1478+927283634+931019511+935804203+942229487+946254402+944000368+938548477
1468+935099470+935622970+939082810+942877947+945359183+946872237+948370593
1458+950060782+950424831+948023819+944641274+942136674+939686122+935323275
1448+929081275+923657082+921311581+921892994+923967610+926071797+927365145
1438+928282030+930114747+932735875+934435551+935167513+936483640+938457070
1428+939019275+937580764+936757336+938812628+942561973+945670120+947874381
1418+948704544+945964720+939666564+932986499+929182520+928587932+928920477
1408+928498574+928125566+929695421+933505783+937644708+940186433+940812876
1398+940440395+940094557+939826191+938408760+934966663+930958378+928875154
1388+929620878+932022300+935042435+939013888+943661264+947503833+950199621
1378+953114178+957059983+961395016+964666595+966222162+967244567+968934990
1368+971194470+973505656+975436925+976420741+976740638+977982222+980714491
1358+983518727+985669057+988181269+991563755+994610476+996466030+998416095
1348+1002192319+1007373207+1011530871+1012745577+1011285752+1008909743
1340+1007561175+1008720604+1012407821+1016504819+1018485568+1018170883
1331+1017274141+1016707075+1016477766+1017330239+1020368410+1025996557
1322+1033821411+1042006157+1046986898+1046241350+1041769469+1037786422
1314+1035937310+1035350334+1035592058+1037797197+1044046985+1055149743
1305+1067322571+1073741823+1072097777+1066999336+1064174078+1065573005
1297+1068718921+1070027084+1068070812+1063577617+1058368504+1054632333
1288+1053241136+1051579523+1046073994+1037224744+1029211453+1025628351
1280+1026577442+1028079429+1025451391+1019624853+1016104875+1017404606
1271+1020355059+1020816137+1018705157+1016581295+1015399732+1013570411
1263+1009454323+1003835896+999245028+997310188+997435265+997538209+995520452
1253+990479748+983345047+976279853+970671029+965857410+960112969+952495875
1243+943490219+934356323+926297475+919690021+913965723+908476591+902924919
1233+896983316+890603883+884643308+880046759+876583523+873125967+868873031
1223+864079848+859765310+856725616+855110263+854661306+854730462+854355639
1213+853221858+852404871+853088056+854909939+856756944+858609863+861274324
1203+864870660+868764759+872424220+875630040+878170535+879789870+880412155
1193+880309856+880520017+882475704+886448093+891247190+895666838+899410797
1183+902537213+905041637+907501148+911131331+916360119+922334513+928361258
1173+934772956+941797043+948461766+953689969+957660368+961187958+964916809
1163+969349749+974322819+978876036+982497727+985312328+986774262+986037849
1153+983672263+982010357+982775287+985007363+986758334+988210899+991858766
1143+999135058+1007124926+1010531303+1008036892+1003429159+1000093987+998515056
1133+998700214+1000949388+1003824771+1005010901+1005063134+1006992704
1124+1011732307+1016314275+1017416318+1015638059+1014867449+1018062318
1115+1023302935+1025781419+1024519984+1023828894+1027882561+1036345101
1107+1044906953+1048774291+1047993727+1048691726+1054953460+1061132862
1098+1058055341+1046818722+1035580815+1028959892+1026170120+1024976963
1090+1024628431+1024989260+1025411104+1025765023+1026718565+1027603361
1081+1025810697+1020014609+1013223988+1010878078+1015200638+1020895306
1073+1018851198+1007479664+994879253+988481784+988745642+992136209+996301251
1063+1001578173+1008472556+1015500098+1019604358+1018915260+1015232844
1054+1011811125+1009328308+1006922201+1004535184+1002324892+1000033439
1045+996823930+992078706+987408551+985918861+988715777+993768543+997241208
1035+996584666+993152407+989989392+987965545+985942050+984533520+985520791
1025+987675454+988065443+986449388+984870925+984467819+985106793+987374002
1015+990951249+993638898+993713149+990891990+986379939+982887600+982579824
1005+984264392+983835286+978328293+968535280+957893366+949654514+944370331
995+940139061+935246448+929578892+924337573+921171337+920399322+919835886
985+916781963+910776885+903153643+895278547+887981408+881684774+876814355
975+874107792+873843466+875030474+876163494+876318904+874960792+871810601
965+867540742+863244415+859051793+854552332+850566064+848974895+850106685
955+851808468+852513026+853611145+856865802+861426455+865333495+868432331
945+871768557+875078491+877237370+878686012+881168302+885424868+890505859
935+895282938+899894770+905365340+912176104+919490283+925767417+930067082
925+932592821+934497914+937562202+942146102+945746947+945358948+941474102
915+937622164+935924538+935923660+937014401+939351820+942161561+943236667
905+940874478+935744358+930685444+928002889+927645574+928290697+928949229
895+929212208+929577955+932354494+939535572+949266222+956556685+958410073
885+956113116+952443115+950206238+951453970+955530708+959652477+962307685
875+964528811+967355357+970564456+974354264+978814961+981379289+979516649
865+975402025+972655643+970969143+969421130+970583662+976107754+982163835
855+982732189+976906530+969084720+964159726+965211351+971862899+979319605
845+982459314+982235626+983454900+987179242+990349283+990636915+988103154
835+983925347+980575828+980898360+984328453+986211997+984277977+983019119
825+987577547+996840326+1005970416+1014029264+1021914080+1025748510+1022530568
815+1016674869+1014920736+1019726391+1028109528+1034345731+1036322029
807+1036512691+1035889410+1033345226+1029558813+1028356872+1030882904
798+1031712657+1025873470+1016365805+1009471070+1006829213+1004563877
790+1000349764+998386114+1002338008+1008307074+1008985281+1003959334+999234253
780+997397555+995155173+990553999+986933068+987311346+991445470+997352349
770+1001162652+998441392+989679860+981234009+978267570+980618575+984781919
760+988053381+990211440+990677085+988797640+986772622+987510792+989743218
750+988886061+984706029+982947445+987637275+996065266+1001597145+1001571732
740+1000653558+1004335505+1012300778+1019342257+1021655024+1018831406
731+1013660589+1008760891+1005401945+1005847095+1009041262+1011061244
723+1010460098+1008737000+1007265345+1007547824+1010619958+1013827945
714+1014875295+1013909339+1010872105+1007430242+1007628633+1013618077
706+1020757697+1019492632+1006502582+989626690+977495203+973132766+973986058
696+975861873+978411971+984554834+994898576+1005598579+1011239140+1009614886
686+1003314856+996550938+992432273+991819181+992055400+987481982+976721138
676+966919634+965876148+971898384+972968982+961177125+947258654+947045800
666+953947210+955036195+955352519+967003253+990427633+1008206942+1006294236
656+996707051+993495551+993782948+987929123+973943897+958135675+947825428
646+946815846+953309349+961323342+966696473+969272923+971503827+971405685
636+960948577+940364271+921147915+911642884+912926512+921968942+933941623
626+944470990+951348334+952188919+942343439+921249979+898023230+886173754
616+890186255+903764743+916985566+924737400+926743211+927075990+931518534
606+941022627+951801389+961943871+968592373+962170193
##END=
