##TITLE=<SNM>
##JCAMP-DX=4.24
##DATA TYPE=INFRARED SPECTRUM
##DATE=29/4/2025
##SAMPLING PROCEDURE=Instrument type and / or accessory
##ORIGIN=Admin
##XUNITS=1/CM
##YUNITS=ABSORBANCE
##RESOLUTION=4
##FIRSTX=4497.3318
##LASTX=599.83466
##DELTAX=-1.4281778
##MAXY=2.1037734
##MINY=0.384563
##XFACTOR=1
##YFACTOR=1.9592916e-09
##NPOINTS=2730
##FIRSTY=0.39630571
##XYDATA=(X++(Y..Y))
4497+202269895+202449473+202394927+202184380+202011936+201906282+201719995
4487+201509843+201703203+202697667+204194771+205129975+204691023+203356293
4477+202467802+202791122+203851388+204726829+205108771+205282113+205421596
4467+205368312+204939840+204210575+203614070+203621676+204009946+203942501
4457+203198238+202536372+202498482+202756426+202839812+202687932+202371047
4447+201968068+201828722+202336275+203304546+204078500+204279282+204088935
4437+203865048+203784978+203802030+203633357+202913128+201739967+200762158
4427+200396765+200372078+200254819+199928502+199427049+198823029+198297574
4417+197958100+197750914+197746959+198144097+198787269+199092412+198738564
4407+198129936+197930173+198399334+199254589+199911071+199837831+198986560
4397+197931101+197302698+197098068+196829735+196368712+196276550+197074217
4387+198371878+199135900+198929809+198421283+198373034+198607417+198445057
4377+197872235+197576599+197864219+198279716+198462519+198637580+198952732
4367+199083909+198842484+198455826+198069260+197613241+197172388+197085002
4357+197679530+198950480+200375683+201224855+201279111+201044653+201188425
4347+201938757+202881003+203254107+202663686+201474402+200350220+199727568
4337+199810086+200527563+201424876+202064702+202427813+202545286+202214071
4327+201564146+201259931+201572968+201902844+201712664+201270167+201005424
4317+200811411+200414349+199942542+199756316+199954984+200307174+200578397
4307+200703551+200665737+200511013+200558654+201181763+202235154+203094197
4297+203248966+202604106+201509007+200749853+201065415+202463376+204269578
4287+205711254+206273733+205876382+204972893+204191501+203817621+203801893
4277+204023955+204301749+204398991+204248116+204042694+204050984+204360873
4267+204743987+204786501+204310191+203684192+203516752+204012181+204790836
4257+205284288+205257578+204976711+204817926+204804145+204770347+204857596
4247+205290722+205771854+205837671+205638151+205606117+205696895+205640646
4237+205467030+205313903+205289353+205705946+206794504+208145980+209006818
4227+209050473+208473240+207579014+206707103+206396469+207065256+208409522
4217+209505306+209727733+209314745+208912877+208814615+208772238+208431821
4207+207884781+207688836+208149935+208797199+209020478+208978831+209240745
4197+209733513+209793017+209264595+208778261+208797351+209092714+209294408
4187+209379908+209506416+209819651+210403653+211142562+211735356+212007917
4177+212112005+212347695+212863842+213493750+213897916+213932261+213720406
4167+213350997+212863279+212458232+212263124+212083728+211778113+211547335
4157+211529949+211475784+211117266+210636926+210551989+211198096+212402196
4147+213643424+214449504+214612867+214270032+213897916+213941342+214349903
4137+214761522+214964342+214799184+214021959+212875098+212341794+213050782
4127+214268571+214770025+214445792+214212200+214619925+215377664+215998842
4117+216247598+216181477+216145671+216430675+216808343+216760612+216161794
4107+215434507+215096098+215338983+215939002+216357009+216170099+215629402
4097+215491836+216112527+217037585+217723529+218205786+218726786+219219508
4087+219473071+219420047+219155653+218912783+218917894+219142252+219407163
4077+219706176+220090932+220348572+220200237+219773803+219576763+219949244
4067+220677946+221257826+221470594+221491038+221476496+221368987+221158409
4057+221093398+221423502+222018866+222436463+222370524+221897697+221252213
4047+220626671+220293753+220569296+221402420+222184101+222261904+221670996
4037+221153344+221381444+222340407+223560310+224651652+225362862+225454872
4027+224930922+224214008+223818072+223928487+224363241+224762447+224783773
4017+224367424+223839458+223586731+223704797+224068760+224534179+224945326
4007+225225706+225568557+226239747+227123340+227762071+227888426+227624185
3997+227169870+226532280+225639819+224708342+224350129+225034035+226383747
3987+227370180+227411265+226931578+226621720+226553013+226382850+226177018
3977+226492656+227553896+228751850+229267997+228993275+228476125+228133791
3967+227983448+228071625+228579451+229383736+230017401+230243007+230298602
3957+230457981+230681184+230783947+230792100+231070731+231877039+232773318
3947+233107589+233147746+233683362+234444296+234237141+232901940+231675420
3937+231486304+232218688+233417706+234733514+235671136+235664275+234804061
3927+234028206+234156934+234880145+235204135+235087407+235592785+237141879
3917+238570353+238323771+236220655+233518676+231621087+231116424+231934718
3907+234211085+238364384+243935950+249074724+252033948+252202300+249440543
3897+244585723+240085482+238327589+239740471+242293644+243160429+242382125
3887+242625086+244944560+247331053+248164755+248427567+248303660+246237293
3878+243087067+242091188+244379785+247981222+251112190+253476095+254256012
3868+253159985+252086851+252312776+252381453+250523473+247407837+244960821
3858+244872340+248973953+258367451+268125765+268317025+259974073+251201782
3848+246186626+245461650+247798115+251481827+255452825+259589636+263517694
3838+265414902+263716316+259724008+256102173+254045678+252992013+252311042
3828+252023285+252131068+253123844+256572216+262604257+267189086+267045952
3818+264597445+262187878+258585604+253267130+248735904+247724510+251162158
3808+257095922+261512064+263408116+265624111+268890197+269928696+267533640
3798+264387932+261506831+257893119+254077286+251911318+251923837+253204309
3788+255049527+257180038+258863139+259681479+260698288+262939229+265261426
3778+265672177+264487411+263956342+265767366+269946402+274812203+278088815
3768+279261991+279652968+280203050+281367008+284191130+289269152+294936653
3758+298645767+300757660+304415818+312267067+323779942+333563962+336758892
3748+336723907+339104756+344103835+346553042+344957098+344072349+347708482
3738+356469152+367681858+376137369+378436263+376210411+373390853+372607620
3728+374626332+378924072+384077479+388580443+391617272+393330309+394999903
3718+398188140+403391681+410336795+418778312+427531894+433932705+436846327
3708+437674371+438177725+440494903+446425062+454477702+460271938+462430497
3698+463747719+466070159+469003525+472951874+479745184+488896040+494969333
3688+493291251+487016385+481786042+480049855+481643913+485397108+490704326
3678+497787584+504835461+507291908+505642179+505275964+507515415+508313037
3668+504790285+499560063+495953896+494843966+495647490+498061773+502507879
3658+508640342+514124918+517410321+521183625+529697150+543380693+554882707
3648+555497709+548222887+540963520+536642993+534637545+533963344+534119284
3638+534842161+535841021+536806479+538376169+542795930+551749046+561668594
3628+564551642+559955193+555077892+554488505+558510840+565052442+570598286
3618+572582378+572108837+571878363+572653321+573479266+574061716+575010442
3608+576025669+576253587+576472075+578222286+581069133+582948392+583393824
3598+584250555+586773352+589915652+591736928+592072295+593262629+597635784
3588+603841715+607032751+605228206+601390044+598582319+597552551+597874045
3578+598805735+599051845+597554315+595350945+595345956+599592314+607124015
3568+613731875+614297472+608575791+601669009+597993115+598541433+601964159
3558+606356967+609973600+611645932+611932807+612944810+616136210+621127410
3548+626203546+628821683+627116496+622722350+620383908+623247060+629402126
3538+633619645+632871093+629730618+628656008+630522673+632401932+631816135
3528+629431027+626749551+623898020+620949505+619176599+619522492+621484619
3518+624358237+627446630+629312626+629099858+627853670+627477295+628922622
3508+631462576+633211632+632283714+628909723+626075289+626315314+629486272
3498+634688171+641413945+647438259+649402881+647517538+645382372+644784893
3488+644387223+642805486+640397622+638266716+637418625+638273591+639763273
3478+639752929+637389846+634467006+633877863+636948125+642418707+648050219
3468+652007451+652670884+649320804+643114691+636454262+631913971+631395223
3458+635155141+640955431+645235740+646303354+645276079+643632952+641452945
3448+638250836+634505155+632430346+634433786+639901569+644465772+643998740
3438+639522395+635896818+635860130+637836616+638995981+638289593+636805631
3428+636662041+639506576+644430178+647004387+643173587+635128614+629393060
3418+629474408+633100897+635545693+634918340+633465712+633437359+633992917
3408+633714317+633799071+636144206+639960769+642552927+642729980+641478195
3398+639807140+637884987+635679243+633761957+633408276+635451447+639058649
3388+642031928+642800071+641889251+640735362+639575024+637938346+636591524
3378+637270350+640265836+643842921+646699929+648880057+649642725+647616286
3368+643860931+641369103+641227643+642103053+643205043+645237566+648560022
3358+652360949+655258113+655573827+652140636+646170290+641185601+640049843
3348+642635795+646671454+650188000+652468824+653445659+653165416+651786712
3338+649908609+648589775+648617945+649727905+651125166+652552057+653543799
3328+652324747+648190583+644232804+644520713+649291052+654685275+657357563
3318+657935755+658761456+660202463+660543671+658673173+656015791+654728596
3308+655155106+656084666+656525048+656616373+656669124+656009525+653822034
3298+650974032+649884637+652150250+656364970+658779648+657268307+654158618
3288+653628797+656867594+660898142+662742965+663251613+665109942+668818144
3278+671274013+669149739+663780461+659681099+658832399+659561360+660078830
3268+660000099+659294137+658679440+660016161+664015741+668149722+668907157
3258+665866526+661700176+659090069+658914233+660315388+661674743+662017533
3248+661935517+662853456+664843936+666203231+666395373+667298345+670025818
3238+672610857+672395898+669404732+665579529+662090788+659258179+657887567
3228+658997649+662305807+665773253+667246203+666443683+664839191+663683477
3218+662734508+660993605+658251165+655707865+654923415+655915826+656786004
3208+655794323+653251874+650682776+648958240+648138563+648377493+649829756
3198+651673788+652232996+650688252+648091592+646043554+645243042+645623980
3188+646492636+646478216+645034411+643559028+643446224+643981643+643548623
3178+641952771+640170556+639010827+639220127+641260377+643804408+643972030
3168+640728730+636890324+636069552+638474556+640741446+639885141+636486326
3158+633220332+631361455+629927019+627801771+625408145+624055482+624649310
3148+627029612+629965168+631963984+632393232+631598560+629969670+627689759
3138+625343347+623633474+622326930+620350687+617243067+614065356+612275049
3128+611972538+612013485+611740665+611692660+612377996+613222254+613306826
3118+612602081+611597379+610213382+608141980+605863712+604347138+604095552
3108+604963965+606206745+606832334+606622243+606149127+605675585+605255038
3098+605313326+605690431+605324521+604186695+603815492+604904582+606064068
3088+605631170+603485175+600743708+598724327+598163293+598726274+599469837
3078+599831367+599704691+598697495+596377185+593505940+591652660+591451453
3068+592241195+593147757+593609312+593142281+591656737+589733488+588106910
3058+587234603+587145772+587398453+587655089+588222268+589318417+590175330
3048+589670637+587672064+585249781+583661959+583297631+583451868+583007288
3038+581538111+579997139+579890603+581332218+582590026+582088436+580012410
3028+577624138+576144191+576180880+577127050+577526181+576597716+574816778
3018+573066202+571995060+571868263+572274330+572124656+570514566+567912552
3008+566018203+565825818+566306234+565839386+564439509+563475389+563676476
2998+564282777+563961100+562387211+560712324+560023033+559862346+559024842
2988+557309372+555663871+554983220+555274476+555844453+556170937+556306982
2978+556306070+555871468+554847540+553498041+552279050+551530133+551206752
2968+550919695+550412629+549820930+549307354+548874516+548517550+548016142
2958+546888173+545143985+543480354+542212263+540957253+539734977+539176012
2948+539399427+539803729+540023251+540101495+539915255+539408249+538929658
2938+538692127+538526938+538436768+538587720+538576282+537493336+535064846
2928+532247691+530244738+529167085+528220063+527189443+526718213+526960369
2918+527230573+527039830+526465289+525801065+525521126+525931330+526463646
2908+525999961+524248898+522320842+521518262+521826553+522081425+521485589
2898+520245060+518814214+517417865+516264159+515542317+515245342+515268950
2888+515524369+515957024+516481734+516643394+515626524+513306883+510900844
2878+509729919+509786169+510112957+510039154+509401641+508180673+506710035
2868+505850566+506200840+507287649+508060903+507972072+507183516+506150036
2858+505286156+504615878+503776670+502661204+501741165+501406255+501415107
2848+501328802+501043691+500610397+499904131+498873054+497860534+497172308
2838+496515751+495396969+493914254+492701013+492176607+492131157+492001166
2828+491449380+490670315+490157256+490161241+490344014+490085400+489196787
2818+488085854+487179749+486586468+486297950+486148581+485717234+484868747
2808+484017674+483436349+482907684+482223352+481311649+480058313+478681921
2798+477931604+478346098+479469930+480054692+479175328+477199115+475371694
2788+474428687+474019031+473448323+472538628+471666656+471149459+470792159
2778+470261637+469725336+469548861+469532129+469134064+468242530+467159281
2768+466140768+465290973+464591856+463940227+463313847+462833339+462571288
2758+462368164+461899003+460972120+459793864+458776081+458049219+457362970
2748+456468425+455416479+454486098+453968019+453946359+454182886+454218632
2738+453683943+452700050+451883658+451661185+451670920+451233154+450297905
2728+449381822+448721249+448135361+447575604+447177235+446863011+446399569
2718+445766345+445137654+444557089+443857850+442896834+441758734+440698392
2708+439898276+439340588+438915508+438570863+438308994+438059538+437647417
2698+437005310+436343459+435917771+435671600+435305629+434658867+433824039
2688+432953406+432183133+431713789+431691521+431899361+431778405+430986076
2678+429839823+428966178+428551624+428216896+427716096+427398100+427607491
2668+427954297+427755553+427005754+426314789+426024477+425851409+425332326
2658+424405565+423518564+423087643+422936874+422575375+421893477+421169231
2648+420557485+419979598+419424466+419070998+419049094+419157091+418993758
2638+418415079+417656762+417019005+416655589+416588236+416712447+416813082
2628+416657262+416160449+415499723+414903218+414312645+413586392+412980943
2618+412886697+413157144+413244089+412899808+412330226+411825229+411540635
2608+411500661+411614864+411678171+411429962+410789406+410060172+409666274
2598+409643214+409622467+409339394+408947900+408801146+409040259+409442523
2588+409628886+409389529+408871359+408501555+408615940+409075031+409345022
2578+409032989+408244706+407367958+406661296+406176346+405945630+405970149
2568+405993300+405655804+405034566+404642767+404735552+404972201+404903662
2558+404537204+404298060+404519985+405018016+405258620+405003931+404564827
2548+404325105+404297969+404254618+404053319+403757774+403525354+403381764
2538+403164281+402815163+402571213+402636710+402893103+403228683+403843563
2528+404782827+405499954+405465091+404947803+404604405+404570485+404534436
2518+404439946+404548977+404926600+405298016+405381280+405101615+404541493
2508+403898656+403478504+403514250+403905136+404283489+404408551+404333927
2498+404199921+404098647+404127244+404319964+404496804+404383454+403977843
2488+403643633+403666722+403865010+403900694+403769730+403634689+403514432
2478+403519695+403915905+404587095+404963562+404781763+404450959+404469699
2468+404838286+405158807+405123092+404807804+404482780+404247804+404013163
2458+403743963+403557722+403632042+404080121+404799042+405419520+405600497
2448+405459950+405516169+406067164+406818028+407277575+407279583+406920913
2438+406308741+405612635+405077156+404789733+404644470+404568082+404598534
2428+404743462+404883097+404891645+404822223+404832110+404932988+405037121
2418+405213262+405615556+406202448+406745168+407071835+407212412+407345628
2408+407582034+407802955+407859661+407854337+407966866+408131568+408186692
2398+408201568+408349204+408598113+408814714+409043728+409406230+409796082
2388+409935017+409696452+409159177+408330495+406967337+404768195+401731852
2378+398240100+394751785+391472740+388364785+385421624+382809267+380635405
2368+378712552+376836578+375178422+373988484+373178267+372789115+373544938
2358+376191215+380467539+385418034+390565844+395833605+400346030+402549127
2348+401589449+398136241+394104263+391269737+389992519+389754288+390144110
2338+390872766+391668928+392331327+392678041+392695716+392675577+392883690
2328+393286319+393843459+394712693+395862049+396918011+397737141+398655050
2318+399905313+401289037+402532790+403559061+404422576+405267199+406228793
2308+407275111+408284437+409239155+410196977+411170010+412126615+413044919
2298+413961489+414963422+416043417+417004859+417626827+417861712+417811090
2288+417601060+417329791+417079057+416927436+416909974+416940274+416852721
2278+416589666+416318154+416291626+416539197+416732830+416513004+415947680
2268+415487524+415451018+415710818+415938919+416023552+416108428+416305772
2258+416576341+416879066+417233933+417653537+418155492+418722306+419173853
2248+419327390+419300194+419342327+419414579+419245252+418723097+417988965
2238+417260582+416726532+416479053+416445742+416448084+416371483+416254299
2228+416189166+416157193+416033499+415786963+415544443+415379923+415224043
2218+415079054+415134300+415569571+416351131+417229583+417894932+418225492
2208+418405344+418718260+419313001+420195834+421202665+421973394+422303620
2198+422475380+422898726+423598451+424370093+425178667+426073151+426906488
2188+427394693+427404276+427129083+426996931+427338991+428102784+428900528
2178+429366130+429485260+429542879+429759237+430116324+430540644+431012269
2168+431441517+431694472+431802286+431958074+432314341+432864575+433465309
2158+433975417+434426294+434964330+435616415+436335732+437256257+438543392
2148+439963530+441009209+441560447+442092915+443142610+444780018+446624506
2138+448239068+449521183+450735519+452150059+453756863+455426579+457162584
2128+459068036+461174697+463432004+465833875+468429045+471086396+473370596
2118+474934323+475948273+476830132+477700036+478454611+479209917+480328699
2108+482106655+484583941+487566680+490858259+494514379+498644954+502921247
2098+506644568+509419346+511389840+512692429+513020555+511903355+509228664
2088+505355730+500792774+495871484+490721697+485475444+480383519+475696961
2078+471566417+468095716+465350295+463292461+461793896+460692759+459818596
2068+459069527+458488932+458109424+457751423+457220020+456671580+456485309
2058+456711585+456938134+456832632+456549712+456422611+456542411+456891437
2048+457627212+458904734+460575514+462339750+464100974+466030642+468442491
2038+471682992+475950707+481157382+487080270+493553424+500341958+506977319
2028+512939026+517973849+522188083+525864038+529142444+531845458+533624144
2018+534196738+533467594+531668891+529369997+527054858+524777807+522373289
2008+519752596+516850017+513566622+509987012+506543934+503804627+502010974
1998+500885256+500056391+499561037+499586895+499874713+499861297+499410298
1988+498968578+499046700+499880250+501426059+503364002+505193279+506582447
1978+507629526+508660299+509854313+511237915+512923146+515072305+517596075
1968+520041175+521879365+522975514+523747247+524767828+526268826+528167191
1958+530461217+533209681+536086036+538458124+540122425+541569821+543389393
1948+545783993+548714682+552085448+555607470+558788466+561309863+563279718
1938+564984358+566584896+568167058+569892142+571895582+574057761+576087242
1928+577952995+580042954+582640465+585432188+587966606+590360719+592727575
1918+594226930+593988425+592822307+592472825+593612537+595549232+597302364
1908+598417191+599034931+599566030+600223926+600891374+601461170+602029626
1898+602709426+603492293+604290980+605124956+606266554+607743945+608661154
1888+607961702+605999149+604137412+603132893+602863237+603104419+603734449
1878+604333266+604299255+603626939+603292424+604464139+607190152+609803726
1868+610068941+607607353+604087034+600943578+598499147+596644042+595114448
1858+593394293+591233087+589034949+587289970+586117159+585471128+585317438
1848+585785747+587184164+588992176+589070055+586025530+581545169+578041704
1838+576244096+575405131+574743767+574655849+576030902+578216202+578837166
1828+576946833+574214128+571798963+569175350+566186617+563776198+562482431
1818+561785534+561086813+560677096+561340589+563096094+564671381+564687383
1808+563320118+562121388+562498676+564759908+567983921+570480311+571065682
1798+570361363+570404318+572927419+577786954+582199597+582973824+580807325
1788+579050908+579480095+581529410+583960030+586222053+588067362+589099686
1778+589692297+591486681+596141783+603385088+609790158+611517918+609247377
1768+606242339+604382975+604453553+606778792+610223239+612494936+613014779
1758+613156665+613591693+614445260+616904962+622154136+629009019+634052117
1748+635402772+634455568+633417646+633746320+636064927+639712834+642806338
1738+644801260+648081492+654623337+661355986+662576133+659141725+655438452
1728+653301035+653027789+654610499+657409645+660898264+666075643+674521085
1718+685036834+691852351+691147728+686539779+682792334+681785259+683841085
1708+688783184+695204682+700564043+704537642+710031709+718623235+726878117
1698+730977235+731604649+729401582+725000439+721441729+720984554+723426855
1688+728215995+736365253+748095307+757614264+758262060+753743916+750523493
1678+750985231+754705114+759867769+764968608+770393009+776404547+780306351
1668+779444083+776844990+777418983+781915832+786439818+787003772+784943870
1658+784904687+790478641+802811772+817373218+822170754+817670193+816148509
1648+820442811+824480843+821569929+814187902+808531506+807124997+810122977
1638+816623754+823172231+823263739+815479052+806742415+802242706+802338169
1628+804529858+805952003+805461000+802454805+796575237+790465620+788373775
1618+791624863+796308501+796247171+791339570+786182452+783495075+782999021
1608+782567218+780424691+776935402+773832102+772216476+771747072+771519093
1598+771297989+771535034+772434051+773402855+773508296+772338101+770292375
1588+768191647+766815681+766569510+767135290+767743599+768531881+771060579
1578+776002374+780043813+778382920+773317248+771047924+772763881+774273093
1568+771920596+767961843+766015230+766805155+770391428+778213228+789356208
1558+794715447+789894426+782766418+777854133+774810580+772528844+770734704
1548+770464865+773479943+780385690+789807724+800090444+809293078+811856153
1538+805748544+798716669+796801329+799439241+801995319+802126861+802694953
1528+806556722+812979011+819264646+824757132+830940733+837892965+843367501
1518+845370637+843488579+839584219+837458546+840018700+847879866+860384817
1508+875401249+885425933+882625388+873920572+869244418+871004243+877277709
1498+883900233+886702968+885241396+883138660+884027090+889208972+896956301
1488+903026369+904653069+902974957+901088822+901816079+906313841+913520153
1478+921078625+927370953+933108758+939655531+945054683+945973048+944068843
1468+943380100+944211946+943571330+940641797+939098452+942540344+951879510
1458+964265513+970993477+967334254+960662509+957392560+958515723+962230556
1448+965217950+964878203+962348592+961112808+962549070+965690397+970255147
1438+976826075+983333970+985638036+984334838+983224209+983464722+984365503
1428+986440921+990987114+997212454+1002571997+1006326926+1010735066+1016628325
1418+1019605375+1016161963+1009506645+1003654212+999463464+996321955+994041192
1408+993115100+994411848+998047890+1002094866+1004329144+1004949378+1006047778
1398+1009108427+1013090605+1014704285+1011810041+1006644770+1003556438
1390+1004335533+1007346777+1009591339+1009012234+1006248864+1003430614
1381+1002065965+1002836117+1005831359+1010799134+1017222092+1024123094
1372+1030364983+1035483709+1039339212+1041270127+1040924782+1039094867
1364+1037255338+1037088384+1038839082+1039788842+1037982412+1036656520
1355+1040431588+1048278882+1053957487+1053973427+1051251674+1050040411
1347+1051812404+1055157555+1057138727+1055959588+1052686962+1050246669
1338+1050719662+1053722146+1057560734+1061104842+1063915548+1065333313
1330+1063925404+1059438716+1055174834+1054977460+1058858273+1063133715
1321+1065086655+1065799492+1067143759+1068607764+1067898699+1063818686
1312+1058777838+1057257857+1060974029+1066891503+1071085172+1073007204
1304+1073741823+1072888560+1069316708+1063372949+1057490643+1054278008
1295+1053733341+1053456748+1051401956+1047417223+1042324416+1036669541
1287+1031252562+1026822579+1022112718+1015227839+1007427090+1002287069
1278+1001218665+1001876987+1000761977+996269812+989111748+981168140+974082540
1268+968098139+962415154+956663903+951331131+946308841+940096461+931943370
1258+923459536+916538942+911095618+905928339+900710013+895871104+891201460
1248+885859683+879521115+872550143+865306169+857871878+850249825+842519167
1238+834910195+828077702+822951797+819728331+817426517+814963468+812171259
1228+809385377+806732376+804322018+802623280+802125949+802879186+804608467
1218+806915514+809138415+810708774+812114310+814628649+818507516+822305765
1208+824599001+825799312+827709906+831698108+837647281+844309534+850212345
1198+854359834+856886524+859138812+862157358+865133314+866533069+866652930
1188+867503942+870159072+873480981+875807437+877196180+879232353+882808708
1178+887414588+892842337+900131395+910154863+921898851+932539997+939411551
1168+942383856+944067322+947373716+953215015+960213061+966331378+970671009
1158+972811346+971802203+968435453+966296028+967302738+969070289+969037191
1148+968219399+968842736+971253277+974353900+977170690+979494652+981151043
1138+980882603+977576270+973052346+971274633+974075604+978910132+981518048
1128+980861004+979833852+981246019+985180557+989670166+992654761+993955525
1118+995287380+997564187+999326142+998806481+997082006+997792349+1003278141
1108+1011861210+1019291304+1022428250+1021406817+1017589097+1011153667
1100+1003870631+999463343+999317867+1001156909+1001610798+998994912+994601435
1090+992284227+995450196+1002913631+1008125143+1005432046+996393506+986123868
1080+977757948+972674267+972025071+975051648+978191333+978226317+974631345
1070+968789438+962694971+958525032+956966719+956186711+953931442+949468969
1060+944106140+940625978+941024074+944848243+949561450+952508688+952566124
1050+949761928+944702341+939722094+938127093+941126534+946878758+952405194
1040+955695282+955929771+953002977+948192238+944288365+943340734+944505940
1030+945005705+943759335+943073207+945095691+948507588+950392323+949986317
1020+949083041+949638721+951859857+953706627+952611087+948450334+943673181
1010+940413818+938448344+935785487+930687326+922768176+912898824+902826378
1000+893956616+886000778+877817935+869548755+862456949+857207106+853796792
990+852312222+852240001+851900375+850106904+847617571+845849046+845097209
980+844559782+843143721+839904741+834582373+828011201+821538656+816195419
970+812770259+811815935+812512162+812363401+809597233+805568449+803383514
960+804391196+807065005+809248358+810733294+813061089+817173288+822362471
950+827429237+831590172+834230395+835424988+836961701+841031797+847666063
940+855257695+863312646+871991056+879635499+884864778+890108232+898268442
930+907826825+914940534+918695646+920598756+920642989+917814821+912821249
920+907872883+904548845+903143370+903220397+903741336+903549680+902750081
910+902138486+901224137+898633318+894442570+890933629+890657219+894551844
900+901089613+906931580+909874316+911005388+912573496+914862838+916396874
890+916125270+914479101+913105021+913973617+917935169+924025376+930181112
880+934216040+934725601+932705977+931160563+931874921+934082186+936160645
870+937504668+938827579+940787760+942820526+943826931+943747105+943389713
860+943666914+945487886+948368074+949286865+946090232+941861701+941608046
850+945567347+949536870+950929324+950959258+951383274+952120752+952804689
840+954132954+956364616+958587396+960475964+963394788+968087856+972919647
830+975545694+974885486+972344497+971305055+974126834+979959919+985503512
820+988364231+989435312+990930469+993092892+993247312+988730932+980556363
810+972920560+970088133+974411640+985205320+998602535+1008913364+1011173684
800+1005948421+998620605+992755152+988661267+985132917+980192826+972964488
790+965981957+962823959+963285027+963374832+959934826+953126184+944827678
780+937124947+931719467+928076003+923389323+916172545+908424547+903573774
770+904457702+912751280+926682271+939974592+946802704+947120122+945087904
760+944257883+947040479+954941376+964826973+968821745+964221889+958709751
750+959481424+963343315+962617214+958076253+957738574+964028347+970603108
740+970943890+966452699+962437179+961090114+962086176+963848677+964628320
730+965480610+968905222+973671241+974430197+967879347+957995393+952589305
720+955087460+961697267+967460078+972035658+976369387+977758191+973328025
710+965969910+961132948+960518859+962858031+967172533+970898745+968680164
700+958417765+946034865+938362069+938541252+945897846+954190511+957926032
690+959623796+962901229+965105086+963410668+960977554+961277389+961809583
680+958222155+951816233+945438664+938999035+933206898+929763972+926614370
670+919184216+909660270+907883166+916486252+929147084+938067467+939254941
660+935983288+934046532+936529841+942353738+946577950+943162708+931466543
650+919199122+913539745+914696310+919957105+928031770+936584052+940658042
640+936770840+927595586+918955689+912942874+907821471+902293088+897648208
630+897052068+901041729+905468305+906021733+901140599+891584771+881599270
620+875658006+875070202+877460299+880175603+882761311+884971253+887512789
610+893929480+901663910+899687485+886479005+875357989+874698937+880701105
600+887589512
##END=
