##TITLE=<SNM>
##JCAMP-DX=4.24
##DATA TYPE=INFRARED SPECTRUM
##DATE=29/4/2025
##SAMPLING PROCEDURE=Instrument type and / or accessory
##ORIGIN=Admin
##XUNITS=1/CM
##YUNITS=ABSORBANCE
##RESOLUTION=4
##FIRSTX=4497.3318
##LASTX=599.83466
##DELTAX=-1.4281778
##MAXY=2.1983171
##MINY=0.51936233
##XFACTOR=1
##YFACTOR=2.0473423e-09
##NPOINTS=2730
##FIRSTY=0.54292506
##XYDATA=(X++(Y..Y))
4497+265185289+265059084+263858020+262306171+261572431+261779659+262064240
4487+261669902+260834470+260602671+261476561+262492844+262329286+261082049
4477+260037002+259960726+260497107+260960152+260928069+260259631+259198979
4467+258362295+258238506+258830319+259809424+260709051+261108746+261063999
4457+261218677+261981792+262846773+262982877+262151842+260870658+260018952
4447+260223385+261256262+262033759+261463985+259445364+257109206+256056124
4437+257030222+259141655+260584563+260394075+259409438+259126371+259881014
4427+260791004+261157306+261092588+260904837+260597489+260022183+259111494
4417+258033549+257224203+257053804+257489191+258181561+258744843+258917018
4407+258680852+258434758+258897745+260369504+262176326+263297125+263413287
4397+262944332+262341252+262013467+262422944+263482780+264352565+264375070
4387+263799881+263254532+262853760+262069306+260523833+258738088+257631496
4377+257335328+257304410+257573940+258595900+259806979+259959998+259213914
4367+259257497+260703374+261850084+261023357+259074346+258152797+258877628
4357+260001600+260322399+259744240+258691507+257695837+257409188+258089825
4347+259199620+260059536+260639965+261306191+262085813+262451562+261861234
4337+260509887+259225239+258424743+257579908+256166259+254852673+254971338
4327+256833737+259136677+260205334+259551831+258024000+256775860+256331942
4317+256401115+256368508+256010183+255615496+255307333+254743585+253920818
4307+253676354+254630306+256101832+256932373+257068011+257385519+258196641
4297+258816578+258598578+257733160+256968386+256926201+257652778+258620500
4287+259140957+258833172+257854416+256911236+256824858+257585381+258092096
4277+257511230+256456168+256026458+256340938+256730298+256765030+256642522
4267+256922911+257859773+258780215+258652030+257525903+256644851+256923406
4257+258086972+259446296+260649951+261470564+261790052+261975940+262442944
4247+262740481+261978968+260343127+259034606+258515431+258154340+257797325
4237+258170731+259302389+260006229+259593230+258792152+258312920+257823585
4227+257011007+256503186+256943668+257931362+258586351+258712090+258778672
4217+259000602+259115541+259085001+259387458+260339255+261508935+262065026
4207+261571994+260398238+259395872+259194525+259858655+261058205+262255485
4197+262860922+262680915+262107561+261531760+260929554+260312325+260050540
4187+260376578+261009644+261556768+261893666+261970234+261650367+261019863
4177+260508985+260425517+260733506+261352423+262124417+262592819+262512874
4167+262326987+262431998+262476745+262001181+261129329+260233312+259613318
4157+259635939+260450671+261578399+262392491+262799668+262971174+262881564
4147+262656693+262802055+263511573+264210289+264224700+263553525+262706186
4137+262158450+262075565+262228962+262249720+262071606+261912706+261918965
4127+262148348+262632442+263068528+262907329+262199762+261839457+262507576
4117+263761189+264549778+264480809+264115817+263925649+263610790+262820688
4107+261826356+261034682+260598566+260708789+261402672+262154258+262452261
4097+262383524+262101447+261553857+261108425+261405467+262336798+263001160
4087+262804938+262109104+261769411+262224945+263066054+263631519+263842007
4077+264014998+264184233+264158788+263899710+263445573+262813031+262171377
4067+261841088+261965634+262263578+262278338+262008954+261959287+262386727
4057+263046606+263665116+264038958+263878719+263186466+262485479+262198656
4047+262246867+262475464+262841242+263137381+263149900+263068907+263216045
4037+263426999+263206496+262413336+261428292+260813596+260999396+261963246
4027+263140671+264014590+264598950+264934567+264697149+263886114+263194064
4017+263132170+263397828+263482954+263351450+263207631+263074962+262881447
4007+262712998+262812332+263397682+264436120+265489289+266010648+265945493
3997+265694421+265434207+265029447+264622473+264571613+264818027+264976024
3987+264917448+264854243+265025604+265460846+265927850+266241021+266644588
3977+267552511+268822224+269644468+269352492+268148312+266903404+266336890
3967+266444580+266755421+267019827+267291512+267453090+267242165+266797781
3957+266695419+267254538+268084496+268590949+268825310+269361168+270223063
3947+270697375+270636296+270866814+271652695+271928164+270943352+269536342
3937+268985549+269782144+271771127+274373526+276409061+276795538+275875212
3927+275084935+275191344+275618871+275679950+275840102+276976506+278827667
3917+279815419+278501978+275180892+271732290+269925352+270083844+271443371
3907+273724040+277603808+283115311+288251021+290490029+289361223+286155076
3897+282451851+279770439+279224160+280615217+281949910+281304442+279855828
3887+280419372+283462544+286349028+287187895+286924276+286010442+283660426
3878+280880641+280075400+282066450+285774480+289953677+293303439+293949082
3868+292046885+290237355+289770904+289115363+286832132+283836910+281836893
3858+281972910+285477962+293430576+302189597+302996352+295938095+287906787
3848+282868373+281789438+284142482+288577176+293555559+298107347+301463339
3838+302184677+299753872+296172892+293419513+291571088+290121980+289395955
3828+289661526+290165883+290695568+292718992+296814692+300183641+300450667
3818+299205234+297805006+295411233+291983943+289166456+288461189+290516085
3808+294425257+297649542+299172598+300640368+302486377+302716400+301132439
3798+299789303+298945020+297318525+295127525+294029231+294837209+297182392
3788+300561500+304472187+307972144+310629799+313591919+317994968+322673135
3778+325402380+326464690+328440660+333286141+340990304+349792237+357469849
3768+363327857+368032023+371804742+374734197+377618498+381191180+385270344
3758+389015668+392082130+395097236+399406074+405719355+411983405+416025508
3748+420109563+427184124+435645316+439698744+438659899+438006221+441156267
3738+448641644+459176655+468975832+473420657+471869973+468127241+466128999
3728+467300572+470586082+474002193+476618507+478254959+478172103+475815624
3718+472103752+469143553+469157207+473014790+478309051+480117067+476705323
3708+471133904+466844659+465575762+467306045+470076543+471267796+470431986
3698+469577339+470845888+474967149+481429984+489199302+496001189+497664367
3688+492821622+486338117+482865992+482770821+484153056+485734484+488654536
3678+495359709+504754125+509753556+507546603+504565588+504885716+504822017
3668+499970538+492489615+486458646+483302165+482151554+481711392+481701756
3658+482293452+482794926+482765260+483923382+488400291+495370597+500121752
3648+499341461+495165699+490523719+486674927+483844952+481458923+479084714
3638+477385232+477197394+478279443+480127955+483299865+488206717+492441520
3628+492396511+489112079+486401584+486329034+489183872+493915171+498131750
3618+500211886+501333501+502952019+504769729+506069575+506853185+506878513
3608+505384658+502858915+501312772+502532149+506426735+510276371+511198502
3598+510011907+509667265+510562379+510603836+509518089+509775974+512988147
3588+517360190+519588920+519323233+519040486+520137995+521853984+523131528
3578+523903202+524425085+524470735+523928298+523878922+526139211+531295738
3568+537243618+540801074+541412509+540728233+539659954+538064028+535775674
3558+533074436+530620254+529131813+528761261+529066308+529845261+531493125
3548+534227260+537100673+538352539+537359955+535705977+535548067+537245598
3538+539159266+539489642+537556585+533617048+528925401+525567836+525136728
3528+527526338+531164030+534200301+535274054+534224174+532365298+531126008
3518+530583047+529872685+528582855+527038750+525996207+526149983+527235730
3508+528332074+529271673+530380012+530809606+529228352+526372990+524458624
3498+524418797+525433158+526789017+528803533+531363862+533177555+533473695
3488+533009456+532559890+531822628+530276019+527839654+525136495+523654227
3478+524182631+525404394+525570340+524728969+523694636+522128288+519382974
3468+516321082+514968193+516663104+520632104+523984486+523842705+519962850
3458+514582268+510324000+508835385+510045271+512159761+513325744+513267517
3448+512576196+511394201+509831522+508678349+508609641+509281515+509652708
3438+508649002+505687260+501466897+497947987+496703224+497575455+499557247
3428+502316129+505738034+508802138+510353055+510446508+509916299+509061129
3418+507542003+505196703+502593636+500779186+500140326+499721795+498548825
3408+497127753+496383911+495925262+494796893+493438822+493282717+494381856
3398+495146717+494853897+494640439+495347540+496192230+496280908+495906513
3388+495767003+496082298+496789749+497840269+499168878+500497720+501027521
3378+499897988+497631643+496342919+497506806+500134329+502030878+502448768
3368+502354267+502491565+502864796+503586395+504622009+505277929+505129103
3358+504842978+505116060+505496627+504975676+503271158+501410825+501209246
3348+503457890+506459342+507589865+506409850+504483430+502837313+501784639
3338+501983889+503696385+505850411+507113399+507307060+507035201+506729687
3328+506632740+507074969+508046360+508598171+507441038+504568208+501702772
3318+500552744+501151136+502301980+503020842+503200762+503236513+503409620
3308+503694871+504088597+504918847+506385220+507861898+508163569+506769223
3298+504477026+502631250+501984821+502562252+504089238+505974025+507323770
3288+507777820+508002399+508740651+509896560+510933455+511605853+511850521
3278+511563290+511054508+511050025+511655171+512080398+512080398+512513719
3268+513599640+513994473+512700975+510658045+509379336+509180085+509327864
3258+509227540+509164539+509825058+511036807+511818787+512074110+512936151
3248+514829905+516322363+515874894+514026265+512489730+511834916+511346222
3238+510480804+509239709+507724251+506439894+506195518+506958517+507685531
3228+507677030+507310262+507199399+507386073+507497460+507305313+507004050
3218+506787972+506471104+505771223+504619564+503173396+501838556+500963996
3208+500245308+499051377+497551408+496729543+497138583+498266544+499189723
3198+499412089+498998798+498139261+496891004+495501898+494527538+494321941
3188+494662565+494953813+494661808+493721627+492624642+491893377+491554908
3178+491336966+491004377+490218962+488550369+486012195+483271364+481108808
3168+479948909+479868411+480607915+481438543+481485270+480581364+479458352
3158+478860746+478742896+478399651+477291109+475732156+474698638+474815906
3148+475603098+475884302+474941151+473146498+471444920+470365462+469699643
3138+469033155+468275485+467633801+467348172+467501977+467938645+468381311
3128+468640914+468638759+468308237+467663846+466997096+466752109+466950399
3118+466914124+465857140+463692313+461131664+459179800+458544929+459096740
3108+459887454+460099805+459794786+459432706+459120409+458731748+458318894
3098+457975009+457605475+457153027+456826261+456848969+457115792+457327153
3088+457331287+457066998+456416318+455462542+454614620+454116581+453706114
3078+453085130+452460449+452290835+452636030+453034648+453079045+452824975
3068+452474015+452060201+451601231+451125842+450565996+449955754+449574925
3058+449569655+449658043+449453756+448862147+448105728+447571065+447518923
3048+447738786+447713195+447256584+446637492+446075812+445651196+445600568
3038+445984658+446147401+445339627+443820123+442471018+441419916+439958434
3028+437922928+436279547+435977672+436827311+437808571+438092046+437454700
3018+436099074+434553485+433489689+433240713+433534029+433788682+433629345
3008+433182953+432918867+433033049+433039774+432306268+430926769+429669894
2998+429081313+428989054+428872979+428437970+427815763+427388906+427391672
2988+427573804+427418048+426806089+426155468+425821190+425730706+425617922
2978+425256831+424500180+423398158+422267257+421513109+421373133+421713029
2968+422055255+422003142+421562194+420915212+420128603+419233780+418396398
2958+417946337+418195575+419009958+419687829+419674001+419199951+418788465
2948+418474013+417955857+417278626+416866879+416849673+416756831+416139515
2938+415197820+414438461+413974571+413518426+412836159+411968440+411252052
2928+411127972+411599897+412071792+412047250+411653669+411259884+411004590
2918+410793171+410426170+409806641+409130284+408587498+407971812+406977219
2908+405720315+404663682+404215193+404471855+405073537+405406301+405215435
2898+404806074+404544114+404461956+404341952+403987150+403473302+403129679
2888+403101090+403087116+402767977+402260563+401910943+401859151+401958834
2878+401984891+401796587+401352902+400736197+400165288+399844519+399797530
2868+399910809+400044060+400052358+399859396+399539471+399215325+398885647
2858+398404377+397645193+396747138+396094130+395858313+395745179+395448312
2848+395081399+394889834+394875015+394900460+394864767+394689797+394344544
2838+393882955+393347796+392740059+392134912+391706104+391531017+391401493
2828+391058801+390608683+390337959+390183077+389856951+389358504+388851469
2818+388310983+387726420+387303318+387169601+387193357+387169164+386948981
2808+386524133+386155356+386142633+386371317+386413881+386092733+385600080
2798+385143993+384819963+384663247+384507317+384011956+383154544+382450471
2788+382374951+382791532+383150090+382984698+382144404+380898331+379828683
2778+379291749+379071741+378794642+378433376+378132841+377843834+377431359
2768+376874161+376191224+375450440+374895950+374777052+375057324+375478010
2758+375754993+375602440+374898628+373982146+373437642+373458778+373685453
2748+373711859+373486872+373148228+372719478+372153110+371573146+371238840
2738+371198460+371172927+370912044+370483440+370056786+369629056+369183682
2728+368886174+368828268+368780494+368477600+367970303+367474127+367075626
2718+366746880+366438251+366080421+365678892+365397018+365384703+365545000
2708+365584769+365300595+364785146+364345304+364217323+364369294+364543594
2698+364434828+363895389+363087091+362401883+362162951+362388520+362753774
2688+362775551+362231193+361399138+360698180+360222150+359857333+359623467
2678+359600468+359716687+359820709+359787112+359513390+359012294+358457251
2668+357986637+357599257+357321692+357267279+357456486+357711954+357751402
2658+357407197+356865168+356572056+356725628+356994314+356925665+356483494
2648+355980069+355604742+355257509+354848003+354522605+354413751+354393342
2638+354345626+354416953+354662727+354759353+354413605+353758413+353137254
2628+352809352+352883242+353197344+353352779+353139321+352759627+352488496
2618+352359699+352254601+352055176+351708583+351288451+350921829+350606416
2608+350253041+349912038+349765599+349878791+350119236+350327134+350439569
2598+350458725+350417617+350378198+350353568+350244947+350001212+349794595
2588+349817973+349933785+349813752+349444102+349165489+349191778+349417725
2578+349678783+349836897+349656075+349035295+348350465+348140239+348449217
2568+348814413+348867661+348648118+348365429+348183501+348226501+348502320
2558+348794325+348830396+348555393+348126497+347768376+347702580+347979039
2548+348345545+348545029+348657755+348861780+349063651+349076111+348929119
2538+348781224+348728674+348772490+348820119+348773014+348669517+348597694
2528+348515188+348341731+348127982+347995459+348021574+348208946+348439784
2518+348510762+348327553+348006697+347754256+347722989+347958776+348387876
2508+348855113+349205956+349353065+349325378+349275915+349356034+349523348
2498+349553364+349326164+349024872+348921840+349029501+349119897+349058469
2488+348963239+349019952+349221357+349336936+349194718+348964229+348993168
2478+349362760+349821234+350143022+350304979+350340846+350296361+350282125
2468+350341865+350368533+350306900+350252196+350245005+350209313+350173241
2458+350292518+350571393+350789538+350820311+350837400+351040115+351316108
2448+351408310+351318175+351268363+351334595+351384233+351334624+351260269
2438+351260560+351336371+351417684+351493757+351629628+351803987+351896975
2428+351921255+352045161+352320047+352602853+352765159+352823996+352905310
2418+353155508+353616748+354179739+354707648+355118668+355295152+355091768
2408+354590759+354221254+354385948+354990803+355567360+355859744+356046389
2398+356379007+356863858+357332813+357631601+357701997+357611630+357540564
2388+357651515+357896939+357989868+357655882+356865080+355701106+354107859
2378+351974765+349407361+346686443+344018366+341562378+339623760+338449364
2368+337790358+337055017+336012940+335073283+334812021+335422728+336695382
2358+338461126+340880198+344194471+348375561+352969300+357067009+359629086
2348+360063600+358673533+356745833+355762186+356101325+357038479+357917784
2338+358712603+359625039+360620360+361511660+362196053+362565528+362510330
2328+362235734+362233784+362818959+363936526+365363771+366859693+368206207
2318+369347356+370468796+371789952+373272570+374616784+375576209+376179405
2308+376616917+377062029+377602981+378170338+378551139+378635916+378552274
2298+378404962+378098574+377625165+377287656+377368445+377743161+378053129
2288+378151502+378195667+378365018+378642583+378888240+379029818+379107928
2278+379154160+379129996+379019512+378868327+378690038+378468632+378274884
2268+378229496+378335585+378483509+378632103+378858865+379189707+379463604
2258+379463197+379185253+378870219+378711378+378660313+378592945+378527877
2248+378562901+378690154+378811964+378919362+379134159+379532632+380034106
2238+380533776+381013182+381426939+381638795+381613234+381533522+381574892
2228+381673557+381645521+381426997+381064451+380574621+380000306+379509574
2218+379212037+378929610+378402254+377735650+377384603+377580767+377962732
2208+377967361+377515292+377047763+376873725+376818439+376651300+376532868
2198+376782775+377418491+378154414+378736561+379115119+379354808+379520288
2188+379688649+380007729+380612905+381421058+382120531+382511754+382781692
2178+383250326+383914514+384473167+384754401+384886079+385075781+385396579
2168+385760290+386050548+386315420+386717386+387240346+387657771+387866105
2158+388009982+388223090+388447553+388524499+388379807+388162127+388151297
2148+388438470+388814263+389054039+389158846+389256637+389429715+389703059
2138+390086742+390554357+391007038+391312494+391406326+391356105+391331010
2128+391509648+391969928+392613154+393220455+393631912+393880043+394131610
2118+394502163+394989488+395570413+396206186+396770254+397213997+397759113
2108+398634750+399713218+400648275+401231674+401473954+401580509+401912748
2098+402697028+403768917+404773555+405498473+405916858+406107521+406205399
2088+406275795+406260802+406174132+406243741+406702973+407505856+408360823
2078+408990482+409287757+409319170+409282022+409368430+409606605+409948335
2068+410489637+411355055+412339226+412982511+413120653+413092500+413302465
2058+413798379+414359972+414826598+415240966+415752601+416440458+417212277
2048+417889071+418422716+418974673+419698135+420507831+421207392+421803601
2038+422466886+423204934+423872529+424489845+425224807+426126704+427187035
2028+428484755+429976340+431384835+432555622+433692317+435061015+436629196
2018+438097316+439250576+440239143+441384747+442759122+444191054+445593960
2008+447023737+448533401+450166330+451930560+453680466+455214293+456538361
1998+457944265+459844366+462457769+465497447+468222703+469995462+470795027
1988+471116087+471514443+472294472+473435418+474722191+475965993+477132151
1978+478337058+479768553+481529697+483508956+485533662+487692084+490219195
1968+492941336+495256416+496963263+498619337+500719504+503073479+505318979
1958+507513821+509790763+511882429+513501937+514947522+516870332+519524056
1948+522619952+525967385+529753263+533800053+537088503+538817186+539534185
1938+540415441+542071748+544489714+547412386+550432471+553127653+555334781
1928+557297417+559632585+562846040+566614625+570068263+572993963+575821435
1918+578378620+579958651+580674951+581533383+583319476+585980130+588626518
1908+590205267+590606855+590805115+591686080+593191523+594746283+596118620
1898+597552095+599193030+600855160+602572954+604777811+607296742+608784425
1888+608220503+606517848+605451549+605732200+606765019+607707354+608341381
1878+608944664+609595053+610059699+610638294+612538221+616517818+621018599
1868+622703437+620313361+616197165+613034426+611515358+610821766+609983947
1858+608829027+607949285+607803369+608111270+608406711+608739125+609422295
1848+610617100+612287556+613712996+613300113+610514505+607003165+604424203
1838+602976055+601954240+600921072+600448041+601433522+603380437+604155255
1828+602746468+600583883+598796392+596798820+594031496+591110163+588921551
1818+587783982+587435207+587446037+587662988+588027660+588041634+587078221
1808+585337893+583860574+583634947+584924835+587053533+588748386+589153816
1798+588601772+588244611+589183569+591588376+593854488+593685690+591288802
1788+589131107+588871825+590366030+592629347+594871819+596455460+596923367
1778+596877484+597941222+601336517+606688102+611722411+613970414+613413945
1768+611533583+609506607+608631290+610028432+613000946+615268804+616150176
1758+617097694+618633589+620075041+621824685+625171477+629881058+633571445
1748+634478554+633516945+632693857+633251142+635267579+637870006+639749553
1738+640731017+642548611+646533856+650516480+650731569+647968029+645227605
1728+643593716+642997419+643309746+644402887+646557787+650873874+658315086
1718+667414993+673053808+671954029+667352632+663498106+661912602+662624070
1708+665441818+669379841+672437890+674260375+677289951+683384795+690336149
1698+694153411+693735287+689505317+683668182+680041670+680287211+683267294
1688+687552230+693521014+701224129+706166964+704085954+698684062+695013822
1678+694882870+697696426+701145523+703435799+705757342+709625494+712896418
1668+711989833+708308996+706026057+706283009+706925072+706153631+705220262
1658+706440512+711491765+721750143+735384020+742029977+737942370+733129670
1648+731929276+731007785+726692688+721110527+717774797+717640410+720798666
1638+727336264+735281425+738756374+734716280+728405300+724856520+724854831
1628+726938170+729452384+731424628+731939349+730490386+728793670+729813737
1618+734478309+739305100+739065848+734729789+731339326+731167325+732973973
1608+734442908+734691126+734389223+734275448+734492458+734996466+736050537
1598+738070119+740949354+743813276+745814457+747076514+748312485+749860083
1588+751807405+754348753+757171451+759354881+760819041+762976968+767283623
1578+773817494+780434337+783472821+782904183+782786799+785146131+787713564
1568+787330201+784553328+781580989+779737833+780860146+787380043+797888911
1558+801892323+794670333+785424511+779894404+778054218+777754352+777348282
1548+777313637+779148408+783210046+788906098+796126341+803273976+804690449
1538+799546674+794778052+793379280+792755850+790137294+787316926+787900296
1528+792831311+800383329+808316495+815846270+822574151+826844298+827857669
1518+827073593+826021385+826114722+829072853+835425466+844062531+853633547
1508+862194161+864744651+859174717+852598865+850423470+853385969+861089374
1498+871581182+879747604+881617660+880379593+881928530+888420013+896826851
1488+902153282+903548502+903826125+904705809+906025277+907490252+909638397
1478+913187526+918296191+925101979+933706205+941531245+944283838+943168861
1468+943717004+948225239+953408782+955095017+954916088+957718872+965201192
1458+972909198+972678214+965172137+958517970+955327224+953195557+949918927
1448+945945153+943013921+941664700+940973611+940026210+939043815+939487034
1438+942830042+947772703+950344969+949997125+949977328+951241772+951646911
1428+950601107+950636800+953206795+956871154+960077331+962775540+964383286
1418+963462902+960629025+957728421+955465395+954173352+954020683+954112506
1408+953543168+953210055+954557064+956846408+958070152+957958997+957832122
1398+958658180+960430765+962684358+964756110+966104690+966890106+967811363
1388+969433608+971661174+973679591+974956378+976183557+978039580+979895254
1378+981447453+984090114+989076736+995585628+1001262815+1004003297+1003431747
1368+1001531820+1001116434+1002884885+1005046480+1006153014+1007035027
1360+1009157843+1012436570+1015627491+1017837880+1019103837+1019631834
1351+1018883625+1016687560+1014871480+1015491124+1018185375+1021285695
1342+1024483603+1028702802+1034281237+1040424467+1045589727+1047835867
1334+1046068232+1041635575+1038121964+1038454553+1042010087+1045674039
1325+1047077877+1045814830+1043131993+1041416528+1042352109+1044930023
1317+1047208304+1049663826+1053866837+1058444361+1059736054+1057081515
1308+1054433030+1055715291+1060825702+1066664292+1070617047+1071998992
1300+1071398096+1070372496+1070009397+1069807002+1069712675+1071138872
1291+1073741823+1073633406+1067712716+1058181993+1050141631+1046435174
1283+1046167799+1046745288+1046078829+1043053853+1037668264+1031887434
1274+1028569347+1028067669+1027992324+1026583595+1024374254+1022432638
1265+1020619586+1018694273+1017063818+1015276735+1011955038+1007172324
1257+1003427787+1003080176+1005049974+1005023422+1000220796+992882411+986669891
1247+982453604+978859990+974595491+969338117+963298879+957337955+952397914
1237+947771713+941802347+934186572+925841454+917465766+909494520+902754586
1227+897891636+894614540+892212761+890015298+887027995+882456178+877189953
1217+873500090+872700526+873960894+875559382+876590571+877171612+877537855
1207+877414124+876587834+876137977+877932572+882198468+886748974+889548847
1197+890918739+892602878+896043765+901409324+907197548+911249811+912840614
1187+913461714+915115168+918097697+921265852+923861641+926410966+929981523
1177+934407075+938611484+942687854+948181161+955681997+963188249+967952737
1167+969918575+972187424+977357983+984403838+989457187+990143443+988532786
1157+989192141+995042143+1004294312+1011388262+1012944420+1011841496+1012377062
1147+1015571244+1021125806+1028719222+1034871186+1034238848+1026942968
1138+1018591445+1013368308+1012125757+1014690163+1019554742+1023090247
1130+1023467437+1023144630+1024678080+1028022369+1033627355+1043188356
1121+1054813249+1062157805+1061607915+1056841389+1053077987+1051159195
1113+1050130568+1051440661+1056487373+1062470015+1064363769+1061301761
1104+1056447662+1051254919+1045646440+1041473589+1042100105+1049356507
1095+1061047661+1070370167+1070241021+1062321887+1056921509+1059683767
1087+1064543921+1063262243+1058087666+1056172135+1058568383+1060448279
1078+1058241617+1053402890+1049837457+1050329353+1055307940+1062535578
1070+1067010856+1064880004+1058043531+1051883298+1049815447+1050565752
1061+1050222449+1046140432+1039865610+1035868487+1035638493+1034501332
1053+1027862828+1017693711+1010846757+1012761473+1021753369+1029746218
1044+1029392784+1021160509+1011725626+1007331865+1009826282+1015337873
1035+1016637951+1010341003+1001379850+996647793+997039307+999237469+1001979232
1025+1005882611+1009267658+1009097404+1005882727+1003444440+1003648931
1017+1005025053+1005703972+1005913121+1007282139+1009621092+1010474225
1008+1008732907+1006303820+1004323192+1000434486+991883247+981049534+974468907
998+974782514+976899508+974028658+965895716+957027434+950501191+946493004
988+943617728+940213757+935656147+930728567+926462671+923299465+921215893
978+919636678+917414469+914047879+910484193+907888229+905942653+903408351
968+900091719+896976318+894874812+893907032+893762689+893608389+892186967
958+888982654+885186295+882729958+882415245+883536102+885021165+886326367
948+888004102+891771697+898532359+905889376+909926384+910212159+909950490
938+911417503+914091258+917027613+920609699+925113100+929764804+934255629
928+939450992+945978283+953482497+961240577+968102670+972318025+972873854
918+970915352+968552760+966760319+965383091+964516566+964871747+966280651
908+966878752+965267395+963029931+963048505+965334996+966916366+965835743
898+962879998+960011127+959749341+964471558+973150313+980163794+981073523
888+978625338+978561056+981649032+983455563+981396679+978322560+977935588
878+981101588+986423943+991811628+995560591+996916333+996214007+993918142
868+990551261+987525586+986500220+987602911+988598116+987763150+987444069
858+991471004+998621900+1002348154+1000214274+998465620+1004280803+1016783284
848+1027403539+1030409533+1028387914+1024557667+1018672496+1011592171
840+1005901476+1001996117+999500885+1000732373+1006569099+1012103515+1013205856
830+1011955969+1011138005+1010360101+1008949044+1009074812+1014566140
821+1026844217+1041946271+1050476782+1045974138+1035574328+1031321940
813+1035863946+1042612730+1045678348+1046040516+1047076246+1047318817
804+1045168518+1043202563+1041599126+1037333462+1029371008+1020901285
795+1016409703+1018258623+1024696595+1030934153+1032547139+1029246636
787+1025730346+1026600132+1031646960+1037704015+1042116641+1042486961
778+1037093919+1027647275+1016964834+1007041897+999595095+995756464+994823096
768+995290770+997509078+1002758883+1009567291+1014541103+1015734976+1013037000
758+1008051310+1003799737+1001699745+1000643403+1000669022+1004371171
750+1011412019+1016109023+1014626696+1010474225+1008467512+1008083101
741+1006565140+1004972067+1006646424+1011582971+1016452092+1019235778
733+1021057797+1024156255+1029929864+1035791861+1033588925+1019370863
724+1001785105+993037293+996757725+1005674393+1009621092+1007814910+1007811533
714+1013991679+1023291244+1029264337+1028735176+1023578416+1016705028
706+1009900229+1004218851+1001691477+1005499248+1015973355+1028732032
697+1039889017+1049531186+1055069910+1051493531+1039852218+1025723941
688+1014711939+1009007386+1004538513+997357456+989803401+983809347+981122200
678+981578811+981927005+983088155+988556425+997739654+1005757424+1004839893
668+992935979+987782597+994058817+996034670+991372019+991375979+1001024319
658+1009745930+1005336913+992394008+986018106+992990246+1003222597+995730728
648+969621796+952129374+958887883+982470956+1004486575+1015127792+1017202048
638+1016285332+1011017826+996925300+975487577+958501958+959646281+979192113
628+999361724+999470957+979823752+960752058+955087099+959932580+964988608
618+961240169+949645030+939059769+935976276+940098178+945197410+944964679
608+942359864+942932870+944720943+950980626+967435745+978159527+964483436
##END=
