##TITLE=<SNM>
##JCAMP-DX=4.24
##DATA TYPE=INFRARED SPECTRUM
##DATE=29/4/2025
##SAMPLING PROCEDURE=Instrument type and / or accessory
##ORIGIN=Admin
##XUNITS=1/CM
##YUNITS=ABSORBANCE
##RESOLUTION=4
##FIRSTX=4497.3318
##LASTX=599.83466
##DELTAX=-1.4281778
##MAXY=2.0474761
##MINY=0.53492707
##XFACTOR=1
##YFACTOR=1.9068607e-09
##NPOINTS=2730
##FIRSTY=0.55556858
##XYDATA=(X++(Y..Y))
4497+291352475+289451645+287739144+286302027+285082715+284482874+284765290
4487+285374070+285530110+285288986+285625510+287396619+290149480+291994733
4477+291152205+288123086+285571558+285483192+287173781+288487304+288206576
4467+286547246+284130971+281732858+280527612+281454224+284193268+287234922
4457+289198861+289810768+289503783+288643438+287644776+287235453+287553722
4447+287499083+286313498+285022824+284899355+285671928+286544995+287659249
4437+289204707+290464216+290894295+290940651+291147673+291344910+291089533
4427+290231469+288783380+286838383+285016729+284413262+285371945+286740889
4417+287399557+288016059+289695801+291553339+291632953+289757036+287738988
4407+287211728+288209827+289552389+290065021+289246342+287174437+284640664
4397+283081922+283402629+284952931+286373107+287323507+288453452+289883068
4387+290934430+291356601+291629452+291905491+291688373+290654984+289000998
4377+287162622+285850098+285804868+286784306+287395244+286659493+285202683
4367+284359311+284631474+285373352+285610318+284890540+283590302+282654437
4357+282830138+283965429+285245225+286153551+286804405+287481860+288386904
4347+289496844+290205275+289686955+288049974+286366199+285213186+284112810
4337+282780501+281968762+282477048+283961959+285484317+286801873+288172630
4327+289274412+289360434+288311384+286879549+286017141+286114666+286624672
4317+286607730+285863352+285015916+284468995+284078145+283842210+283921011
4307+283944423+283442545+283050413+284030258+286343694+288283940+288559010
4297+287773090+287101294+286761488+286520801+286741076+287876554+289205332
4287+289219273+287588043+285773641+285263261+286072874+287300720+288318918
4277+288980587+289321549+289522788+289818332+290257601+290599564+290491786
4267+290003442+289742344+289966902+289991877+289142503+287846453+287122486
4257+287491206+288820077+290502101+291494011+291102067+289882193+288842489
4247+288033376+286964477+286058433+286384360+287956137+289421856+289665293
4237+288966021+288362898+288472926+289243092+290401263+291633547+292486984
4227+292754552+292905560+293367678+293538534+292461384+290386447+288553071
4217+287605204+287396088+287958825+289343617+290724064+290990382+290225937
4207+289516380+289363279+289200331+288493525+287559692+287071380+287281215
4197+287951542+288699703+289209927+289265816+288771065+287880243+287076787
4187+286861076+287152182+287271962+286917028+286752954+287499708+288851929
4177+289975591+290633760+290931305+290535172+289228838+287802442+287453509
4167+288541443+290414891+292145834+293157405+293410720+293129805+292320816
4157+290820495+288918415+287463824+287182158+288161065+289926923+291749045
4147+292924283+293118864+292596418+291874390+291046084+289821615+288485116
4137+288147436+289343774+291035081+291865512+291819188+291759485+292124829
4127+292886211+293902596+294586115+294057073+292351512+290816963+290691306
4117+291664805+292282682+291717631+290713937+290529889+291450563+292689973
4107+293418441+293586578+293761466+294288726+294890411+295217839+295298453
4097+295182767+294715929+293922226+293132430+292479888+291798902+291202530
4087+291134044+291680590+292415372+293006148+293431225+293643499+293603957
4077+293588016+293879465+294191639+294068388+293765561+294046852+295225591
4067+296809090+297787621+297246076+295332806+293494367+293124366+294147815
4057+295395978+296107473+296439245+296707939+296861572+296747011+296439495
4047+296170676+296123289+296333155+296617884+296598848+296043831+295289763
4037+295010223+295358812+295739816+295664797+295383694+295308893+295335119
4027+295189738+295027353+295275822+296056835+296978352+297520459+297550060
4017+297383455+297311968+297246201+296981009+296608476+296456031+296676806
4007+297049807+297356323+297906714+299149470+300667358+301410704+301129414
3997+300575209+300206303+299768347+299105052+298431348+297946318+297779869
3987+297972200+298195569+297991017+297424028+297068937+297378110+298363956
3977+299741058+301129976+302121699+302296650+301453684+299959333+298643621
3967+298090355+298282654+298934477+299735651+300347964+300562956+300585399
3957+300874661+301566119+302262360+302579972+302735262+303248581+304126837
3947+304823546+305112870+305288290+305265566+304384465+302647271+301316305
3937+301686619+303885588+307050366+310087143+311893918+311621598+309614647
3927+307437871+306264290+305888475+305882567+306885574+309473955+312442433
3917+313539182+311866661+308628238+305659073+304025873+303700947+304310165
3907+306240065+310384344+316433048+322101967+325027684+324522805+320916726
3897+315368119+310335425+308390459+310206830+313390332+314413375+313359636
3887+313524335+316223963+319131332+320260308+320444980+319831448+317169861
3878+313685157+312458750+314359486+317707624+321023066+323494042+323774863
3868+322231656+321580990+322849720+323462502+320905817+316576741+313558969
3858+313865234+318731136+328277859+337164601+336412003+327670329+318855292
3848+314083353+313784651+316312923+319420468+322108843+325078103+328719003
3838+331524721+331952174+330577698+328405704+325549661+322525262+320672257
3828+320448825+320939701+322005755+325158249+330371614+333675271+332698678
3818+330554817+329298777+327128971+323032892+319176343+318098286+320628652
3808+324999208+327981221+329356698+331982369+336164752+338112156+336395123
3798+333681523+330839983+326835865+322371035+319539092+319055281+320023685
3788+321590461+323557183+325651218+327538045+329464850+331608930+332951492
3778+332286041+330185128+328588095+329294213+332962714+338309832+342844773
3768+345556748+347203545+348254720+349211746+351584540+356203879+361432341
3758+364964682+367221291+370748099+377674434+387946812+397517417+401976901
3748+403607756+407360872+413332150+415807940+412492998+408368068+408156607
3738+413760385+424047766+434454398+439931549+439333114+435716127+433071012
3728+433658131+437379865+442336570+446449122+448808507+449719709+450343431
3718+451862195+455167603+461478655+471645537+483443368+491357955+492817704
3708+490679469+488779327+489674806+494000319+499725877+503660415+505193089
3698+506451348+509187767+513620901+519122621+524888096+529763281+531647575
3688+529369555+525160791+522319908+522246014+524267781+527016640+530681766
3678+537459687+547469560+554865015+555746866+554471352+554608199+554052870
3668+550305348+545428538+542715782+542929649+544458728+546085144+549046401
3658+555191536+563342746+569806087+573808861+578389721+585326496+590933555
3648+589563705+582982083+577503869+576605514+580207186+586303058+592145553
3638+595317802+595627318+595557550+597559500+602462880+609865148+616029225
3628+614614738+606576432+599344707+597555937+601766701+610262375+619458915
3618+625855989+630200788+635340291+640800500+643870098+644365412+643993754
3608+642701049+639465971+635210883+632384910+632668482+635828291+640370328
3598+644785207+647375620+646593044+643853594+643732375+649203775+658061353
3588+664291010+664174855+660352940+657094419+655527955+654442428+652722550
3578+650526988+648597495+647160877+646226263+646551846+649213527+654285262
3568+660169643+664669482+667470761+669642879+671332874+671643891+670640322
3558+670254785+671784739+674384279+677037396+679790600+682627638+685313013
3548+687897862+690194699+691392131+690194387+685757251+679299287+673854456
3538+671627199+672478729+675186735+678828729+682442216+684636027+684439227
3528+682588253+681193334+682076310+685093394+688159929+689882119+690477709
3518+689963953+688261767+686931614+687895236+690613806+692190585+690598115
3508+687207247+685581644+687656050+691010845+691871628+691128188+692852379
3498+697431676+701209142+702122626+701532475+700671692+699105604+696950678
3488+695701983+696554201+699350854+702718591+704602760+703542614+700094357
3478+696336020+694003861+693857824+696026441+699868237+703321370+703737476
3468+701125058+699129798+700322103+702274102+700980271+697145540+695497431
3458+698649612+704303559+707186671+703791178+696240934+690339174+689939134
3448+693991045+698419991+700547535+700410000+698264764+694075442+688939191
3438+684717360+682961599+684641278+689543720+695150842+698400486+698850726
3428+697925552+696143221+693418837+691181514+690973273+692221968+694032181
3418+697099341+701305917+703750105+702143131+698049896+694150586+690808856
3408+687398609+684375961+682662710+682634640+684609708+688853794+693790307
3398+695742056+693373075+690507029+690791539+693851885+698594661+705384335
3388+712504469+714972351+711072603+705653904+703434774+703775424+703876574
3378+703554492+704199407+705657593+705719171+702453710+697470811+694319629
3368+693721789+693282177+691331490+689299845+689797535+693551183+698685684
3358+702274102+703022794+702101495+701058041+700609114+701221208+702166700
3348+700764528+695985743+691098931+689756587+691804736+694730735+696980498
3338+698887861+701809108+706191417+710219885+711494461+709590974+706072949
3328+703034859+701870311+702475466+703879138+705303064+705767058+704036928
3318+700310662+696266753+692957844+690596427+689938696+691676453+695004305
3308+698304899+700586733+701719460+701545353+699551405+696069640+693127762
3298+693002418+695775689+698993825+700167688+699360857+698856603+700907002
3288+705847954+711225830+713732221+712949646+711767968+712824551+715725293
3278+718024006+718045012+716211230+714116819+712897882+712771788+713639260
3268+715166775+716599704+717398409+717804825+718319457+718916422+719203433
3258+719010634+718765446+719459061+721454196+723453520+723807986+722549664
3248+721214260+720841040+720573659+718849217+716264181+715498110+717471615
3238+719974068+721075975+721128426+720224507+717256873+712452518+707894978
3228+705615894+706392406+709022016+710389241+708389354+704955413+703857945
3218+706066510+709330720+711383370+711735710+711391122+712293603+715513239
3208+719371601+720641676+717798449+712400943+707281258+704379453+703711657
3198+703905269+704126576+704435217+704386330+703191524+700866492+697812023
3188+694364453+691624753+691051543+692406890+693581628+693322812+692707905
3178+693219973+694706979+696135156+697412296+698819156+698851601+695534190
3168+689580355+683505988+679263653+677612605+677966321+678888557+679800540
3158+681548487+684500305+687295583+688758957+689780843+691731467+693955411
3148+694273743+691660262+687271014+682988856+679593300+676565963+673589701
3138+671376697+670490158+670576555+671675586+674261873+676913176+676887232
3128+674109146+671386075+670435269+670500223+670194583+668990524+667547155
3118+666841725+666605664+665590530+663608773+661899460+661455159+662108451
3108+662920409+662862019+661860325+661264235+662266054+664058450+664825334
3098+664452739+664624908+665829028+666015576+663518750+659749098+657111548
3088+655876294+654891668+653847213+653133593+652696106+652240364+651677033
3078+651022803+650716099+651748363+654449742+657479517+659178014+659422139
3068+658905319+657714827+655958440+654407981+653431919+652457420+650861887
3058+648179325+643990754+639313620+636990275+638785172+642861215+645587787
3048+645662869+644746197+644384542+644556023+644719753+644424490+643392663
3038+642374778+642745498+644229815+644427803+641990179+638969344+637884129
3028+638083617+637143940+634568906+632001687+630627710+630136959+629744734
3018+629083002+628275983+627684770+627376128+626771286+625257899+623158424
3008+621669668+621638285+622494004+622922864+622689054+622557645+622480688
2998+621731997+620610772+620220860+620607459+620596769+619611267+618392330
2988+617737100+617410891+616723215+615743652+615085296+614710075+613940441
2978+612684682+611718060+611421234+611135786+610132404+608608952+607350505
2968+606685585+606207025+605445768+604441323+603456821+602437123+601088215
2958+599379841+597913216+597596385+598609394+599820954+599761313+598323446
2948+596829001+596234474+596214218+596042862+595467777+594832240+594761847
2938+595362438+595682270+594775225+593158874+591928059+590941807+589512691
2928+588181914+587965671+588395843+588078950+586927280+586290867+586848197
2918+587523558+586799685+584627942+582399497+581099164+580445872+580008260
2908+580136293+581088849+581942317+581367420+579301579+577147466+576396648
2898+577373898+579171358+580558588+580919180+580272327+578584896+575838068
2888+572819983+570720634+569778455+569186491+568393226+567675042+567222864
2878+566511932+565046182+563326617+562460333+562708334+563119127+563012849
2868+563009911+563802239+564827189+565050933+564282299+563096183+561937574
2858+560622175+558725690+556479178+554928531+554910714+556110646+557332584
2848+557540825+556507310+554777180+553190149+552203397+551740153+551482337
2838+550986523+549896681+548385670+547056142+546234495+545714111+545275499
2828+544967858+544684410+544079256+543249168+542821684+543008669+543240354
2818+542980912+542186396+540874311+539129552+537478254+536560895+536532888
2808+536830901+536477811+534993494+533007486+531628820+531158137+530811736
2798+529926072+528945259+528719826+529169691+529282533+528353858+526631917
2788+524769816+523204478+522055371+521336218+521187212+521685995+522401116
2778+522622985+522152771+521382355+520588809+519616153+518250492+516528645
2768+514670076+513028781+512096792+512170123+512833481+513124086+512444788
2758+511068123+509708775+508926387+508883720+509319926+509718434+509645665
2748+508988216+507947199+506806689+505686433+504650887+503945801+503780415
2738+503937892+503841899+503013437+501474106+499770389+498508597+497840989
2728+497590143+497694076+498062889+498174480+497424007+495905963+494410643
2718+493619034+493563582+493774073+493749974+493350590+492841554+492496653
2708+492189824+491604737+490724074+489772331+488889136+488167295+487649038
2698+487069608+486057537+484721445+483645357+483250350+483381415+483501227
2688+483240629+482775822+482550515+482669232+482819115+482725090+482386848
2678+481882406+481187228+480289499+479325565+478414050+477475560+476473147
2668+475663753+475241426+474879865+474049590+472722219+471425794+470675258
2658+470598582+470984024+471377156+471237495+470390185+469292842+468540024
2648+468270080+468330377+468640550+468994672+468923841+468223005+467346375
2638+466935832+467085839+467305427+467188116+466853311+466515506+466009783
2628+465200763+464454229+464158809+464079039+463628549+462624698+461531450
2618+460966493+461000564+461064174+460658508+459926727+459335857+459102047
2608+459074071+458899276+458296528+457400956+456790831+456943526+457632390
2598+458006298+457412615+456102436+454859493+454054568+453545000+453326819
2588+453552565+453933287+453887869+453371862+452951286+453006956+453322693
2578+453415780+452933344+451885795+450794578+450364624+450763382+451473877
2568+451960064+452107539+451971441+451552459+450901261+450175576+449606461
2558+449401378+449489744+449522878+449361336+449245369+449260467+449087579
2548+448494677+447609669+446648267+445851438+445592653+446038049+446802650
2538+447319189+447393364+447145175+446685120+446107566+445584026+445269289
2528+445152041+445020069+444708833+444474273+444759847+445415921+445661140
2518+445057829+444028066+443272654+443152154+443645624+444506219+445376317
2508+445900451+445892355+445553581+445368252+445516102+445620285+445352779
2498+444964368+444876658+445057266+445140694+444971026+444699675+444400880
2488+443924289+443264964+442787967+442806722+443160406+443480926+443652938
2478+443715329+443604426+443375492+443325386+443511808+443572887+443344016
2468+443106674+442987424+442759897+442400087+442192971+442203380+442182437
2458+441995108+441757610+441592130+441482414+441387671+441414272+441766737
2448+442463822+443193540+443550975+443395904+442961543+442613079+442469604
2438+442336195+442078536+441873296+441932967+442170153+442301030+442153930
2428+441788649+441438090+441382201+441738198+442274054+442543780+442339384
2418+441940688+441846039+442342572+443315790+444296322+444729714+444465052
2408+443964799+443755371+443743399+443456232+442905403+442706227+443311445
2398+444544854+445816054+446494759+446280829+445494566+444839929+444791292
2388+445333556+446101252+446522641+446079653+444738247+443028060+441547743
2378+440455151+439532916+438652784+437890152+437175875+436338317+435720440
2368+436115354+437560817+438743088+438366336+436988265+436574002+438132964
2358+440773483+443362208+445933397+448823230+451589625+453472919+454105425
2348+453486673+451953781+450335710+449545821+449711019+450146693+450203802
2338+449856838+449538507+449507811+449602304+449650473+449754187+449974493
2328+450153445+450302108+450674078+451279733+451793427+452057213+452248325
2318+452459160+452570720+452610574+452827723+453345168+453994334+454553008
2308+454983306+455361621+455708304+456016070+456411327+457107037+458138082
2298+459292439+460313107+461048170+461460838+461643822+461817867+462196589
2288+462750980+463130734+462987416+462384731+461714184+461302454+461275759
2278+461608688+462108910+462515858+462684995+462548616+462026701+461171108
2268+460290757+459811541+460012811+460801607+461714434+462271983+462351816
2258+462220126+462309555+462882733+463742359+464437662+464853675+465295350
2248+465916322+466421857+466467713+466113341+465750654+465679886+465830362
2238+465870028+465531223+464811133+463908026+463086160+462619009+462630856
2228+462858664+462808433+462344158+461902107+461938273+462384731+462802462
2218+462909552+462860446+463037210+463574316+464189661+464603642+464962265
2208+465633249+466688113+467783924+468554747+468951129+469090884+468988326
2198+468751734+468855949+469714137+471061044+472236595+473000103+473622293
2188+474297216+474940411+475509682+476085111+476589052+476778163+476617309
2178+476428355+476569391+477114874+477835371+478368070+478485100+478303616
2168+478213905+478526923+479178683+479795779+480087384+480127551+480174313
2158+480329884+480516807+480673191+480831637+481047161+481304540+481544351
2148+481818265+482294793+483013977+483790019+484428808+484868951+485074910
2138+484980918+484632078+484321968+484444937+485072472+485793907+486179443
2128+486240240+486279406+486543724+487071515+487631752+487925358+488016444
2118+488295453+488940712+489754858+490528837+491231829+491892154+492547010
2108+493246438+493952744+494495102+494723691+494700498+494635700+494559524
2098+494229753+493587838+493099057+493297795+494140636+495094724+495687282
2088+495720040+495211629+494454310+493915860+493820523+494003038+494287361
2078+494729912+495350633+495895179+496065628+495875111+495606136+495444438
2068+495378953+495485918+495958132+496734174+497457735+497892440+498030944
2058+497873466+497502434+497213735+497239648+497549008+498105744+499021291
2048+500265297+501450725+502112675+502174535+502037031+502165220+502693824
2038+503530476+504616785+505805745+506672092+506869049+506654994+506719667
2028+507488394+508828831+510347376+511725510+512880336+514058638+515590874
2018+517351324+518755089+519488621+519897382+520489596+521438870+522638333
2008+523898905+525087647+526285078+527643613+528948635+529669007+529634373
1998+529331545+529447887+530377438+532013606+533788498+535142469+536020631
1988+536664734+537233129+537949562+539126426+540747653+542450151+543959788
1978+545220923+546325393+547542767+549099665+550955327+553104502+555701792
1968+558495319+560757147+562223648+563373504+564530238+565610889+566855895
1958+568821085+571494332+574238034+576655590+578835898+580861041+582748398
1948+584753286+587248175+590313021+593513778+596137886+597906964+599255997
1938+600595089+601866852+603125362+604840113+607264108+610008748+612461938
1928+614480329+616612187+619382646+622419423+625059473+627650573+630749929
1918+633267948+633398169+631526127+629985358+630198850+631555072+632626471
1908+632950492+633343717+634553277+636308288+637917512+639176022+640337006
1898+641595078+642807764+643535700+643513257+643178046+643285511+643905294
1888+644254884+643693928+642414601+641153840+640610139+640951164+641697480
1878+642159598+642036566+641672348+641859208+643274070+645712632+647506216
1868+646347919+641983115+636926571+633621038+632351276+631852836+631110083
1858+630084571+628954157+627584056+625976520+624632926+624067844+624309594
1848+625342295+627405261+629731543+629714351+625882246+620435102+616239279
1838+614077726+613042149+612198183+611838091+612801399+614582605+615164629
1828+613728699+611603906+609519685+606781672+603369549+600529635+599185854
1818+599068761+599291756+599485493+600173606+601669677+602966571+602694564
1808+601052206+599595458+599598834+601415924+604498900+607393578+608629520
1798+608341196+608314814+610232492+614019649+617212903+617086058+614455760
1788+612459062+612719566+614742521+617513918+620516373+623139357+624622424
1778+625374429+627104621+631179039+637196578+642525191+644350658+642968867
1768+640486107+638360938+637758097+639417521+642229366+643955620+644531267
1758+645681624+647495088+648965026+650842194+654906109+660892265+665829966
1748+667477825+666838474+666143046+666617417+668221703+670160574+671553180
1738+672816628+675999943+682266233+688591101+690069792+687505386+684629338
1728+683093132+683207224+684726113+686972500+690056164+695505495+704491794
1718+715063061+721493581+720466381+715490483+711421880+710679377+713624756
1708+719431929+726217665+731663933+735787488+741380482+749651098+756900827
1698+759620148+759394153+757783116+755277474+753658748+754339735+757135325
1688+762057209+770793757+783764700+794239880+794338780+788412326+784380045
1678+785763211+792587270+801792500+809416387+815222685+820774043+823904969
1668+821591565+817296591+816532145+819730214+822796436+823053001+822755237
1658+824781818+829998528+838892929+850609176+858412672+858687618+857742751
1648+858501945+857296887+850916630+843314497+839335604+839899686+843898959
1638+849712884+854569939+854392331+848948564+842965971+839362736+837905676
1628+837396796+837159923+836876350+835551011+832550431+829613117+828920502
1618+829855679+829201137+825526196+821621885+819719023+819376936+819474336
1608+819573111+819625499+819596679+819662009+819823863+819481963+818316414
1598+817271335+817690692+819377936+820457587+819747155+818358613+818312288
1588+820327679+823458605+826386604+828416498+829652752+831116064+834307130
1578+839693071+844890463+845882342+843382827+842144948+843949035+845685541
1568+843483853+838560844+834632276+833598824+836593028+845194228+857270130
1558+861155061+852171763+841024536+834415095+832704408+833477918+834147464
1548+834613459+837070650+843163459+852620941+863758540+871917565+869689120
1538+859378357+851749093+850882933+853470158+853896454+851526598+850621679
1528+853140949+857176544+861021340+865939660+872795352+878922920+881966823
1518+883055539+882653811+879760696+875468786+873044666+875543868+884680517
1508+898656593+907493479+902234508+892337601+888134776+890077023+894706958
1498+898918848+901140166+901098030+900508879+902098036+906737723+912022325
1488+915100800+916434579+917611755+918701284+919241047+919660216+921582521
1478+927039729+936929384+949572306+960302927+964080581+961450283+958335798
1468+958607993+961418400+963582953+963938294+964855154+968744524+975483935
1458+981557739+981478219+975248125+968557101+964559641+963774252+966001322
1448+969852120+972810814+973187535+971619259+970200084+970823681+974399220
1438+980506908+986474560+988624235+987622853+987449934+989637244+992338310
1428+993270861+992661392+992767107+994970671+997825089+998730070+997603844
1418+997209931+998585283+999520710+998617041+997182237+997172547+999193939
1408+1002610438+1005667595+1005744865+1002436706+999395803+999976389+1002842622
1398+1003578123+1000676756+996869031+994773183+995053442+997661859+1002043293
1388+1006085014+1007062952+1004978794+1003002163+1003401203+1005780061
1380+1009588348+1015702600+1024622569+1033964397+1038471800+1036207971
1371+1032447634+1032035528+1033971523+1035090497+1035562618+1037957793
1362+1042641992+1046755482+1047221601+1043781908+1039085394+1035920022
1354+1034620002+1033825674+1033025094+1033033283+1034928143+1039411915
1345+1046168644+1053263584+1058418778+1061046575+1061511944+1059895531
1337+1057618198+1056787861+1056291484+1053050404+1047573566+1044137562
1328+1045426391+1050210178+1055891006+1060869905+1064150119+1064578229
1320+1062088967+1058629582+1056615191+1057054804+1058875270+1059588327
1311+1057951283+1055510659+1054928010+1057227973+1060878657+1064256271
1302+1067624883+1071423605+1073741823+1071545761+1064818665+1056960780
1294+1051261947+1048292812+1046183898+1042940005+1038505683+1034380441
1285+1031218319+1027808572+1023067671+1017988747+1014555369+1013021851
1277+1011330356+1007569456+1002171701+997213432+994172404+992582810+990487524
1267+986575836+981659828+977130107+972730481+966943626+959183203+950666961
1257+943291637+938143508+934613730+930657842+924649805+916998410+909345203
1247+902776209+897171213+891568967+884864064+876648275+867754125+859854041
1237+854292681+851093487+849016581+846593461+843135451+839091104+835781508
1227+834427036+834888592+835636595+835369152+834292252+833665404+834525374
1217+836866660+839696947+841694645+842179269+841649509+841438392+842932462
1207+846736123+852126814+857441486+861558727+865104322+869547521+874990538
1197+879802645+882967454+885651453+889308389+893226766+895333118+895171014
1187+894752844+896376822+900690238+906735097+913173557+919353138+925407562
1177+931889032+939487977+948448144+957725392+965253506+969861184+972601636
1167+975171981+977611730+978842857+978852610+978973453+980258469+982592442
1157+985564452+989627804+995303006+1001814109+1007068828+1008684804+1005733487
1147+999741766+994332508+993011732+996657915+1003038172+1008249630+1010151054
1137+1010023084+1009556277+1008464873+1006596895+1005173343+1005043498
1128+1005705980+1005740238+1004792496+1005180158+1009302525+1015928407
1120+1021502959+1024301237+1024960593+1024819245+1025537803+1027849520
1111+1030096282+1030923994+1032491395+1036800560+1041028516+1040215933
1103+1033491713+1025877078+1022973085+1024907017+1026661966+1024469530
1094+1019548521+1015279179+1014583626+1018055014+1021675565+1019356597
1085+1010455445+1000820917+995203793+993369074+993543056+995344829+997618911
1075+998201872+996828709+993995421+989747272+984686352+980982780+980823989
1065+983696099+986585963+987303459+986696679+986082834+984527249+980696644
1055+975893165+972541245+970217151+967243202+964407664+962794064+961061621
1045+958230396+956824537+959303483+963672539+966396673+967606920+969237525
1035+969990343+966647800+960079557+955403923+955989823+960175707+963363647
1025+962618582+959203770+956701880+957359674+960431960+963536254+965309332
1015+966262389+966681246+965139539+960550740+954487314+949739162+946987895
1005+944268199+939835378+934277894+928831063+922974752+915243461+905805860
995+896857945+890526701+886963477+884313799+880596598+875709785+871460573
985+869814714+871025024+873051730+873207082+870918497+867811264+864753107
975+860717950+855272556+850086917+846618530+843824628+839437005+833135456
965+827219630+823684913+821995856+820540921+819372184+819928327+822406836
955+825432422+828497332+832748232+838702630+844831823+849379986+852553798
945+855776560+859629734+863483407+866915973+870754892+876396836+884470464
935+894109242+903128550+909637465+914277902+919947352+928629761+938664453
925+945653429+946604610+942079452+934315778+925719329+919167528+916653385
915+916722527+916057232+914062472+913017454+913774086+914465888+913859357
905+913328534+914403184+916706211+919137583+921281819+923241383+925366489
895+927972468+930668720+932790513+934545400+936679758+939268483+941935728
885+944790646+947985025+950838443+952412721+952715173+952280187+950974165
875+949417392+950379075+955410050+961322688+963138715+960025793+954821712
865+949710967+945761894+943372970+942188792+942114211+944511012+951066376
855+961010545+971045237+978071347+981413890+981836998+979071166+973681662
845+969665884+969779351+971883077+973428972+975123093+977763644+979619806
835+979760592+980287289+982886204+987037141+991872816+996368966+998187681
825+996343459+993925903+994267678+997177110+999564534+999892305+999248890
815+998990199+1000675755+1004596633+1008910862+1012171821+1014122070+1013363126
805+1011217077+1012196703+1016390526+1018584712+1016136961+1012308794
797+1009886549+1007443674+1003410455+999150115+997213370+997656045+996112901
787+988412556+977389048+969328736+965474375+962355827+958455141+955415176
777+953236369+949773420+945297463+942668103+942245307+940814878+937419510
767+936195322+940680782+949237658+957491207+963473800+968857803+975340211
757+980892007+981406763+977253826+974174225+975731499+979720582+982855634
747+984395528+984366770+982182274+978062033+974658787+974013872+975900480
737+980431889+987128102+992112189+991223087+984709733+975650040+966970570
727+962014114+963612961+971714971+982378387+989765339+991627440+991309734
717+992107313+992375507+988704005+982814998+979621181+979439885+978296968
707+975345713+974312198+977591412+983284369+987418801+986921799+981838811
697+975839089+972259611+970583432+968431444+964494999+959388630+955094032
687+953537571+956166118+961420900+963294254+957362737+947348362+941102640
677+940993112+942337393+940698786+936677445+931572576+925385806+922222122
667+928057927+938453212+944729130+945891115+945747640+946704385+947105550
657+942656537+931300632+915925011+902856042+897256610+899352334+905175948
647+911571397+920072447+932129094+942022000+941438851+932908231+927871692
637+931477865+936773782+934259264+925949951+921679233+922755633+921239933
627+913495889+904064789+897189405+893313789+890602845+887591262+886114572
617+886287366+885105939+879760259+871609736+867908352+873604809+883309792
607+883770347+869384167+849863235+837528642+838667433+853081809
##END=
