##TITLE=<SNM>
##JCAMP-DX=4.24
##DATA TYPE=INFRARED SPECTRUM
##DATE=29/4/2025
##SAMPLING PROCEDURE=Instrument type and / or accessory
##ORIGIN=Admin
##XUNITS=1/CM
##YUNITS=ABSORBANCE
##RESOLUTION=4
##FIRSTX=4497.3318
##LASTX=599.83466
##DELTAX=-1.4281778
##MAXY=2.1141376
##MINY=0.38498485
##XFACTOR=1
##YFACTOR=1.9689441e-09
##NPOINTS=2730
##FIRSTY=0.39670926
##XYDATA=(X++(Y..Y))
4497+201483251+202273285+202847113+203162219+203226790+202949873+202368386
4487+201635370+200945190+200724065+201414715+202739722+203620301+203240579
4477+201945889+200738354+200216821+200402467+201107435+201880138+202044713
4467+201415623+200644449+200507860+201134998+201922912+202029562+201141688
4457+199792932+198743237+198302910+198490644+199370390+200753293+201899694
4447+202160490+201860884+201838347+202126010+201967867+201205638+200576124
4437+200411987+200188547+199563119+198931380+198854442+199459845+200341498
4427+200977612+201356531+201869769+202469496+202473159+201457096+199886110
4417+198629246+198155317+198365437+198976168+199781883+200601205+201249322
4407+201556299+201351839+200642390+199835798+199468124+199560379+199566162
4397+199037908+198152305+197603148+197843859+198358036+198119308+196936520
4387+195761588+195528581+196207606+197024159+197332816+197228543+197200843
4377+197362680+197494198+197651781+198063334+198657339+199267948+199901095
4367+200455035+200654257+200422794+199957568+199460329+199078261+198970613
4357+199224220+199757256+200307336+200584328+200565075+200406039+200019309
4347+199267025+198600124+198722546+199473240+199899158+199626525+199291546
4337+199425334+199745874+199774103+199528397+199309436+199185229+199022046
4327+198934528+199274835+199952876+200221135+199613311+198686476+198348046
4317+198942384+200237437+201574735+202037085+201244130+199943931+199333972
4307+199906030+201144746+202093270+202178744+201721359+201563488+202110056
4297+202923975+203302410+203030080+202497498+202246948+202459839+202800827
4287+202806654+202474627+202235384+202326277+202633088+203138258+203826758
4277+204224356+203912868+203257108+202748002+202175278+201304190+200679898
4267+200939832+201931616+202955413+203409726+203221159+202964495+203330064
4257+204326661+205277820+205549227+205051609+204274971+203989987+204558654
4247+205455579+205844640+205583526+205216276+205196478+205533637+205905124
4237+205788515+204893497+203698479+203049832+203123591+203304166+203140377
4227+202952552+203303197+204144906+204793825+204816877+204606151+204714390
4217+205004430+205107659+205388662+206578064+208488161+209891574+209933350
4207+209147827+208655008+208717778+208687308+208215422+207759172+207775898
4197+208113889+208452258+208795502+209154048+209193448+208694483+208023965
4187+207682598+207635070+207545691+207449364+207596246+207887648+208118112
4177+208491022+209226838+209966271+210199687+210001236+209810989+209770091
4167+209710606+209588820+209616550+209966968+210463238+210725866+210686679
4157+210714454+211028151+211303252+211162712+210743000+210433132+210317477
4147+210204712+210059768+210168945+210747738+211445138+211580199+211029952
4137+210536739+210824827+211737237+212561342+212969989+213265235+213751682
4127+214300763+214645172+214729753+214601020+214279149+213878357+213616758
4117+213676092+214106384+214674445+214890575+214536827+214000234+213746037
4107+213793640+214029235+214562090+215388526+216121920+216426445+216417802
4097+216413534+216524452+216590612+216399230+215970316+215651275+215794040
4087+216334402+216914224+217374622+217765756+217958561+217783329+217518355
4077+217649737+218139862+218504296+218554836+218471088+218243212+217728672
4067+217262387+217523153+218597308+219682679+219948925+219398361+218783438
4057+218847903+219629052+220457335+220696547+220338576+219692563+218873090
4047+218003319+217528420+217822517+218671627+219473664+219784607+219569657
4037+219247120+219468533+220480024+221707479+222328562+222207367+221901933
4027+221954910+222497043+223265220+223758100+223612142+222980644+222363239
4017+222057352+221961751+221875869+221757383+221653594+221617812+221853058
4007+222686972+224080410+225373707+225909665+225749266+225411714+225169671
3997+225019581+225003763+225043435+224745933+223964936+223343399+223685053
3987+224864722+225859867+225916309+225341649+225021715+225431785+226312620
3977+227135046+227622053+227798768+227746654+227461806+226938169+226335370
3967+225975689+226056168+226416530+226735344+226821651+226655834+226425733
3957+226522575+227146246+227911926+228224670+228063273+227956986+228101159
3947+228074201+227748137+227801159+228786722+230197719+231076798+231106375
3937+230599993+230071679+230041528+230693520+231573568+232018936+231836529
3927+231308307+230830744+230654120+230763646+231106253+231868013+233125997
3917+234280193+234377125+233183106+231486566+230253828+229829334+230067396
3907+231068458+233209852+236147257+238547298+239676957+240102648+239912795
3897+238258514+235322683+232902632+232588102+233880975+234660898+234370722
3887+234755938+236768401+238876979+239651725+239899823+240049671+238867353
3878+236493422+235209903+236347766+238907464+241378084+243077576+243422273
3868+242421937+241419194+241427822+241647645+240733736+238780274+236844007
3858+235905608+237331771+242856270+250761435+253782045+249689414+243363892
3848+238828982+237462699+238789008+241190713+243285124+245288187+248043035
3838+250677036+251202655+249721715+247981779+246814778+245974553+245380730
3828+245264408+245489620+246137903+248273438+252157114+254991608+254485969
3818+252838848+252370262+251895515+249664091+246608457+244749899+245433343
3808+248676394+252430292+254435807+255160952+256044543+256621020+255955845
3798+254863707+254158300+253277389+251764163+250371149+250018581+250833892
3788+252462956+254524778+256469234+257779241+258620602+259504737+260347945
3778+260607833+260321153+260219892+261068942+263266354+266502654+269793657
3768+272502854+274797683+276767053+278412691+280438822+283676757+287702167
3758+291094945+293448351+295867418+299732264+305559759+311907153+316344389
3748+319200831+323051056+328470237+332070260+331735478+330815500+333329349
3738+340524854+350205935+358173204+362383427+364239095+365588032+367254134
3728+369664906+372834274+376011513+378693101+381616869+385662714+390420262
3718+394682917+398238712+402559127+409388457+418259509+425898232+430133158
3708+432221559+434270818+437559036+442541992+448482616+453589810+456841277
3698+458742413+460084509+461265405+462664958+465006649+468885995+473472898
3688+476521721+477050277+476271853+475509836+474915589+474264612+474572754
3678+477821345+483913785+488946085+490802267+492471396+495796122+497962595
3668+496674142+494315015+493793330+495234811+496934878+498015209+499563399
3658+502739155+506316625+508131455+509054096+511902910+517276744+522312858
3648+524642016+525351904+525696767+525619935+525339553+525877372+527891091
3638+530645455+532968982+535107182+538439506+543454793+548892925+552321758
3628+552114089+549830885+548742229+550614092+554753660+559042289+561752455
3618+562961050+563928253+565412871+567454260+569749694+572046763+574341350
3608+576616744+578424611+578743318+576952949+574220623+573123189+575301287
3598+579854012+584098504+585410812+583394368+580885332+581668600+587239991
3588+594841449+599359179+599207394+597025118+595052205+593788030+593617839
3578+595026171+597289396+598535952+597555127+595173355+594038746+596597793
3568+602232271+606705562+607081969+605171478+603664337+603282663+603478767
3558+603606880+603402420+603215337+603899493+605885120+608794478+612174996
3548+615747320+619311409+622979817+626253353+626998114+623829140+619305234
3538+617629415+619385395+621263070+621570153+622511746+625788490+629480026
3528+630246462+627420474+623646294+621457419+620638127+619280107+616107440
3518+611671203+608297042+608251573+611184968+614094568+615090409+615971275
3508+618760270+621628882+621235038+618226931+616972867+619436010+622749687
3498+623762177+623281754+624615677+629239542+635338036+639951125+641164745
3488+638923619+635064374+632124743+631314775+631630879+631404624+630528541
3478+629952275+630150560+631353705+633940421+637520191+640297986+640336129
3468+637332563+632668375+628203137+625593899+626070749+629340168+632874409
3458+634239330+633793721+633501108+634197191+635295837+636465925+638223601
3448+640138995+640245554+637707517+634403225+632095258+630536775+629925636
3438+632298325+638037365+643286052+643758120+639810721+635193516+632702946
3428+632680060+633910390+634940318+634946433+633625164+631182000+628707777
3418+627703642+628832802+631116188+633121795+634560762+635843404+636682191
3408+636486813+635931678+636213332+636995147+636720819+634851680+632593723
3398+631118368+630614514+631554048+634778360+639152055+641366238+639814112
3388+636360274+633281814+631390577+631276874+633000160+635036887+635881607
3378+635452405+634179088+632649061+632070616+633337395+635824090+638078899
3368+639036596+638170563+635783162+633477314+633184035+635719953+640346603
3358+645011397+647425923+647060353+645492607+644283467+643833438+644058846
3348+644526433+644630570+644576988+645202416+646223685+646139407+644443366
3338+642152715+640286482+639483719+639816958+640506139+640766300+640774413
3328+641767650+644629481+648201259+649953304+648937908+646930182+645943302
3318+645985744+645838741+645182436+644911559+645621688+646876842+647679605
3308+646949375+644344436+640983534+639190259+641047651+646454785+652756467
3298+656633936+656563099+653828594+651531343+651998870+654200036+654904414
3288+653161996+651541030+652444601+655473898+658771773+660829145+660673121
3278+658244064+654835393+652066438+650620508+650813827+653152854+656912442
3268+659175243+657556154+653771440+651837882+653793538+658412379+662795034
3258+664289521+661873421+657057084+653106840+652335681+654177756+656240395
3248+657055207+657262815+657998131+658872458+658342873+655929316+653148676
3238+652096650+653718523+657124954+659919217+659955181+657539565+655020236
3228+654337110+655941122+659298149+662911582+664291277+662101130+657907496
3218+654467947+653103873+652920301+652370857+651414431+651187994+651911867
3208+652525428+652664499+653147647+654152266+654482417+653223025+651336268
3198+650718832+651861433+653024620+652198365+649370561+646177853+644146818
3188+643874245+644885343+645673091+644752931+642250555+639791165+638783579
3178+639080551+639394779+638849149+637847920+637214440+636984612+636381041
3168+634538119+631639416+629308745+628636032+628572581+627679606+626406591
3158+626117369+626781182+627221766+626817751+625880336+624982941+624187262
3148+622908435+620922082+618909816+617423502+616323766+615665887+615637128
3138+615356442+613566315+610722284+608678111+608329494+608750644+608668061
3128+608050080+607936740+609010078+610530902+611109650+610521639+609982003
3118+610443415+611542424+612453381+612858849+612677760+611618226+609476273
3108+606711495+604409886+603397637+603330312+602594087+599905354+596249721
3098+593959554+593893076+594880016+595859509+596833736+597495914+597112484
3088+596191355+596230044+597559001+598822995+598512097+596358096+593447224
3078+591552596+591932696+594111097+596030972+595804414+593373480+590313910
3068+588183339+587184653+586409317+585077877+583212855+581467228+580572437
3058+580774051+581719760+583008274+584672650+586625341+588078052+588302613
3048+587429375+585893718+584076224+582489708+581243273+579579079+576957429
3038+574167828+572450294+572179719+572937074+573933096+574150512+573135298
3028+571663515+570730035+570218916+569327334+567851433+566378440+565381751
3018+564744457+564262642+564099655+564446153+565127584+565790974+566090549
3008+565729036+564752752+563623107+562646399+561663939+560575525+559630663
2998+559035447+558982774+559878655+561613020+562946580+562712029+561310599
2988+559978735+559099928+558094703+556445705+554259372+552145815+550824607
2978+550447655+550266565+549552500+548622593+548349052+548929373+549641985
2968+549567334+548322472+546445826+545059956+544850048+545485889+546220539
2958+546631033+546524292+545815918+545031258+545168210+546287199+546878600
2948+545641489+543228235+541158935+539904205+538948263+537959688+537071436
2938+536487602+536270065+536287018+536201892+535633134+534463651+532979577
2928+531675806+530851792+530326081+529647435+528647719+527674704+527263242
2918+527588549+528136055+527958962+526553597+524564579+523311605+523498204
2908+524482420+524897212+524046316+522497641+521148522+520147474+519164288
2898+518305157+517995713+518065461+517708125+516453214+514626093+512962444
2888+512111608+512167188+512494372+512353060+511778793+511440287+511561256
2878+511415222+510193428+508235592+506872668+506809308+507224675+506936331
2868+505929471+505063045+504803247+504945376+505038767+504601815+503500112
2858+502323394+501844666+502134888+502569115+502480931+501649894+500447323
2848+499422542+498543825+497237541+495396284+493753220+492951153+492786683
2838+492691022+492573777+492725472+493067277+493075996+492420841+491155334
2828+489457598+487765401+486812154+486869581+487224736+486897431+485778019
2818+484693722+484372744+484673622+484996567+485163913+485334801+485224307
2808+484282351+482627632+480948453+479567244+478353836+477367259+476842245
2798+476642659+476403507+476165445+476278755+476747190+477126594+477013950
2788+476277090+474977587+473373665+471768502+470219554+468704815+467520105
2778+466984011+466848391+466588109+466163236+465969492+466118251+466282236
2768+466175708+465725497+464937779+463948871+462988449+462139520+461331853
2758+460568202+459967022+459607628+459401927+459128356+458715319+458347691
2748+458008187+457286614+456068998+454885014+454114037+453453372+452562850
2738+451653861+451088342+450862722+450755467+450654841+450513439+450173177
2728+449497377+448609578+447727743+446857109+445897868+444872815+443878064
2718+443083686+442761588+442891124+442880195+442149934+440857818+439645954
2708+438854997+438296955+437667774+436955767+436429209+436263498+436221359
2698+435809927+434874783+433932918+433643574+433956409+434124058+433678267
2688+432991144+432623667+432534545+432257038+431558231+430628959+429804702
2678+429312958+429141737+429017499+428644513+428021659+427394536+426904728
2668+426472984+426047233+425689322+425316790+424711766+423926894+423262627
2658+422738975+422082458+421284205+420667557+420425317+420461674+420493157
2648+420124288+419175794+418024535+417333749+417459168+418174898+418783675
2638+418554937+417339743+415768576+414766045+414819960+415509141+415830937
2628+415319787+414556287+414214815+414152878+413858388+413256875+412691357
2618+412468431+412607472+412812446+412697351+412163800+411486364+411038121
2608+410991683+411195386+411293802+411018444+410369283+409544421+408799448
2598+408343364+408228934+408338217+408544251+408807772+409053070+409076652
2588+408694100+407917794+406946596+406079746+405617032+405658263+405968464
2578+406148434+405978212+405594298+405343703+405414116+405599081+405548253
2568+405223249+404898880+404770223+404789234+404846933+404899698+404915833
2558+404864279+404811938+404911322+405171453+405349031+405238839+404933058
2548+404603846+404242968+403846552+403605644+403696491+404098115+404656732
2538+405058991+404872937+404019952+403071397+402685151+402893213+403228117
2528+403378661+403451527+403689771+404177822+404775763+405187497+405092926
2518+404351495+403198117+402173669+401758392+402073952+402882346+403739720
2508+404200284+404089366+403622990+403180256+403011457+403178712+403551396
2498+403783797+403611396+403257935+403205443+403533777+403871163+404014261
2488+404132595+404266460+404151152+403744443+403457037+403614665+404044684
2478+404426359+404761656+405201090+405616366+405722774+405517920+405259546
2468+405097376+405011887+404986277+404963391+404769981+404361757+404062212
2458+404275723+404932089+405468576+405498970+405241140+405077457+405026842
2448+404913411+404727085+404601666+404664481+404941171+405257427+405361685
2438+405238658+405138214+405299202+405713238+406043752+405885458+405290363
2428+404770677+404647953+404783088+404964844+405115964+405190494+405234389
2418+405380181+405606104+405774267+405898838+406034458+406027465+405755801
2408+405470514+405553672+406027950+406535618+406750794+406679290+406590713
2398+406738170+407145546+407679490+408262143+408864715+409334240+409456147
2388+409172948+408523484+407436040+405730100+403171840+399491414+394614260
2378+388925442+383062346+377400410+371909604+366515094+361369817+356687980
2368+352612650+349411072+347375012+346331250+345817407+345901776+347212752
2358+350097529+354313716+359642050+366352350+374348620+381868887+386160210
2348+385608405+381005307+375238749+371198505+369461627+368861870+368651447
2338+369026824+370138427+371425124+372246656+372786201+373698944+375095561
2328+376487213+377538755+378401154+379467045+381063823+383231023+385669071
2318+387963930+389880566+391489150+393111023+395074612+397370954+399586742
2308+401294044+402434345+403290115+404270274+405682511+407448088+409119548
2298+410409212+411486031+412568875+413571012+414315471+414779637+415038012
2288+415201180+415371705+415560120+415778535+416127031+416534467+416616566
2278+416138777+415426679+415013068+415028749+415142754+415005166+414608144
2268+414187903+413877823+413664463+413696854+414321253+415604136+417008624
2258+417810115+417839631+417588824+417515383+417518471+417275142+416849330
2248+416636636+416803286+417082004+417155657+417049552+416989370+416932882
2238+416529381+415682057+414826196+414379194+414214149+413969154+413623474
2228+413433454+413457097+413485825+413442597+413557389+414013019+414629486
2218+415082028+415259152+415251917+415198607+415293117+415714782+416401299
2208+417115425+417826826+418759397+419959818+421108292+421903185+422370772
2198+422660993+422846896+423071275+423550366+424285168+425057477+425738848
2188+426299432+426619351+426653407+426649260+426893618+427412427+428107148
2178+428935794+429817931+430581734+431080108+431231137+431058403+430825911
2168+430908313+431410834+432134859+432891033+433596107+434169527+434606479
2158+435039404+435583369+436244306+436942266+437518622+437919005+438425825
2148+439374562+440610160+441632307+442311801+443022809+444005178+445052088
2138+445994044+447111095+448765753+450828877+452780448+454350495+455829695
2128+457693142+460056931+462575473+464831553+466755818+468594320+470498999
2118+472251921+473470325+474122240+474685095+475596385+476734778+477733827
2108+478593321+479623248+480979482+482585674+484332512+486071540+487544837
2098+488547125+489126206+489504944+489756961+489580746+488501051+486358976
2088+483516399+480527273+477711819+475071492+472464736+469759111+466890802
2078+463934522+461173770+458981020+457498278+456476706+455547526+454649344
2068+454044744+453903402+454066146+454282533+454453905+454523834+454384279
2058+454050041+453707449+453484281+453385441+453490335+453965400+454767013
2048+455525730+455954144+456319139+457227189+458879154+460871652+462887884
2038+465178777+468109720+471626615+475420684+479316165+483338064+487588217
2028+492056603+496407291+500046062+502521920+503826418+504350494+504607234
2018+504929090+505375426+505848523+506177977+506136262+505543195+504377224
2008+502769488+500968099+499240060+497688872+496278179+495050301+494080525
1998+493246006+492362930+491562407+491258018+491709621+492764826+494027972
1988+495131885+495852882+496203194+496505010+497226613+498648689+500661167
1978+502854644+504874206+506721094+508595772+510530663+512434009+514332754
1968+516224294+517902777+519257951+520487736+521871184+523653259+526016019
1958+528780494+531395786+533524844+535306434+536958459+538604853+540456555
1948+542735582+545517251+548797628+552402827+555817069+558586568+560786645
1938+562640344+564109161+565258967+566579267+568580877+571257864+574063752
1928+576454786+578492058+580638915+582926599+584909259+586579206+588416497
1918+590311004+591452394+591675139+591893281+592890938+594431379+595720256
1908+596438439+596933998+597512685+598125277+598768565+599539724+600235565
1898+600549611+600632436+600873949+601368237+602118387+603281876+604634628
1888+605394344+605209500+604695960+604493740+604345163+603593318+602314855
1878+601282929+600888904+600827330+600861417+601170316+601801556+602267872
1868+601909507+600653990+599144851+597919667+596739528+594993780+592657962
1858+590410419+588805195+587699102+586541365+585133396+583916083+583370272
1848+583460120+583769322+583651381+582378366+580084143+577879465+576363606
1838+575130490+573754065+572553644+572141516+572533846+572787710+571658792
1828+569146547+566558076+564691904+563136751+561388944+559798433+559007597
1818+558939787+558792239+558131635+557516016+557621061+558230989+558575428
1808+558396821+558224813+558783097+560297322+562152353+563370696+563697940
1798+563855357+564649644+566400478+568916658+571338268+572616247+572928174
1788+573545488+575224577+577503361+579482449+581024525+582599900+584330875
1778+586088611+588268405+591656612+596338721+600741901+602718083+602212049
1768+600831628+599745576+599549593+600719923+603112956+605580337+607216802
1758+608316719+609406888+610818187+613197355+617004169+621283776+624093357
1748+625034526+625610367+626948952+629014921+631413281+633741592+635479106
1738+636924370+639742609+644936564+650026684+651196288+649560732+648288262
1728+648173651+648923014+650690376+653513579+656997266+661220567+666564976
1718+672010010+674963082+674672285+673277273+672799453+674093174+677183622
1708+681415278+685663645+688956131+691557437+694925846+699901355+705103908
1698+708845757+711524682+713207161+713243911+712740421+713483003+715853936
1688+719398773+724521285+731494712+737180472+738073447+736603904+736524772
1678+738956977+743178341+747590299+750993885+754015190+757812741+761600604
1668+763396180+763645262+764638620+767120290+769722626+771087729+771638868
1658+772690107+775473108+781138465+789357177+795446408+796656092+797114961
1648+799095320+800545550+799052576+796442490+795653047+797135001+800078870
1638+803793716+806725537+805696578+800352593+794861061+792089502+791872328
1628+792560843+792728007+792039129+790288719+787294658+784393352+783545544
1618+784749598+785254178+782633437+778502224+775467114+774028813+773200076
1608+772061652+770769808+769921515+769377399+768372780+766725598+765293109
1598+764840295+765095249+765431272+765861019+766613833+767216980+766836940
1588+765432846+763964756+763347321+763612446+764211900+764899689+765894985
1578+766962207+766695265+764172667+761375014+760690676+761976163+762961651
1568+762008736+760263775+759227430+758998874+759792495+762848129+768205616
1558+771487506+769939497+767150078+765677992+765382957+765459002+765680172
1548+766545478+768760145+772585122+777664284+783391942+788394757+789752776
1538+787390622+785332947+785796599+788006302+789845228+790261413+789984602
1528+790127851+791976586+797039886+805975690+817049451+825504409+828233162
1518+828315987+829964561+833713312+837516735+840130877+842518885+846773185
1508+853945138+861065204+862825604+860785003+860236346+863154968+868596127
1498+874431251+878851262+881444456+883413191+886552014+891590308+897244464
1488+901852467+905777343+909799998+912916299+913615167+912251457+911393355
1478+913746549+920054952+928779455+936871083+941396806+942427823+943381403
1468+946892516+952140295+955692821+955229108+952340154+949577859+947432939
1458+945473346+944390200+945206647+947495905+950889077+955638754+960755575
1448+963691513+963610322+963024128+964210684+966707491+969258969+972305824
1438+977069245+982643059+985818390+985345293+982847821+979781652+977412474
1428+977466177+980464960+984666405+987731726+989287122+990860559+993203400
1418+995067150+995764626+996810295+999402641+1002668790+1004915788+1005751669
1408+1005877300+1005501317+1004518009+1003826587+1004824668+1007487246
1400+1009814345+1009496182+1006201335+1001554160+997718951+996306381+997416651
1390+999505264+1000072872+997266379+991985179+987589930+987026864+990637270
1380+996270296+1001670103+1006550437+1011402737+1015554959+1018238849
1371+1020213577+1022535469+1024769572+1025872698+1026286219+1027633945
1362+1030262921+1032032524+1031100255+1028720603+1027564319+1029169724
1354+1033729957+1040734504+1048236366+1053048586+1053828887+1052324228
1345+1051325118+1052474379+1055377986+1058913922+1062100999+1063565214
1337+1062943419+1061308105+1059685141+1059389198+1061977246+1066200002
1328+1067817032+1065163839+1061715934+1060710770+1061059750+1060432627
1320+1059386777+1059942820+1061837750+1063485416+1065417763+1068978644
1311+1072688828+1073741823+1071830424+1068537273+1065142769+1062807920
1302+1062390040+1063246022+1063237546+1060327885+1054191550+1046301960
1294+1039354931+1035698631+1035658430+1036873684+1035671023+1031003989
1285+1025634151+1021883402+1018720180+1014026143+1007378931+999845829+992860232
1275+987177075+982272888+977493422+973061726+968887648+963768526+957092374
1265+949945244+943681705+938324461+932852666+926846018+921116544+916253345
1255+911574021+906084971+899686114+892923988+885991914+878657398+871123629
1245+864178840+858084161+851938805+844743603+836748301+829234754+823213697
1235+818837278+815817486+813697450+811728534+809300204+806603176+804281586
1225+802572165+801380220+800798808+800774651+800775499+800578002+800895619
1215+802609763+805769716+809559578+812997734+815839585+818894130+823128934
1205+828452818+833493171+836758957+838200952+839339254+841579230+844735005
1195+847788400+850765447+854556701+858586985+860749766+860564014+860414892
1185+862794363+867933222+874582008+881802154+889354450+897181982+905304730
1175+913844390+922476138+929856305+934572501+936969650+938669929+940775798
1165+943678073+947466420+951529217+954774054+957031042+959101432+960958219
1155+961821709+962406087+964066648+966104162+966733404+966031690+965589773
1145+966331871+968168739+970154123+970335637+967614815+964019545+962898255
1135+965254174+969426557+973871149+978466437+983331937+988357093+993502613
1125+998611381+1002449194+1002513916+997187973+988133199+979994345+977106602
1115+980401751+987865591+996771062+1003715972+1004904466+1000718763+995488723
1105+991896420+989903225+988182845+986115059+984769452+985754092+988737012
1095+990699086+989572590+986878953+984995465+984541561+985084042+985439077
1085+983883924+980080077+976136614+974043217+972992644+970742921+966663111
1075+961861305+957729790+955923799+957166723+959935618+961776966+961589095
1065+959210896+954655083+949263389+945148221+942589720+939656446+935319623
1055+931129864+929291543+930885263+934935467+938897093+940596162+939573621
1045+937133424+935512035+936313284+939569019+944300533+949037194+951725443
1035+950854324+947369609+943829979+941491679+940459815+940838886+941618400
1025+941404374+940897977+941592850+943156842+944412057+946068199+950084740
1015+955779037+959132673+957064039+950356525+941935715+934324994+927892171
1005+920800016+911820438+902586269+895442046+890367485+885737384+880489362
995+874451534+867994615+862072730+857853848+855685376+854543017+852804716
985+849648759+845633005+842056383+839957840+839126137+838001760+835584449
975+832559874+829761070+826992176+823945381+820726154+816932055+812136908
965+807393891+804334745+803117129+802559329+802029381+801952429+802928955
955+805458456+809835904+815489939+820865649+824562635+826380855+827123861
945+828103475+831092450+837561599+846752115+855218758+860205165+863080134
935+867237805+873924976+882190731+891192468+900614810+909407184+915367152
925+916583072+913125239+907203172+901764919+898924218+899295721+901826796
915+904485559+905779764+904894600+901441247+896425172+892122799+890414044
905+891542357+894151655+896194678+896584586+896601297+898519598+902400397
895+905518574+905486183+903342171+902785643+906148119+911797068+916121479
885+917877278+919370615+922775714+927153767+930089705+930617050+929674307
875+928845086+929368495+931419086+933679707+934268687+932829053+931268875
865+931715756+934304166+937993463+942412868+947142324+950945384+953562977
855+956097139+958107649+957228781+953267155+949826940+950172832+953229920
845+954512622+951176241+945809673+943236217+944793247+947774593+949976849
835+953200374+959427041+965699420+967279639+965213972+964530361+966843050
825+969827787+972100638+974967857+979127405+982734723+982729759+978219051
815+972827175+971630205+976350639+985319441+995730176+1004526061+1008837152
805+1008101654+1004866565+1001689236+999036224+995903092+992319749+990175011
795+990077836+989458100+985598734+979545890+974729069+972288630+968598546
785+959149746+945964728+936142669+933401262+934695952+934266629+929735457
776+923759566+920126577+919662198+920091885+919121654+917211769+916448663
766+918217358+923052343+930560501+938261434+942372001+941640862+939205266
756+939006135+941882133+946290035+951041831+955267433+956389691+951586068
746+942906369+937680385+940341873+946781114+950236646+950135658+950133418
736+952212465+955837220+960608028+966965533+973501886+976725775+975340571
726+971732223+967393766+960635576+951542839+945656434+948368779+957024988
716+964078091+968567366+975640570+986059540+992258902+986047370+969973155
706+954848463+947462666+946362749+946210419+943543603+939572773+937056169
696+936720327+938879475+943480939+948155117+950528775+950854688+949507808
686+944704307+936580711+931193376+933860918+941358663+945700450+942709174
676+934685598+927374090+924244530+922822757+916409430+904814438+899072674
666+902305281+908941958+914170181+914867415+912236199+909882279+907385109
656+901525767+893104472+887057502+886151389+889045793+892888812+895856233
646+898409648+903065724+911586554+921799187+928230556+926293365+918129568
636+911821770+912717894+919159253+925442045+926604566+923149093+916215323
626+904894115+890910632+877625473+866289552+854971856+844268810+838802525
616+839592574+842672184+848264221+861215052+877794877+883526167+873270547
606+861850046+862565867+872575493+879934348+876480753
##END=
