##TITLE=<SNM>
##JCAMP-DX=4.24
##DATA TYPE=INFRARED SPECTRUM
##DATE=29/4/2025
##SAMPLING PROCEDURE=Instrument type and / or accessory
##ORIGIN=Admin
##XUNITS=1/CM
##YUNITS=ABSORBANCE
##RESOLUTION=4
##FIRSTX=4497.3318
##LASTX=599.83466
##DELTAX=-1.4281778
##MAXY=2.2489929
##MINY=0.69857442
##XFACTOR=1
##YFACTOR=2.0945379e-09
##NPOINTS=2730
##FIRSTY=0.72294396
##XYDATA=(X++(Y..Y))
4497+345156786+343296284+341407780+340136484+339579178+339742921+340389980
4487+340726145+340543763+340964303+342721192+344635621+344911229+343158152
4477+340437475+338340209+338185545+339829089+341427444+341514722+340725974
4467+340316646+340209419+339833244+339473090+339531598+339716712+339765203
4457+339893032+340173336+340346270+340365763+340516615+341107642+342184888
4447+343104397+342703834+340661860+338057231+335975048+334570031+333917650
4437+334533521+336468239+338860805+340716612+341539110+341483248+341290991
4427+341527414+341844540+341513356+340397920+338897401+337424258+336536195
4417+336948852+338589466+340192146+340615475+340149090+339899208+340233181
4407+340391744+339466374+337448048+335539084+335249446+336680530+338312207
4397+338957218+338987240+339043614+338854203+338136598+337379922+337235018
4387+337926584+339084507+339715545+339028219+337679946+337106932+337510056
4377+337767281+337255222+336801074+337509886+339178416+340518692+340921759
4367+341205534+342145248+343139143+343009691+341515319+339387889+337411367
4357+336174106+336177321+337369136+338895551+340038904+340957359+342011015
4347+343086497+343881619+344033325+342835448+339973253+336741001+335320618
4337+336561493+339447621+342402187+344220857+344168126+342509955+340773384
4327+340163290+340212464+339992405+339639024+339522634+339183509+338319549
4317+337649952+337882504+338730329+339347337+339305164+339016124+339247481
4307+340140155+340840913+340307511+338580018+337064673+337064901+338227348
4297+339045350+338766868+338018558+337721835+338110759+338561151+338303642
4287+337727754+338192403+340022769+341768958+341923054+340497008+338560070
4277+337103261+336521141+336640519+337236640+338306801+339550607+340187849
4267+339652882+338342059+337447906+337761305+338662544+338795610+337880057
4257+336980354+336807249+336816327+336361155+335933159+336554180+338240296
4247+339742722+340122653+339865856+339820353+339832703+339277817+338300825
4237+337584557+337297510+337043472+336705856+336591259+336705088+336756709
4227+336967606+337736263+338427431+337941524+336599825+335949692+336777312
4217+338633432+340883485+342904599+343829059+343477584+342827053+342440662
4207+341623229+340007971+338490122+337731396+337198706+336407625+335965856
4197+336758474+338688383+340555743+341182826+340597718+339749551+339201466
4187+338824920+338614138+338836104+339379949+339799010+339921148+339824963
4177+339506669+339001554+338507765+338148607+337949008+338069553+338602385
4167+339113875+338864078+337801629+336943901+337273919+338490890+339443722
4157+339599041+339187977+338304183+337036387+336170008+336561920+337953903
4147+339305733+340025757+340221940+340142687+339922286+339647447+339445856
4137+339552371+340025870+340300852+339584500+338024875+336863481+337004628
4127+337990385+338731325+338725576+338212323+337638427+337293070+337084565
4117+336674639+336134294+336082075+336855883+338146131+339660196+341241106
4107+342149061+341394746+339249900+337307954+336597321+336561607+336293000
4097+336052565+336761661+338405832+339764548+339758003+338648742+337812727
4087+338503781+340719429+343196370+344670538+344962025+344601074+343915711
4077+342978872+342012893+341287633+340848710+340693049+340902266+341397222
4067+341844284+341874734+341192672+339712159+337943175+336819913+336737501
4057+337164785+337482908+337764179+338469234+339649297+340516330+339906749
4047+337591842+334918489+333521982+333674626+334430278+334980469+335199219
4037+335133113+334746608+334213719+334015429+334562092+335687915+336726716
4027+337360685+338034494+339160772+340447094+341369989+341791297+341862668
4017+341801542+341723882+341485098+341101837+341131147+341888991+342643220
4007+342478310+341515575+340552044+340117474+340204781+340335940+339917591
3997+338959466+338160189+338120662+338874408+339976611+340662088+340314398
3987+339152918+338122796+337856523+338017818+337869158+337370161+337322040
3977+338190525+339338345+339923368+339974562+340003304+340179938+340332354
3967+340201764+339648813+339128957+339494233+340786816+341959707+342289212
3957+342146927+341977635+341620554+341118484+341198363+342210699+343221868
3947+343120703+342342769+342317783+343444460+344712000+345277843+345260512
3937+344922953+344356854+344075128+344819170+346312290+347071186+346160300
3927+344324299+342967205+342738011+343327587+344297948+345582420+346929412
3917+347316714+345813122+343058808+340738410+339751116+339916766+341137749
3907+343674593+347095744+350044677+351802790+353088371+354033463+353082651
3897+349563892+345583985+343867419+345016093+347021926+347596306+347264638
3887+347940410+349436404+349800457+348952148+348964670+350013174+349772882
3878+347658798+345947554+346516242+349237830+352991816+356338210+357593428
3868+356918651+356497342+357001262+356437099+353556947+350286193+349113358
3858+350758155+354877930+360557357+364438803+362619222+356844093+351133676
3848+347616539+346944693+348719739+351505128+353809960+355479059+357228379
3838+358856357+359151373+357695105+355312385+353122435+351952275+352030305
3828+352801523+353398384+353938957+355706574+358964979+361342832+361082648
3818+359687165+358277168+355922280+352337472+349001294+347685747+349572999
3808+353976805+357749800+359057863+359789013+361563745+362861791+362267548
3798+360501325+357898033+354671700+352389349+352235538+353349836+354314136
3788+355151887+356666122+358671585+360387752+362085963+364689681+367939150
3778+370455562+371822360+373157628+375906933+380816793+387141060+392758052
3768+396247074+397863385+398020241+397282858+397425087+400157688+404819458
3758+408735252+410726002+412574695+416886214+424094276+430127056+430610202
3748+428109783+428013484+432100675+436944799+439290610+441363658+446550521
3738+455628703+466166767+473986886+476856622+476179853+474572506+473494548
3728+473506899+474850106+477107501+479230776+480278684+479776414+477874849
3718+475506870+474020722+474706597+478093457+482592651+484610379+482482635
3708+478432382+475304767+474355890+475258040+476570798+477073409+477232968
3698+478180649+480061441+482301818+484836158+488306568+492681803+496029904
3688+496078908+493219132+489688847+487320868+487307721+490160895+495223200
3678+500603087+503444025+502086332+499298382+498844889+500865633+502029760
3668+499373168+494261461+490092313+488429674+488318862+488235482+488148745
3658+488879696+490243876+491422687+492910087+496254147+501688160+505886049
3648+504580377+498390712+491111081+485466542+482634141+482851725+485237120
3638+487936511+489585491+490200223+490535619+491563607+494181326+497549916
3628+498330326+495529286+492502978+492271507+495182336+499281194+501716731
3618+501346275+500066897+500335021+502650240+505775920+508560797+510443865
3608+510586606+508651973+505867438+503845385+503333099+504283455+506169995
3598+508297682+510241649+511692111+511982602+510796791+509429481+509994071
3588+512550664+514133566+512936373+510937597+510612218+512395516+515218240
3578+517300282+516584356+512655387+508086928+506152579+508133711+513327659
3568+519566725+523450163+523171112+520740072+518862865+518013532+517100569
3558+515461094+513552243+511980325+511049491+511295247+513400339+517038020
3548+520387544+521555826+520341159+517799193+514766796+511946518+510230209
3538+509907732+510355762+511000658+511807135+512568251+512626246+511728365
3528+510694744+510792978+512454650+514578295+515181417+513257028+510089630
3518+508111059+508256874+509063464+508771778+507537989+506695827+506832194
3508+507633548+508731198+509732777+510118315+509781667+509163861+508531941
3498+507640719+506288434+504949125+504517828+505130625+505729592+505518382
3488+505277805+506190313+507663143+508048340+507226667+506366634+506064248
3478+505988552+505996805+506428557+507088991+507069470+505869259+504051984
3468+502655248+502537094+504035479+506381489+507800307+507135490+504891300
3458+502270849+500091313+498694066+497843936+496624830+494547114+492512654
3448+491616480+491666337+491715397+491417052+491057866+490681093+489899089
3438+488511460+486997879+486290548+486980748+488672926+490119860+490317922
3428+489620835+489245143+489530967+489463239+488234515+486447916+485163416
3418+484476232+483876867+483645737+484657789+486505229+487214439+485760903
3408+483638509+482791794+483230604+483505159+482696520+481264099+480246641
3398+480221769+480962737+481774450+482152987+482364595+483203114+484790854
3388+486091348+486282921+486047865+486510579+487571064+488368719+488823180
3378+489533414+490306710+490174327+489161422+488796829+490370112+493514745
3368+496821754+499152795+500096493+499924782+499374135+499087572+499137201
3358+499158999+498932252+498695602+498943806+499862802+500937004+501360276
3348+501027953+500776790+501255383+502024751+502196519+501397043+499772764
3338+497855034+496660345+496932395+498094416+498772266+498373012+497430681
3328+496659719+496274124+496085851+495949200+495848177+495574362+494838857
3318+493883664+493388110+493674503+494532772+495683694+496826022+497575812
3308+497876889+498265102+499288479+500398139+500154944+498127654+495769407
3298+494743014+495167822+496002016+496458982+496496830+496430525+496637010
3288+497381336+498591278+499866046+500742869+501044174+501140245+501643539
3278+502576991+503132703+502694975+501761921+501232503+501164320+500921352
3268+500247999+499438904+498657584+497788615+496699047+495536741+494925026
3258+495499690+497055900+498654681+499643682+499930758+499507713+498502435
3248+497440641+496865180+496821583+496984870+497140360+497307176+497455951
3238+497480424+497524248+497831415+498101929+497531419+495977828+494496290
3228+493942627+493802105+493196081+492381409+492279988+492812023+492739742
3218+491358999+489405869+487822910+486651100+485705240+485380316+486004269
3208+487010344+487510223+487276248+486570453+485508601+484174472+482996743
3198+482481326+482726798+483401745+484031275+484373900+484557904+484588012
3188+483927065+482166192+479943401+478566870+478752070+479942718+480805426
3178+480513512+479531683+478805968+478355946+477188034+474691486+471603569
3168+469181777+467860026+467160720+466626891+466392575+466761949+467492132
3158+467785013+467152666+466143461+465781628+466241581+466587649+466051914
3148+465032037+464350971+464082449+463832851+463707327+463997732+464181907
3138+463314760+461377822+459342081+457985811+457423810+457499620+457897566
3128+458240275+458535063+459021909+459494839+459417521+458651624+457431067
3118+455795917+453710347+451619911+450355673+450327642+450905465+450818557
3108+449462658+447669087+446890072+447858100+450000157+451732431+451599536
3098+449635848+447307965+445858186+445246328+444980481+445229481+446346995
3088+447868031+448852479+448961299+448499382+447718802+446836231+446377131
3078+446709482+447405687+447626913+447097183+446341275+445918373+445710635
3068+445205378+444324543+443445927+442670839+441768661+440773428+440056392
3058+439967834+440671864+441929188+442942321+442973453+442116863+440989105
3048+439946292+439005810+438195862+437674014+437627970+438052694+438569875
3038+438628155+437966070+436792496+435546271+434577588+433903864+433300373
3028+432746056+432515894+432664412+432698532+432121819+431163296+430561255
3018+430697565+431257717+431721369+431934314+432055627+432108928+431858163
3008+431201201+430427251+429817840+429218162+428332944+427285635+426575913
2998+426590909+427348553+428522042+429432302+429266112+427833179+425988471
2988+424820958+424563165+424706560+424925282+425247674+425467221+425147277
2978+424280613+423378976+422849701+422692333+422773379+422969136+423028383
2968+422680067+421952389+421153966+420546149+420223700+420182011+420162916
2958+419624762+418386533+417155902+416827336+417425677+418265789+418779442
2948+418696119+417973620+417006161+416357337+416077518+415829428+415646477
2938+416027888+417230859+418689375+419284699+418389550+416560493+414876511
2928+413885006+413511249+413513298+413663182+413802935+413916195+414001765
2918+413964458+413700774+413178926+412486563+411845764+411421410+411166463
2908+411026169+411120163+411525194+412000030+412103700+411637030+410936016
2898+410607222+410932573+411619558+412118583+412032329+411236240+409852822
2888+408284774+407093671+406567270+406482012+406468552+406462690+406588442
2878+406803265+406953235+407004258+406950560+406693762+406230536+405760395
2868+405426677+405152976+404916810+404876259+404986843+404861774+404310729
2858+403656612+403264273+403134622+403089489+402999223+402759784+402374161
2848+402080084+402133527+402457910+402718635+402733205+402602957+402475355
2838+402393000+402338903+402226781+401903280+401353459+400824070+400593908
2828+400693736+400872333+400810695+400458964+400085350+399840134+399482029
2818+398819774+398175162+398025562+398395107+398896096+399170053+399068262
2808+398650226+398235178+398198183+398480251+398505777+397828951+396738273
2798+395994658+396051715+396643624+397003693+396481618+395136276+393710514
2788+392900623+392778086+392985966+393199309+393273924+393238637+393220169
2778+393194557+392917157+392251885+391368574+390538819+389934218+389596147
2768+389428591+389293988+389215930+389341711+389655878+389897935+389825597
2758+389445323+388936452+388482788+388234328+388237885+388339107+388376073
2748+388417564+388493801+388325932+387781717+387275406+387232237+387481380
2738+387546774+387259783+386839414+386573709+386582872+386784748+386946811
2728+386818555+386425874+386185126+386390843+386669838+386384384+385517037
2718+384704044+384415289+384441157+384222492+383545154+382791835+382440674
2708+382488226+382565572+382437885+382150382+381859948+381705454+381695551
2698+381648255+381368862+380890213+380416799+380079638+379919396+380045746
2688+380507122+380970803+380922141+380345172+379816722+379760690+379928217
2678+379741282+378987423+378055393+377521907+377584882+377959180+378259431
2668+378310654+378140082+377887126+377743617+377825915+378049987+378171470
2658+377965213+377429478+376841865+376525251+376528723+376613553+376582051
2648+376492724+376432936+376278442+375923808+375571508+375475721+375550848
2638+375539181+375416274+375324045+375266931+375187450+375190353+375410128
2628+375717010+375763651+375351364+374658630+374088605+373907475+374016409
2618+374071730+373884339+373642908+373598060+373666585+373624098+373511578
2608+373514367+373616642+373649396+373523274+373273306+373049035+373087595
2598+373514225+374176566+374742693+374916879+374605928+373996204+373447578
2588+373222823+373302816+373459274+373505631+373481869+373529080+373602641
2578+373486678+373120975+372755699+372715859+373095904+373703494+374200014
2568+374307440+374038662+373713710+373564366+373425695+373057487+372538827
2558+372067917+371717808+371609870+371859611+372207300+372233538+371972386
2548+371802127+371851443+371955454+372021077+372104456+372245831+372398106
2538+372456585+372346997+372143499+372043415+372138206+372239400+372062482
2528+371632351+371340153+371475239+371893190+372291932+372590704+372828151
2518+372878634+372578524+372082629+371789378+371886104+372225627+372652712
2508+373163889+373711718+374105252+374162906+373831409+373171487+372357867
2498+371693506+371488842+371779504+372253373+372630544+372940841+373262692
2488+373493110+373567980+373609813+373709640+373770112+373610695+373181247
2478+372748670+372747304+373252220+373773754+373772986+373195903+372367400
2468+371652129+371376920+371753807+372588314+373285088+373440322+373218441
2458+372939589+372701573+372609230+372848298+373317956+373640205+373613768
2448+373341490+373024875+372863011+372951939+373174332+373348149+373426520
2438+373445358+373439439+373473787+373592994+373728877+373789633+373803264
2428+373835592+373786987+373457851+372878264+372392756+372321357+372662217
2418+373166421+373626005+374066693+374601460+375105863+375295616+375182214
2408+375096729+375213489+375412234+375587729+375751671+375896489+376033084
2398+376297793+376841780+377649452+378594600+379759495+381667862+385080276
2388+390577805+398417531+408662800+421268591+436030014+452545823+470311442
2378+488928984+508175429+527689771+546748684+564728671+581505887+596845332
2368+609723175+618751159+623404192+625076792+626023676+626315077+622923038
2358+613121987+597711740+579063066+558503890+538230026+522438795+514337149
2348+514440278+521334486+532147987+543078903+551359715+556475462+559274454
2338+561013358+563013386+566097234+569912260+573128890+574549131+573923300
2328+571847007+569292122+566935412+564508299+561179207+556572274+550937581
2318+544691514+538288364+532234554+526791036+521631237+516053003+509643365
2308+502543981+495053482+487368847+479782106+472704207+466381875+460791746
2298+455751752+451003984+446303455+441534515+436767596+432244612+428222587
2288+424721671+421533499+418548825+415918812+413840499+412331414+411224288
2278+410307056+409486265+408791198+408191634+407530745+406706710+405825021
2268+405100501+404633462+404328629+404061188+403825876+403611166+403284876
2258+402809101+402392146+402212268+402163037+402031622+401738058+401297711
2248+400745386+400178689+399739481+399480777+399300131+399055428+398749342
2238+398553813+398593283+398720885+398640209+398319610+398138566+398467758
2228+399175631+399733961+399812531+399570076+399298025+398995326+398461981
2218+397670160+396829507+396150632+395716575+395567488+395735300+396094401
2208+396296077+396054134+395473949+394911692+394567559+394416822+394436457
2198+394649345+394986819+395294128+395487722+395641363+395896823+396285092
2188+396698774+397082434+397537237+398151599+398801220+399220479+399314815
2178+399325116+399543155+399962301+400419323+400896123+401403259+401836434
2168+402218785+402741173+403373805+403808061+403879347+403711648+403460998
2158+403207188+403040913+403044043+403172584+403252976+403175344+403070480
2148+403159522+403443553+403738683+403982276+404269438+404642170+405052665
2138+405458293+405789450+405919584+405819529+405673999+405721295+406001057
2128+406343141+406585738+406707308+406763226+406847687+407125998+407696451
2118+408376492+408843161+409027820+409171386+409504079+410075955+410832916
2108+411672147+412483404+413225311+413896616+414456340+414854798+415095090
2098+415227302+415333903+415509114+415850543+416471621+417374226+418250992
2088+418669426+418574237+418375293+418454859+418774945+419059346+419235183
2078+419469927+419760901+419878116+419910558+420374922+421450177+422599676
2068+423283701+423584408+423838474+424097975+424232293+424249168+424303350
2058+424534679+424988486+425593628+426180813+426591905+426807156+426964211
2048+427272260+427874841+428735870+429687421+430613446+431508965+432388719
2038+433265968+434163792+435026529+435701305+436109666+436395746+436855813
2028+437684458+438796024+439974407+441123110+442243185+443374158+444711561
2018+446424911+448216404+449521308+450259032+450949432+452112477+453852406
2008+455883139+457782428+459327055+460626837+461916004+463315756+464799229
1998+466292263+467845143+469656215+471746993+473712445+475066039+475796706
1988+476360585+477213817+478508590+480126665+481848439+483455871+484776910
1978+485795848+486746830+487976067+489629201+491539532+493508598+495602819
1968+497984344+500505991+502726790+504387949+505717127+507224106+509224532
1958+511557736+513815529+515812426+517720025+519824491+522273516+524929367
1948+527478846+529919733+532697837+535925678+538817326+540616275+541729577
1938+543110661+545075060+547329666+549628949+551890384+553983182+555827378
1928+557624393+559844963+562875938+566532230+570145382+573368784+576344893
1918+578914462+580611136+581638384+582826129+584642210+586842690+588757118
1908+589739745+589768088+589622729+590176278+591688208+593873435+596297930
1898+598581107+600430539+601741789+602838870+604283983+605914978+606543597
1888+605582939+604250972+603992126+604860184+606052824+607021962+607653598
1878+608037030+608382727+608917779+609917253+611731682+614311326+616663198
1868+617377303+616147269+614116508+612619091+612207373+612485627+612575039
1858+611985350+611031408+610322369+610128632+610320605+610546953+610505292
1848+610498462+611390424+613176681+613922430+611870895+608098213+604898715
1838+603324691+602797152+602158459+601201842+600829679+601569907+602635686
1828+602994645+602442803+600813459+597800868+594143380+591361349+590155334
1818+589929554+589730411+589245671+588754899+588418762+587974603+587123505
1808+585982316+585005380+584631965+585072995+586181687+587399369+588101806
1798+588289112+588783470+590542920+593536274+595910343+595480071+592934291
1788+590937963+590848380+592047452+593321935+594231028+595064653+596108974
1778+597507588+599630038+603079504+607712675+611484959+612110448+610272683
1768+608082390+606542686+606320777+608276924+611919898+614846719+615705728
1758+615799067+616405376+617524882+619331571+622463284+626431410+629203140
1748+629573539+628540201+627685234+627987108+629773422+632581349+635304416
1738+637743368+641470234+647530931+653138988+653788608+650370331+646601292
1728+644311342+643943391+645127949+646822461+648675649+651997001+658132085
1718+665597997+669504599+667287557+662058493+657580015+655637073+656745935
1708+660534212+665295042+668612125+670385235+673304543+678767981+683885094
1698+685459345+684320375+681612902+678003621+675389259+675236103+677417744
1688+681344152+687185558+694336279+698603319+696717519+692131132+689127818
1678+689354280+692444161+696137106+698258077+699631989+701943623+704070342
1668+703649745+701839925+701805321+704336303+707103138+707480821+706062516
1658+705701906+708881541+716769473+726929427+730981104+727545297+724970719
1648+726499041+729107938+728465603+725266389+722964715+723178144+726234616
1638+732123261+739496858+744497070+744636794+742547240+741138667+740998544
1628+742118960+745202125+750850591+757888507+763672543+767489732+771811411
1618+778738686+786604137+791210387+792051069+791840657+792074518+792904329
1608+794385013+796588794+799156486+801236649+802041190+801722754+801345754
1598+801999187+804197277+807509465+810613859+812518214+813541989+814395420
1588+815169000+815795457+816562492+817838853+819781226+822460925+826024334
1578+830071286+832636417+831563581+828978645+829592580+834946514+841591664
1568+844623549+844330725+844023103+844863329+847138595+852735781+862625733
1558+870211393+868523712+862713267+859287990+859707620+862301663+865191319
1548+867970675+870810360+873211748+874648665+875832711+877425061+877086364
1538+872827234+867247293+863371084+862823909+865482037+868986027+871405684
1528+872684664+873044078+872854212+873776623+877610033+883620702+888474359
1518+889742126+887424573+883514272+881132861+882407743+887645230+896220460
1508+906430897+913337341+912513847+908261149+906365503+908199226+912533767
1498+917068021+919929049+921039221+921465623+921933687+922181833+921297783
1488+919432471+918409151+919807309+923889037+929833059+935960004+940507746
1478+943014425+944980077+948546217+953615465+956257715+953640622+949015134
1468+946595534+947064622+947965975+946539132+943352098+941477794+943312827
1458+948131937+950248810+945670619+938791437+934243922+932628579+932348617
1448+931560979+929885022+928759142+929412348+931488470+934452001+938850172
1438+944137972+946222176+942214835+936107640+932435582+931367356+931218070
1428+931758472+933911144+937210412+939855166+941142284+942039596+941936183
1418+938053599+931410953+926990414+927143172+930233736+933702268+936706379
1408+939673837+942269189+943100764+941870276+940326360+939726540+939210155
1398+938227244+938470610+940846557+943005433+942649035+940934035+940063473
1388+940362899+940590500+940293065+940708597+943093650+947297174+951699614
1378+954669462+956193743+957144554+957564241+957461340+958332812+961577842
1368+966478396+971455899+976065507+980027885+982604284+984333456+986680605
1358+989252906+989867467+987959926+985873559+986001958+988398508+991668693
1348+995132615+998367400+999973637+999256402+998081690+999672902+1004813407
1338+1010423114+1013065420+1013221821+1014755663+1019929634+1026495730
1330+1030959979+1033121928+1034562317+1035340222+1035564920+1037186752
1321+1041503934+1047034758+1051277382+1053041272+1053088397+1054051502
1312+1058243473+1064118173+1067238902+1066176538+1063874808+1062712502
1304+1062140513+1062013253+1064356531+1069505801+1073741823+1072564720
1295+1065433464+1056817996+1051193263+1048494839+1046225891+1044612369
1287+1046109217+1050132721+1052386529+1050277397+1046256283+1044536104
1278+1045980021+1046890992+1043685689+1038284402+1035490818+1036489096
1270+1038508873+1040119435+1042006488+1041835745+1035809538+1025510998
1261+1017129447+1014369215+1014646843+1012974471+1009061950+1006612128
1253+1006470184+1005614647+1001939232+996098452+989252451+982444355+976652977
1243+971505983+965986201+959678154+952543370+945176944+938717903+933263800
1233+927253188+919544592+911382674+905090052+901394261+898965611+896174417
1223+892413743+887638116+881903368+876101631+871924459+870359655+870786456
1213+871615300+871535847+870489932+869502240+869681407+871657929+875336475
1203+879526396+882689014+884673390+886645359+889333766+892760409+896973779
1193+901315605+903716594+902573811+899041193+896187279+896237592+899216888
1183+903951138+909480369+914901177+919125304+921687874+923409590+925520145
1173+928350383+931712883+935989542+942110967+950617046+960940401+971243039
1163+979206610+984087131+987461014+991258113+995387364+998002237+998441389
1153+998439681+999106945+998911160+996328158+992691103+991309108+994468425
1143+1001474355+1009273899+1015078368+1017855447+1018001034+1016479030
1134+1013528931+1009159160+1005077376+1003793160+1006267341+1011978128
1125+1019077285+1023947674+1022788898+1016549149+1011056002+1008831561
1117+1007601072+1006357835+1008035215+1014497613+1022437281+1027077850
1108+1027631855+1026787473+1027064305+1028830016+1030782520+1031676645
1100+1031420075+1030448774+1028143743+1024178860+1021610657+1025947645
1091+1038118440+1051265544+1057735910+1058024466+1057675809+1058549558
1083+1057566875+1052425231+1045034674+1037752367+1032533320+1030061074
1074+1029329496+1030069611+1032494390+1035942035+1039608003+1043054737
1065+1045110370+1044857442+1044887038+1046906245+1047381822+1043040850
1057+1036558759+1033205934+1034295730+1035855411+1033395345+1027787003
1048+1023804136+1023445576+1023384564+1020327124+1015796513+1012241300
1040+1009939001+1009013573+1009008792+1007286564+1002181687+996081719+992544491
1030+992692810+995558676+999310585+1002825957+1006427612+1009454659+1009973946
1020+1007612000+1003874775+999971702+995861005+990320620+983548835+979541836
1010+981929849+988332829+992640563+992089177+987894474+982685216+979312585
1000+978862165+978305428+972368008+960780699+949882908+944980874+945107280
990+945138299+941707273+936190678+931925231+930059407+928390166+924294722
980+917929932+911783921+907950397+906042627+904876167+904508785+904855678
970+904355401+901533758+897090340+892796435+888998426+885009014+881048229
960+878485433+877960455+878193177+877169914+874510363+872260823+872704868
950+876130373+880925465+884958929+886628967+885817710+884668837+886064775
940+891377959+899834181+908646516+914855817+918572666+922715519+928993515
930+935933482+940985656+943230529+944120613+946088541+950397015+956467729
920+962453071+965845622+965679888+964536933+966127804+970470825+972997936
910+970125924+963553795+956965729+951708891+947286816+944039453+942858025
900+943767061+947204575+953542843+960693848+964735792+963668192+959840588
890+957557866+959405990+965067717+971941720+977092242+979703245+980548651
880+979537283+975917188+970282894+965332824+963850660+965810108+968475180
870+969838165+970722842+972524864+974228083+973527240+971107127+970550619
860+973196681+976243535+976645464+976180701+978963928+985669350+993326153
850+998755556+999889176+995079116+986063311+978567917+975713321+974832514
840+973860303+976599705+986958802+1001944695+1013751011+1017662735+1014805975
830+1008946869+1005282267+1006315946+1008605042+1008895988+1008946300
821+1010741835+1013310835+1015201530+1016589672+1018952073+1025233825
813+1038123790+1056021195+1070190708+1070826214+1060372867+1049532274
804+1043389962+1039425991+1035283080+1033599098+1035248021+1036360014
795+1035454734+1035807603+1038670623+1039226563+1033439966+1023309892
787+1012602593+1004797585+1000869697+998043443+994063763+990412707+989801105
777+992459461+996121218+998693747+1000388429+1003231188+1007115024+1007401303
767+1001317727+992330493+985670830+984142565+988053721+996244722+1005918115
757+1012799403+1013566608+1008447617+1001580899+998390166+999961002+1001897570
747+1001239413+1000936628+1003188843+1004798381+1004552284+1007182866
738+1014607913+1022826348+1028879532+1032861033+1033767906+1029987085
730+1023864238+1019881826+1018385775+1015585588+1009467408+1003306428
721+1000317969+998479066+995391234+994017663+998788339+1009778844+1022417930
711+1030821905+1031803222+1028627856+1029241621+1035810449+1040122167
703+1034212976+1021618625+1009659323+999361239+991454126+989968775+995387136
693+1003102903+1010508258+1017543442+1023406646+1026741145+1029184820
684+1033539680+1034303129+1026365852+1015512852+1006576955+995352760+978341967
674+961934012+954044486+954193260+955835752+955819474+960320262+977008805
664+995671594+1003475123+998994824+990832280+985790122+979869777+966804971
654+950909301+946381991+959070536+979334554+989332359+984650355+972034149
644+958744531+954701164+960521283+968502271+970539122+962012326+950629112
634+945149682+945007054+947492049+956007292+975095800+995987583+999750077
624+981371405+958208967+949574090+956162895+963803876+962722845+958700024
614+955209238+949881200+942178923+940075140+952995725+966973210+950610785
604+914799927+885505762+875548253+885440880
##END=
