##TITLE=<SNM>
##JCAMP-DX=4.24
##DATA TYPE=INFRARED SPECTRUM
##DATE=29/4/2025
##SAMPLING PROCEDURE=Instrument type and / or accessory
##ORIGIN=Admin
##XUNITS=1/CM
##YUNITS=ABSORBANCE
##RESOLUTION=4
##FIRSTX=4497.3318
##LASTX=599.83466
##DELTAX=-1.4281778
##MAXY=2.1183372
##MINY=0.48297679
##XFACTOR=1
##YFACTOR=1.9728552e-09
##NPOINTS=2730
##FIRSTY=0.49501204
##XYDATA=(X++(Y..Y))
4497+250911492+249659823+249495528+250526360+252030528+252871882+252172360
4487+250177769+248410919+248241141+249400465+250616649+251379723+251981584
4477+252335205+252169701+251921280+252243253+253080876+253897169+254300958
4467+254162041+253664715+253329116+253511599+253972731+254155304+253638854
4457+252320552+250631468+249652482+250376476+252529349+254441566+254540663
4447+252930373+250994923+249691440+248889876+248322729+248453896+249867397
4437+252071541+253607826+253602236+252606376+251587902+250865992+250351294
4427+250069337+250010589+249967219+249836868+249749826+249867896+250159294
4417+250246668+249757394+249105592+249373516+250868182+252393348+252593143
4407+251471493+250073929+249360298+249742227+250951342+252044093+252176514
4397+251525830+250952686+250950828+251448638+252294055+253348543+254226484
4387+254338965+253278480+251251124+249198223+248110366+247919349+247516361
4377+246399908+245707274+246761505+249073975+250742997+250703102+249603432
4367+248453337+247517056+246660928+245856493+245170279+244811069+245179479
4357+246457024+248192408+249622858+250353635+250532478+250519970+250507990
4347+250382564+249944091+249291640+248825357+248672619+248436509+247933095
4337+247678042+247988777+248236412+247946630+247912898+249011405+250656696
4327+251546390+251347517+250585908+249651711+248906070+248835735+249381779
4317+249837381+249879800+249929544+250204145+250424060+250631121+251128084
4307+251462822+250726094+249052237+247581952+247022328+247252078+247951525
4297+248885238+249801670+250424755+250526133+250150835+249778482+249866340
4287+250290431+250590697+250506782+250007024+249243678+248703858+248877413
4277+249585984+250127163+250199401+250205504+250556511+251106241+251448033
4267+251458547+251301307+251088189+250726350+250101755+249344512+248679839
4257+248047736+247322246+246808288+246896237+247397702+247869302+248324043
4247+248988489+249741125+250417852+251212966+252169082+252750232+252554939
4237+251989862+251674551+251667964+251718646+251695835+251370644+250458699
4227+249287894+248715641+249061074+249743073+250087948+249956403+249595758
4217+249303770+249328952+249811580+250569971+251010437+250609217+249680624
4207+249348711+250368137+252128446+253286094+253368921+253148975+253295445
4197+253391988+252713373+251377352+250189824+249829466+250456947+251741607
4187+253109669+254041585+254202949+253478758+252173886+251091255+250890570
4177+251388137+251904255+252109971+252121256+252152949+252501690+253403152
4167+254618309+255584772+256012338+255997322+255700365+255153763+254328904
4157+253362395+252601240+252147873+251711455+251286382+251374466+252195986
4147+253283269+254043760+254311593+254328844+254335672+254197299+253606557
4137+252699415+252093596+252233419+253032355+254066812+254855385+255135333
4127+254990797+254556373+253772634+252686741+251751109+251536601+252196469
4117+253218252+253751878+253376761+252568142+252222573+252704717+253572024
4107+254177057+254214913+253758283+253240171+253311442+254132161+254921278
4097+254739762+253572568+252201606+251298376+251044472+251295113+251738238
4087+252059003+252204899+252437534+252919044+253255579+252846927+251796775
4077+250937852+250873877+251431039+252013715+252258737+252353106+252677163
4067+253133808+253160320+252509621+251617041+251058490+251009410+251295854
4057+251664656+251911023+251875886+251447233+250683011+249855796+249233240
4047+248979138+249312547+250368409+251730761+252461870+251889028+250347336
4037+249014623+248889815+249970980+251531027+252960389+254048987+254766289
4027+255233644+255712510+256257270+256520994+256113036+255094728+254054455
4017+253597855+253738766+253982701+253954090+253677556+253370749+253264794
4007+253501629+254009469+254563957+254915870+254819312+254237905+253552023
3997+253234824+253349117+253555649+253521479+253239340+253055589+253308874
3987+253868558+254267875+254325430+254294976+254376821+254476492+254544470
3977+254763207+255191317+255528154+255442049+254929254+254275217+253889405
3967+254100650+254783510+255384646+255615196+255720607+255866322+255906293
3957+255946324+256307120+256787346+256850701+256583473+256563321+256722933
3947+256314220+255369962+255177268+256638580+258763145+259642869+258802119
3937+257472230+256915567+257510388+259044090+260843388+261789549+261307812
3927+260156479+259531868+259742600+260142491+260268597+260418904+260958678
3917+261497063+261084815+259315548+256898286+255060557+254612961+255595286
3907+257678339+260561687+263732386+266271494+267436937+267078648+265385244
3897+262884475+260513408+259202735+259366214+260458663+261199863+261219985
3887+261644046+263206449+264872812+265536820+265730240+265771479+264833476
3878+263188140+262498663+263502258+265420321+267565007+269616306+270386934
3868+269259891+267759847+267369170+267546185+266971545+265766797+264911303
3858+265063301+267096292+271977434+277453729+277973805+273586273+268641202
3848+265612290+264873175+265842811+267619419+269482707+271294483+273079098
3838+274178949+273751686+272151518+270489595+269296901+268408234+267768487
3828+267666218+268296600+269963719+273231459+277348802+279322909+278127586
3818+276663887+276504275+275841657+273348381+270487178+269206234+270181429
3808+272400558+273941631+274713165+276620140+279787515+281374208+280355628
3798+278993745+278371914+277572041+276303182+275531588+275771988+276766942
3788+278592675+281629412+285373420+288604483+291057396+293542122+296307672
3778+298708318+300640429+303039957+307040468+313191889+320686009+327308139
3768+331629083+334600712+337842137+341967849+346763731+351509280+355166790
3758+357587647+360181289+364541358+371248717+379748969+388313876+395313902
3748+401659619+409411722+418326398+424673474+426361470+426309293+427839188
3738+432200918+438581591+444640532+448486416+450310005+451571946+453153836
3728+454715000+455578832+455875397+456161840+456161750+454968935+452379825
3718+449110453+446117947+444556209+445487868+448305807+450270216+449908211
3708+448768932+448708931+450374841+453443361+456629377+458494176+459192686
3698+460074585+461713304+463681036+465983673+469465407+474018322+476976416
3688+475801426+472210020+469594958+469083342+469485227+469180414+468324951
3678+469013763+472583325+476993637+479363254+479961187+479751906+478193521
3668+475228479+471986963+469282743+467322655+466247940+466150173+466703754
3658+467267971+467407038+467357611+468094944+470990347+476600241+481873510
3648+481669939+476323859+470571996+467627830+467807141+469483776+470854754
3638+471589005+472455013+473702723+475097055+477270231+481239019+485998103
3628+488564554+488308202+487106263+486382223+487177987+490350045+494949668
3618+498129188+498607571+497931176+498035500+499669778+502533125+505545964
3608+507247737+507203747+506430764+505950296+505971475+506511491+507973317
3598+510657989+513956214+516486742+517524779+518099841+519732639+522174947
3588+523217697+521581032+519091653+518233259+519321448+520855633+521441028
3578+521067845+520490244+520125460+520164374+521178422+523889741+528176635
3568+532605105+535398965+536107868+535537518+534454949+533310141+532388301
3558+531675289+530843482+529545619+527931009+526915208+527450874+529508941
3548+532131979+534404675+535876562+535982184+534152160+530863060+527708525
3538+526110834+525970588+525839648+524875752+523840072+523501512+523341628
3528+522813153+522763182+524189448+526367035+527693419+527828710+527656741
3518+527759886+527915540+527500059+525881220+523097270+520539913+519996091
3508+521666654+524064187+525744358+526372231+526478821+526609580+526678706
3498+526435375+526255733+526692906+527645985+528491448+528655743+527869859
3488+526421478+525137935+524517675+524148238+523515107+522915633+522959381
3478+523520485+523606953+522340752+520182803+518653996+518575082+519138240
3468+518966272+517681400+515973071+514565356+513773791+513697173+514070175
3458+514042863+512790681+510487168+508152295+506722374+506626842+507768235
3448+509546959+511205075+512410730+513157942+512934491+510862889+507219277
3438+503817816+502210669+502086617+501906581+500881173+499929544+500605666
3428+503296622+506382515+507383874+505306471+501472067+497890269+495701865
3418+495316869+496743890+499281851+501504968+502079547+500878666+499038762
3408+497595003+496553311+495728362+495645187+496854377+498905767+500415177
3398+500129066+498238587+496431434+496073538+496769994+497317231+497431917
3388+497766126+498909181+500922383+503362485+505562007+507111177+508046794
3378+508523847+508386985+507230334+505356955+504292785+505300217+507968241
3368+511027245+513431002+514092653+512418706+509709199+508272540+509228158
3358+511912407+514856663+516936785+517771916+517472028+516527529+515737414
3348+515515354+515532816+515505504+515546714+515561639+515496864+515914701
3338+516988388+517578496+516637864+514847539+513737174+513967996+514905547
3328+515296978+514546563+513448223+513167852+513663637+513789985+512904823
3318+511771194+511492394+512077548+512603787+512485656+512124437+512115253
3308+512308854+512116824+511400911+510704939+510715997+511710226+513356679
3298+514972256+516155675+516974853+517402660+517188877+516466500+515790588
3288+515505202+515650826+516342448+517572816+518766145+519045609+518037301
3278+516350424+515081202+514843189+515755481+517909261+520833396+523102225
3268+523573115+522506377+520829952+519237458+518147939+517546955+516969959
3258+516211568+515602969+515357766+515271902+515252566+515673304+517023434
3248+519138301+520830194+520958294+519755056+518347401+517421090+517054312
3238+517253411+517911980+518528313+518450244+517471484+516028783+514766207
3228+513942981+513165556+511883463+510428737+510003528+511221994+513265196
3218+514712490+514833702+513894762+512638773+511804609+511646357+511749562
3208+511486835+510534722+508960476+507021325+505124743+503834010+503483003
3198+503738388+503757784+502878000+501276351+499882745+499308830+499105864
3188+498574851+497780870+497164084+496982780+497643917+499424151+501424513
3178+501953531+500334873+497585607+495305268+494274331+494009066+493573464
3168+492697849+491690115+490592288+489264273+488056442+487505187+487385365
3158+486811571+485496819+484269593+483870910+483867073+483408087+482452832
3148+481552896+480978982+480570540+480127385+479658731+479271861+478906503
3138+478483349+478283584+478637009+479385551+480073396+480183550+479071432
3128+476616224+473855961+472009441+471240596+471055394+471178812+471410843
3118+471270204+470342714+468862157+467680732+467460786+467899379+468038718
3108+467342021+466160173+465251143+465053131+465264678+465057271+463940500
3098+462415259+461554840+461910863+462870710+463281750+462728229+461830105
3088+461341783+461440758+461948900+462781402+463830074+464561425+464180991
3078+462461423+460101957+458074707+456941864+456732401+456971834+456896605
3068+456088273+454897694+454029995+453831016+454069996+454224381+453954041
3058+453393783+452957365+452954192+453407590+453982924+454117732+453588471
3048+452871864+452540887+452534996+452394146+451941594+451356834+450772104
3038+450148037+449458318+448822952+448454784+448351881+448068217+447196499
3028+446038912+445231305+444797697+444240097+443510831+443132783+443261035
3018+443349799+442959485+442294873+441715007+441263544+440844437+440459230
3008+440197167+440201548+440527661+440875224+440752562+440007524+438816432
2998+437294936+435684254+434626851+434611805+435361314+436110581+436264634
2988+435676520+434609660+433575793+432994930+432943720+433200283+433350137
2978+432946983+431908493+430722778+430002454+429887798+430062486+430248897
2968+430389716+430411197+430207475+429833718+429349051+428583560+427448783
2958+426333735+425805562+425977833+426418269+426669938+426696012+426679757
2948+426537669+426020100+425296635+424924962+425065631+425163700+424632325
2938+423568910+422632175+422389540+422843692+423475161+423688067+423190258
2928+422112492+420895568+419962851+419442111+419207723+419090197+418894572
2918+418403258+417624020+416861279+416372986+416177271+416167542+416177935
2908+416126695+416226728+416660457+417025664+416699915+415779343+414996631
2898+414701033+414464048+413739162+412594898+411665566+411362234+411297398
2888+410894365+410424230+410688377+411689434+412432507+412141441+411003885
2878+409689525+408740887+408368429+408406466+408517255+408538404+408494112
2868+408368368+408100173+407671671+407041894+406172442+405224348+404556503
2858+404432542+404753095+405100507+405120931+404859835+404593755+404408885
2848+404183350+403906514+403705964+403608046+403512001+403330757+403037425
2838+402650887+402233866+401818114+401341211+400720649+399964312+399253898
2828+398934403+399205317+399739502+399910776+399498528+398828327+398219850
2818+397696873+397224714+396892076+396807904+396918149+396920325+396471097
2808+395612854+394825610+394500827+394523093+394489407+394198824+393764884
2798+393293752+392732557+392133053+391701046+391392427+390857758+389999545
2788+389168705+388661077+388445814+388410314+388461373+388440254+388231336
2778+387857971+387384120+386884952+386484638+386228860+385960694+385532404
2768+385150701+385232395+385752441+386034594+385523008+384417537+383171669
2758+381910393+380796191+380302218+380559447+380949579+380816433+380240706
2748+379788638+379802506+380198409+380705826+380989278+380673589+379662441
2738+378457662+377778609+377788700+377997800+377949913+377639179+377176476
2728+376507786+375674377+375003149+374776405+374887677+374999795+374930488
2718+374747250+374556550+374340440+374025839+373621688+373205482+372805954
2708+372374068+371844626+371206722+370606040+370357180+370652265+371216481
2698+371410323+370800577+369632718+368603956+368139531+368076931+368082853
2688+368069288+368051825+367948166+367777164+367764354+368023637+368321078
2678+368299748+367826229+367049529+366217178+365489664+364891973+364402109
2668+364045905+363866716+363838528+363882638+363951854+364052703+364213493
2658+364420297+364542446+364402865+363994091+363500421+363052402+362612691
2648+362118416+361612238+361240505+361116483+361157935+361186455+361187452
2638+361236638+361252529+361130320+360957294+360809858+360590878+360286005
2628+360038264+359819798+359405133+358787834+358285674+358152800+358367036
2618+358772033+359134884+359175278+358889317+358676804+358803786+358997870
2608+358909046+358638947+358484894+358490121+358516043+358513687+358513687
2598+358442084+358101348+357379454+356402114+355465621+354927901+355056394
2588+355723393+356359333+356511513+356319936+356205552+356323199+356496225
2578+356479608+356194132+355776838+355415800+355170899+354983492+354780011
2568+354581637+354548766+354771491+355008507+354912523+354522874+354221535
2558+354234285+354446134+354621185+354593843+354362839+354161111+354280601
2548+354677954+354932523+354762609+354371510+354099961+353998900+353938959
2538+353899320+353960591+354126910+354254739+354167878+353888746+353706656
2528+353900620+354424381+354947962+355190084+355150143+354995516+354796356
2518+354512148+354209873+354083918+354219149+354506076+354806084+355070866
2508+355300842+355461542+355451753+355189782+354767987+354434110+354329031
2498+354317883+354191081+353978507+353923641+354164797+354586380+354977600
2488+355208121+355256762+355164947+354967660+354667500+354313562+354049808
2478+354004943+354167727+354403595+354558796+354576350+354548222+354607801
2468+354779679+354991951+355154886+355152620+354918233+354604900+354504474
2458+354743092+355200900+355677712+355982252+355983672+355733423+355415861
2448+355137393+354918807+354835693+354963128+355245282+355549853+355773334
2438+355852520+355787141+355664176+355575352+355516680+355406707+355197123
2428+354968778+354891525+355051469+355372385+355765599+356258816+356841583
2418+357283378+357350027+357163012+357076061+357244495+357552269+357830192
2408+357941857+357875027+357855420+358082103+358400330+358566045+358642633
2398+358827140+359165307+359648977+360309873+361202981+362601814+365118445
2388+369410929+375912058+384954894+396996279+412584626+432112970+455594331
2378+482655466+512684816+544871209+578187545+611478684+643257693+671397561
2368+693722997+709147140+718421131+723776940+726305111+723951325+714303305
2358+697794296+675593154+647100103+612568746+577188905+549102996+533814688
2348+533004271+545960426+568742673+592889310+610270007+619631675+624444023
2338+627400425+629161263+629993432+630126186+629195101+626849774+623353658
2328+618807058+612859329+605479170+596875773+587080075+576325858+565098275
2318+553761987+542696220+532316154+522565351+512794669+502470314+491734014
2308+481074876+470767259+460856602+451532761+443217499+436147863+430009675
2298+424226241+418629277+413586861+409374531+405699014+402059269+398388042
2288+395075920+392436264+390395932+388765007+387595849+387035016+386904801
2278+386770054+386446026+386104143+385847489+385496300+384828878+383846130
2268+382792866+381977465+381514007+381264936+381078344+380938249+380837521
2258+380706974+380519476+380309107+380106080+379949852+379903989+380004053
2248+380203243+380381828+380463099+380520775+380648452+380735706+380571985
2238+380159586+379711144+379387720+379205116+379072484+378828187+378391225
2228+377850182+377246297+376463887+375530415+374757009+374373734+374266752
2218+374239591+374296632+374505188+374771903+374944869+375038648+375162791
2208+375282915+375284064+375242461+375365788+375678939+376042183+376457965
2198+377071821+377873023+378666037+379366662+380064689+380731990+381179042
2188+381428324+381776492+382292972+382635218+382612891+382561107+382878911
2178+383522374+384192304+384748181+385203814+385509322+385583735+385496451
2168+385430769+385482402+385630503+385853894+386115865+386309859+386415542
2158+386601529+386978368+387392791+387651228+387757878+387768452+387657905
2148+387519562+387649415+388231668+389116468+390056224+391032295+392234899
2138+393808661+395712555+397822799+400131175+402781405+405902887+409474383
2128+413382142+417576829+422143218+427201525+432693048+438280071+443536572
2118+448269038+452674819+457143864+461821978+466421752+470564866+474145788
2108+477195304+479730364+482054119+484798249+488263306+492051757+495682560
2098+499245928+503126225+507368405+511634030+515583754+519009536+521677953
2088+523320298+523707016+522462387+518980411+512934673+504757481+495330495
2078+485431682+475623959+466312474+457713820+449935734+443106468+437359984
2068+432806465+429503920+427279111+425653594+424177961+422760819+421536191
2058+420597674+419982429+419705019+419685804+419754476+419779190+419783964
2048+419982036+420640303+421804900+423226332+424671662+426248627+428347360
2038+431363824+435537029+440921207+447413484+454845880+463067302+471899467
2028+481019889+489999642+498564760+506758236+514747294+522556650+530041283
2018+536888918+542558814+546555187+548881056+549876312+549683014+548253545
2008+545671414+542046473+537304580+531460660+524979683+518608557+512870622
1998+507824068+503300429+499235203+495633585+492350920+489175448+486137352
1988+483553197+481766648+480894387+480726708+480851938+480982879+481174758
1978+481662506+482536158+483647792+484790545+485930609+487285271+489114903
1968+491385393+493738242+495864287+497742319+499450104+501029335+502655365
1958+504639502+507039755+509447500+511386530+512878599+514469159+516686989
1948+519591668+522902823+526365222+529689973+532351744+534049438+535255637
1938+536739004+538820637+541406635+544307930+547278773+550101455+552773800
1928+555421432+558121391+560882923+563587414+566113713+568753428+571904881
1918+575038146+576884304+577186730+577110655+577720220+579031981+580451419
1908+581622269+582691002+583916355+585306971+586692269+587921187+588918014
1898+589796349+590877347+592285788+593759669+595111914+596343733+597113001
1888+596945201+596073574+595175481+594635948+594673110+595483103+596828279
1878+598101489+598899156+599110160+598937224+599210646+600790210+603086652
1868+604026499+602545911+599850242+597430593+595614769+594108863+592835049
1858+591918164+591245636+590472018+589481354+588544166+587904752+587535677
1848+587442925+587756530+588108685+587359479+584914995+581800462+579472538
1838+578482055+578158904+577429517+576282353+575706565+575961074+575910136
1828+574718318+572940441+571168545+569246011+567074889+565016399+563404267
1818+562282119+561544634+561174231+561334658+561994799+562506355+562133292
1808+561054771+560196921+560261575+561338767+562984254+564355171+564785637
1798+564491429+564343630+565115254+566962559+568909928+569363658+568325017
1788+567567713+568417950+570723275+573508433+575954065+577566862+578257396
1778+578788167+580378365+583653085+588103851+592063667+593947106+594123305
1768+594014178+594296543+595065266+596417089+598117502+599570778+600725978
1758+601916406+602907735+603613254+605111788+608480710+612986402+616326380
1748+617296681+616873949+616486083+616929299+618385777+620388011+622036399
1738+623394928+626122502+631331116+636661848+638115667+636335312+634309875
1728+633181805+633239752+634810192+637467008+640272045+643376790+647939826
1718+653917405+658606668+659463612+657356480+654636822+653130433+653904353
1708+657107892+661639870+665529290+667990330+670376020+673951111+677690134
1698+679992378+681194951+681578528+680832947+679889837+680126340+681965065
1688+685487465+691423774+699449209+704850819+703422136+698706589+695315974
1678+694729371+696752815+700257390+703729215+706769668+709811994+712355755
1668+713635793+714750327+717316869+721073294+724005224+724839086+724769477
1658+725787452+729070692+734848628+741236974+743469367+741432207+740153740
1648+741506529+743513295+743030985+740165885+737322779+735803097+735846724
1638+737471545+740102439+741736324+740771522+738416407+736608680+736240270
1628+737313232+739375469+741912765+744140202+745073221+744972372+745429666
1618+747293831+749200413+748943789+746976298+745545501+745891493+747777289
1608+750198267+752292952+753635348+754152342+754233976+754529634+755442592
1598+756992245+758909885+760768671+762476335+764488903+767004325+769537572
1588+771771052+773975831+776201878+777950994+778875795+779174233+779447836
1578+780382848+781801259+782132447+780925886+780085257+781043412+783037308
1568+784113412+783612491+782354508+781548684+782760019+787315078+793786086
1558+796231174+792802794+788080902+784469737+782470524+782327498+783584635
1548+785413270+787795274+791427829+796603088+802721578+807815384+808553412
1538+805407035+803109021+803618462+805009198+804783028+803889588+805077418
1528+808723991+812946050+816563861+820780542+827189071+834837274+840566809
1518+843028453+843579950+844050175+845413237+847851799+851501877+856748800
1508+863580664+870066355+873402345+874573377+876154995+878742866+881769300
1498+884687453+887008670+888568293+890568534+894654275+900683094+906243259
1488+909264497+910162106+910192137+910416132+911838410+914689310+918396127
1478+922955477+928694197+934265540+937224782+937849151+939380919+943426477
1468+949154864+954450127+956294411+953845819+950438105+949208884+950360278
1458+952332058+952678473+949895490+945464543+941963896+940895828+941870539
1448+942999636+942899694+941901900+940991057+940894619+942121846+944800052
1438+948281727+951100541+952035856+951835367+952376168+954405534+957147971
1428+959469490+960959988+961333655+960020685+957475413+955472453+954972257
1418+954043710+950106615+944091935+939023023+936920544+937993687+941275053
1408+945230760+948241242+949643580+950025645+949872287+948900778+947110937
1398+945272513+944177194+944329525+945726122+947348164+947922803+947094924
1388+945598807+944886701+946130968+949292753+953708897+958894005+964430121
1378+969562297+973213826+974363830+972887049+970928018+971247725+973824237
1368+976285518+977511718+978659546+980858463+984256328+988381466+991998552
1358+993755825+993735099+993313032+993526211+994594460+996625396+1000310279
1348+1005948150+1011827177+1015493207+1017085157+1019119780+1022432990
1340+1024684295+1023703843+1020899651+1019214888+1019202803+1019547466
1331+1020037390+1022276369+1027447398+1034752872+1042396482+1048900844
1322+1053338317+1055248706+1054841444+1053193419+1052336838+1053592464
1314+1056003412+1057410221+1056631104+1054341610+1052052720+1051323635
1305+1053367321+1058095558+1063914825+1069190993+1072887296+1073741823
1297+1070854366+1065828114+1061872710+1059734519+1056643431+1050578356
1288+1044128981+1040990157+1040555340+1039233246+1035287873+1029829221
1280+1024496978+1020524655+1019026242+1019426858+1018617771+1014485684
1271+1009112051+1006374386+1007412665+1009367285+1008649922+1005171450
1263+1001480223+998079639+992850118+985357388+978165755+973106693+969371778
1253+965715658+962005276+958381664+954500219+949409796+942207226+932893596
1243+922855232+913993761+906528705+899153018+891735457+885586211+880908791
1233+876199105+870283159+863612568+857705021+853968959+852476467+851634932
1223+849785270+846967361+844281239+842354415+841164772+840483906+840386199
1213+841365987+843580675+846385350+849141142+851866721+854705235+857523566
1203+860283648+863121134+866135362+869621145+873975595+879216173+884902928
1193+890228041+894174079+896254624+897235439+898328523+899702763+900734334
1183+901818958+904441030+908831553+913227696+916568036+920039922+924723505
1173+930034418+935797912+943286533+952531218+961066819+966904515+970203404
1163+971719280+972230655+972817500+974110771+975735290+977132854+978024119
1153+977882846+976624924+976015963+978741663+985701991+994948247+1002666119
1143+1005416835+1003624879+1001878785+1003331215+1005598895+1004803162
1134+1002072507+1001425841+1002988304+1002521644+998059457+993674674+994404303
1124+1001588746+1012697776+1022428881+1025681304+1022665262+1018654872
1115+1017532905+1018514082+1019846085+1021244435+1020939532+1016527437
1107+1010671553+1009389461+1013821254+1018127001+1017239724+1013647472
1098+1011854126+1012459280+1013849291+1013762279+1010852586+1008098788
1090+1011455323+1022426947+1033015177+1032553773+1021925180+1012064102
1081+1009868146+1013333626+1016533359+1015952677+1012194740+1007141177
1073+1002755065+1000823648+998951145+993437688+986843112+984043694+984389203
1063+983869187+982624075+983390623+985476183+985911181+984389384+983364701
1053+983955474+984683894+984688426+985675162+989015624+992472101+992411434
1043+989056773+986189075+986021638+987117743+987039855+985455397+983655102
1033+982189862+981058530+981049526+982184243+981810818+976951218+968503837
1023+960326132+956049933+958071020+965834936+974338270+977780064+976162070
1013+974498637+975631239+977348571+976156149+971420721+964624810+957117396
1003+950115195+944910811+941843469+939656818+936402220+931206900+924878132
993+918435826+911742878+904145493+896196133+889768148+885989184+884300251
983+883437749+881974986+878554341+873492620+869360050+868122611+868750727
973+868981851+868129016+866578880+863936626+859270022+852802096+846337010
963+842045765+840974314+842171811+843617413+844356770+845135766+846906574
953+849520972+852158392+854496165+856775024+858961433+861083430+864262376
943+869713656+876612108+882536090+886202423+888547870+891492066+896806967
933+904931317+913733028+920064334+923433799+926147293+929463887+932068919
923+932674315+931756705+930236055+928750996+928203910+929321768+931512166
913+932605552+930330257+924717885+918878135+916489847+918802665+924195634
903+929815318+933690841+935933143+937847520+939865827+940911357+940076347
893+938321310+937211005+937161276+938100941+940643554+945412880+951071477
883+954749592+955645268+955980203+957396317+958327523+956807297+954236042
873+953430338+954783974+956319608+956312841+954546444+951816575+950164018
863+952548137+959827205+968580999+973781456+973184641+968071014+962196278
853+960209573+964134161+971454196+977684955+981190981+983726041+986501712
843+988344607+987845861+986049856+985026744+985840726+988561955+992763711
833+997879814+1001907426+1001956189+998194990+994655731+994428896+995953050
823+995980604+994566302+994198738+996329194+1000877305+1006969147+1013228668
813+1018392024+1022459577+1026820673+1031630241+1033828494+1030920009
804+1025489999+1022982734+1024686591+1027430479+1029048413+1028728886
795+1024143735+1015382267+1007630557+1004305080+1003592793+1002818752
787+1002029907+1002008577+1001267830+996744977+988147380+979488090+974371141
777+973036479+973752452+974995631+975961158+976791636+977010071+973435101
767+966118509+961533237+963838442+970997083+978479360+983897828+987947435
757+990987404+991282458+988195056+984911333+984731025+986442496+987622410
747+989806342+996181697+1005895399+1013739801+1015456348+1011639376+1007218097
737+1006619228+1008660557+1009660345+1009427649+1009043710+1008935792
728+1009497863+1008483996+1002570407+993562586+987331163+988200313+994535485
718+998361641+992344846+978718944+966786082+962048238+963540064+969412625
708+979846470+993387657+1004701225+1007867784+1001460464+990653678+982323159
698+978872302+978153368+977948709+978069559+978295306+977909856+978206663
688+981992092+987936136+989652803+983146144+972055241+963401752+960924096
678+963185311+965573236+965600488+965914395+968641968+970472959+966892430
668+958497196+952754185+953811679+959059388+966582451+974270655+977995478
658+976673505+971564592+962301901+951973558+947767149+954457076+968189870
648+976844568+974062975+964569158+955231480+950119364+950323841+954211510
638+957297281+955749320+950531038+945630107+943181031+941657965+937690597
628+929969703+920002640+911028174+907895392+912025908+917121648+918565800
618+922158353+930332977+935674525+935318683+936570201+942438109+943421703
608+933371617+920583745+911767229+906710644+904042529+904709316+909401177
##END=
