##TITLE=<SNM>
##JCAMP-DX=4.24
##DATA TYPE=INFRARED SPECTRUM
##DATE=29/4/2025
##SAMPLING PROCEDURE=Instrument type and / or accessory
##ORIGIN=Admin
##XUNITS=1/CM
##YUNITS=ABSORBANCE
##RESOLUTION=4
##FIRSTX=4497.3318
##LASTX=599.83466
##DELTAX=-1.4281778
##MAXY=1.9406149
##MINY=0.36536196
##XFACTOR=1
##YFACTOR=1.8073385e-09
##NPOINTS=2730
##FIRSTY=0.37348583
##XYDATA=(X++(Y..Y))
4497+206649630+208824083+211104861+211923126+211396447+210818321+210924152
4487+211195901+210816738+209889032+209161428+208852462+208479830+207757106
4477+207046239+206847341+207245070+207936035+208503707+208632820+208287231
4467+207740501+207328013+207271866+207784693+208889036+209998523+210256306
4457+209434941+208125781+207197580+207259301+208253839+209389809+209819875
4447+209414527+208607838+207748680+206931042+206233911+205891124+206225039
4437+207288356+208506180+208872497+207818167+205983681+204832441+205225175
4427+206610451+207714266+207755309+207010984+206415725+206551501+207052768
4417+207268370+207211201+207226520+207133139+206608621+206043060+206124123
4407+206773764+207136156+206664834+205731884+205065456+204938700+205035000
4397+204998492+204914048+205184742+205939818+206717650+207009384+207004800
4387+207302850+207872467+207880861+206871317+205563063+204933259+204975258
4377+204956344+204462579+203607395+202693837+202154692+202427414+203677937
4367+205793291+208276133+210042831+210176166+209032067+207767989+206989976
4357+206573020+206262405+205906064+205583906+205628610+206117098+206543783
4347+206322410+205402471+204309869+203729665+203819121+203972656+203682126
4337+203316106+203454074+203955573+204306423+204333268+204080432+203639599
4327+203475972+204139844+205363473+206194138+206211023+205923922+205886491
4317+206113751+206373710+206361886+205710167+204564815+203978642+204947423
4307+207062613+208758339+209051459+208502948+208276183+208745939+209256210
4297+208997604+207970069+207078905+207190803+208134768+208902640+208802136
4287+208047356+207191924+206367872+205406181+204468928+204002799+204132028
4277+204611992+205298817+206182413+207134837+208010271+208762923+209272716
4267+209388292+209237313+209160818+209286947+209362799+209025306+208209960
4257+207373376+207315498+208432851+209941337+210438846+209750882+209260366
4247+209740725+210208601+209704184+208763500+208327367+208530535+209065392
4237+209650609+209964736+209814582+209322284+208723727+208280503+208307678
4227+208899325+209704843+210261368+210522135+210868615+211517019+211988177
4217+211545860+210320714+209429219+209627359+210303944+210297892+209415714
4207+208515398+208328653+208788878+209420892+209949813+210391933+210760426
4197+210935431+210835668+210505645+210068505+209841163+210307077+211491147
4187+212566039+212666676+211874712+210908371+210292352+210291808+211072723
4177+212376755+213427358+213680952+213510977+213799595+214889476+216121597
4167+216482027+215625903+214119246+212766042+212017463+212063353+212954667
4157+214293475+215262306+215440097+215234093+215158982+215173510+215010098
4147+214669241+214266779+213730784+212975411+212248697+212005739+212350091
4137+212849859+213031558+212835892+212557020+212597221+213279347+214550565
4127+215810702+216344652+216079433+215696000+215874665+216592573+217240071
4117+217362094+217134818+217040118+217277222+217678580+218023707+218129274
4107+217760022+216857941+215848496+215419370+215890742+216878157+217628121
4097+217682982+217187700+216615857+216352996+216470402+216729190+216850174
4087+216841748+216859738+216878850+216892965+217132790+217608614+217860015
4077+217664662+217500129+217858317+218616559+219343932+219781270+219865004
4067+219585027+218979808+218244058+217749353+217789621+218257101+218701711
4057+218766499+218500538+218263087+218379108+218793492+219011600+218578088
4047+217744357+217402395+218123700+219508103+220692997+221126064+220623823
4037+219303071+217850698+217259677+217897413+219213862+220442833+221136271
4027+221147039+220750150+220651229+221286937+222361796+223424717+224348647
4017+224898922+224620264+223642957+222879554+223051887+224024280+225138615
4007+225726124+225387311+224307241+223253126+222889035+223113459+223264933
3997+222871309+222015547+221180200+220971210+221798264+223513596+225362890
3987+226535467+226820276+226611418+226378156+226302980+226361188+226534577
3977+226782515+226888444+226634965+226136616+225726322+225548052+225471211
3967+225416350+225606442+226313401+227312738+227903578+227719949+227184152
3957+226890307+226977207+227347383+228015724+228931194+229769939+230173126
3947+230135744+230083769+230393411+230812297+230665028+229742665+228606959
3937+227997206+228356333+229746474+231784954+233622903+234327719+233661588
3927+232405260+231625021+231557248+231569137+231400449+231583566+232312968
3917+232800269+232283253+231088696+230222463+230331790+231147218+231912550
3907+232501164+233681524+235931252+238382466+239700778+239579497+238364905
3897+236225245+233775465+232562818+233866817+236796363+238557685+238139640
3887+237339383+237437067+237738300+237744615+238303893+239380946+239350407
3878+237987029+237319892+238665940+241015908+242730499+243313835+242843766
3868+241637979+240602958+240439316+240650251+240183825+238876545+237379634
3858+236548409+237631744+242013942+248230842+250675642+247703174+242862564
3848+239303989+238306928+239478696+241496861+243371994+245109175+247002926
3838+248546931+248690358+247248984+245096775+243189322+241972636+241511635
3828+241572334+241530120+241331552+242384942+245628071+248773548+249160065
3818+248327108+248575442+248898952+247376663+244776349+243177004+243778282
3808+246190400+248625290+250042226+251536169+253962617+255860324+255874373
3798+254795293+253343992+251368898+249284479+248210675+248576711+249724438
3788+250917198+252047034+253204193+254315412+255485614+256958929+258549023
3778+259747406+260431758+261059550+262475695+265448328+269598436+273260747
3768+275692999+277989079+280828327+283625956+286319997+289993686+295121826
3758+300463539+304802122+308845212+314733292+323925462+334241269+341007916
3748+343720293+345800491+349629513+354400058+358276899+361432848+365107691
3738+370651204+378862671+387980309+394286632+396496372+396822933+397942842
3728+401024718+405552075+409950120+413171829+415319107+416502633+416915335
3718+417790307+420667185+426171321+433912405+442440209+449447868+453728111
3708+456065152+457802300+460025662+463087685+466021419+467510266+467736636
3698+467926431+468890612+471011903+474594371+479477904+484306757+486496578
3688+484700463+480943666+478036283+477204678+478188119+479990071+482065125
3678+484907540+488274654+489492709+487339461+484771764+484436068+485593310
3668+485955257+485353254+485166657+485837488+486685318+487535853+489624692
3658+493956547+498952506+501907017+503279085+506082617+511742250+517936608
3648+520910115+519948572+517144678+515031467+514918909+516250248+517545046
3638+518057972+518371307+519580722+522304906+526757927+533367197+541100070
3628+545315179+543215556+538034650+534067676+533406739+536295028+541433688
3618+546003456+548051730+548407741+549678398+553491721+558462880+561695439
3608+562307005+562148507+562574401+563301791+564408179+566583687+569262854
3598+570792893+570950798+571574699+574059750+577585956+580677496+583105625
3588+585180283+586241027+585451108+583461009+581703612+580815217+580445982
3578+580294409+580994162+583482842+587626089+591961540+594871298+595479831
3568+593402205+589162328+584564363+581262811+579748141+580339591+583872260
3558+590345425+597845497+604209632+608927774+612339740+614273642+614322650
3548+612794985+610266071+607185679+604664944+604339703+606867561+610998211
3538+614273313+614917859+613339670+611238959+609486376+607879892+606695607
3528+606872772+608483412+610404452+611938383+613474490+615381349+617102535
3518+617207871+614527319+609875531+606035165+605164777+606782145+608727788
3508+609769338+610545472+611965360+613871757+615982165+619073309+623414102
3498+626934437+626779369+623003312+619421240+619305680+621652153+622951997
3488+621898904+620555725+620530991+620675374+619407586+617380946+616793982
3478+618899178+622735257+625975269+627066552+626435923+625470423+624798702
3468+623850483+622215372+620734275+620788229+623042426+626750875+630089957
3458+631554433+630965028+629252548+627220697+624976196+622556774+620183851
3448+618338399+617629610+618363464+620275336+622264709+622562908+620382584
3438+617221129+615111909+614296530+614208278+615348040+618130234+621212144
3428+622669760+622146050+620461932+618341763+616760936+617155236+619457781
3418+621032209+619721351+617017779+615953011+616971410+617843579+617030245
3408+615437414+614744322+615539188+617295464+619106816+620234508+620408242
3398+620009061+619678675+619511867+619159384+618799317+618737184+618574201
3388+617961579+617703351+619399012+623448994+627847237+629780612+628781802
3378+627465931+628444952+631291984+633503506+634025567+634297844+635939088
3368+639073435+642669887+645544225+647039240+646976184+645339424+642609799
3358+640375059+640111160+641452623+642982992+643986352+644499575+644535456
3348+643857139+642205407+639914340+638460219+639302707+641888213+643998554
3338+644305723+643617776+643308431+643241681+642323473+640696145+639768637
3328+639957015+640388317+641109771+642953838+645282832+646738535+647571723
3318+648516908+648876579+647594412+644703189+641053442+638016121+637219870
3308+639053713+641660524+642648054+641523397+639212475+636529680+634555411
3298+635214205+639752675+646510319+652071278+654413529+653419667+649762270
3288+645197679+642369248+642685849+645318317+648318966+650077485+650589059
3278+651080450+651963502+652272715+651353716+650273712+650842867+653440971
3268+656290707+657250205+655975294+653454163+650348508+647078419+644383224
3258+642664082+641632426+640902925+640533887+640978250+642472275+644377090
3248+645369831+644838338+643820796+643893944+645319702+646895121+647650147
3238+647892149+648101963+647690580+646163575+644893611+645965832+649478120
3228+653521045+656351323+656852542+654553823+650855993+648149057+647066019
3218+646344169+645405976+645249655+646516453+647981984+647429252+644103626
3208+640036165+637996135+638410091+639314579+639007740+637683294+636626442
3198+636689432+637595899+638362337+638101801+636384770+633367961+630117923
3188+628238964+628494487+630000649+630909029+630004343+627836947+626046175
3178+625562501+625923822+626323794+626527869+626647254+626707540+626464285
3168+625494828+623647067+621536462+620049362+619168289+618386219+617945946
3158+618303243+618754597+618002935+616061711+614351803+613805337+613650928
3148+612418494+610121622+608604380+609049731+610093458+609409733+606812222
3138+604351113+603526435+603824237+603679920+602236946+600396837+599972724
3128+601668846+604184898+605353155+604151721+601592136+599725578+599772144
3118+600778736+600416427+597977546+595677508+595778688+597667080+598821353
3108+597802426+595321728+592971760+591713008+591393769+591258752+590589537
3098+589178554+587729974+587397411+588311200+589135945+588783726+587592516
3088+586225593+584768636+583397228+582631648+582552168+582637980+582685536
3078+583310294+584859527+586310218+586374725+585248616+583873052+582276593
3068+580151543+578071938+576893326+576800655+577383068+577924323+577823868
3058+577119102+576252276+575326087+574200967+573104276+572361979+571828177
3048+571240817+570808789+570938134+571555835+571839918+570936221+569031274
3038+567292543+566742185+567340758+568103766+567959449+566574717+564545108
3028+562758425+561587201+560769316+559924651+558965549+558004138+556944582
3018+555414477+553539080+552389588+552842723+554088382+554248463+552735639
3008+550968183+550470263+551230401+552112958+552119323+551082258+549565906
2998+548279551+547458698+546828135+546134054+545299283+544091155+542258004
2988+540071513+538229689+537281470+537521460+538968028+540906053+542051059
2978+541924782+541238781+540357114+538752245+536424472+534411518+533491727
2968+533487407+533803908+533715623+532671863+531294782+531140011+532619525
2958+534244016+534573314+533691680+532198248+530249934+528099523+526413162
2948+525644878+525583702+525642174+525469363+525213971+525153619+525260439
2938+525246786+524828180+523883622+522586483+521390194+520672335+520303792
2928+519733416+518661789+517503690+516850569+516521073+515725515+514212164
2918+512568050+511411897+510938216+511083094+511586588+511973500+511797028
2908+511036824+510112911+509395810+508811253+508052467+507133072+506441629
2898+506118828+505739765+504908754+503831982+502873671+501912656+500719896
2888+499697309+499592237+500511698+501566968+501606774+500380738+498834177
2878+497942088+497520680+496742600+495505747+494467594+494040150+494107625
2868+494402888+494669954+494739705+494584241+494109835+493176160+491886540
2858+490380246+488545974+486552511+485258834+485285614+486017357+486233074
2848+485427787+484052751+482806663+482091970+481948675+482180882+482520206
2838+482709374+482413518+481214327+479066554+476740363+475303986+475016737
2828+475068250+474569901+473558164+472820187+472870514+473345613+473468658
2818+472971661+472295422+471884072+471642334+471184714+470363135+469397536
2808+468542088+467780696+466961789+466111419+465461992+465215142+465309793
2798+465320742+464671744+463204662+461399939+459883950+458952089+458562835
2788+458458554+458265824+457777962+457166823+456679918+456202115+455402797
2778+454319825+453501676+453383346+453676466+453626832+452864451+451774652
2768+450958449+450541658+450129516+449342368+448340689+447709071+447642255
2758+447451833+446386999+444803765+443751727+443542870+443546366+443199622
2748+442466757+441474709+440360011+439386859+438796927+438589290+438609440
2738+438733969+438790925+438437156+437431586+436003816+434660044+433706483
2728+433198108+433079382+433075887+432766080+432037733+431204777+430606995
2718+430342666+430292835+430157422+429596247+428586324+427550677+426914376
2708+426594345+426139463+425331109+424402512+423711234+423403043+423266213
2698+422816607+421841345+420843129+420469178+420570622+420353486+419410973
2688+418159444+417277744+417007347+417005368+416818574+416404256+416028128
2678+415820095+415671193+415393046+414840908+414062730+413262786+412438470
2668+411356619+410137244+409412822+409566539+410159143+410399693+409979768
2658+409207230+408422753+407613871+406749650+406127035+405961182+405952773
2648+405764494+405559330+405547524+405426028+404822146+403947833+403326999
2638+403127870+403085789+402895037+402483093+401975873+401487120+401014066
2628+400546486+400128738+399763164+399416651+399113967+398844989+398495013
2618+398066976+397781441+397737117+397682998+397326460+396681221+395972134
2608+395381212+395019133+394987012+395252956+395523914+395430253+394859448
2598+394056239+393463635+393428512+393859913+394208372+394016729+393393950
2588+392732188+392201816+391786410+391563701+391649150+391925747+392031940
2578+391722430+391142490+390597442+390193743+389900855+389754856+389762738
2568+389791133+389683258+389340834+388766138+388177887+387878964+387921243
2558+388161167+388537295+388918568+388923317+388383909+387751202+387543235
2548+387634357+387568200+387330882+387252886+387341270+387334608+387257206
2538+387304432+387367258+387224392+386973156+386825442+386772972+386764068
2528+386876395+387109426+387278115+387228613+387010126+386798036+386690755
2518+386565269+386204773+385627405+385152636+385058217+385287620+385548024
2508+385607519+385474810+385355590+385445723+385726772+385954262+385866208
2498+385433092+384939557+384796295+385176084+385818157+386299126+386505181
2488+386669780+386913562+386991327+386612990+385825017+384995226+384559439
2478+384753422+385420724+386095051+386352981+386057290+385353216+384597958
2468+384156729+384068905+384069466+384022306+384023592+384036157+383867468
2458+383595785+383573194+383890554+384233439+384373007+384453377+384666159
2448+384891342+384812653+384301013+383591234+383092687+383076362+383515778
2438+384113922+384488368+384489226+384362520+384473165+384883921+385300548
2428+385387217+385093636+384725357+384681000+385070023+385636870+386046209
2418+386160811+386085981+386013856+385997168+385954592+385946578+386164373
2408+386564741+386885068+387065597+387278412+387587559+387962731+388504481
2398+389304161+390185169+390800231+390906754+390528351+389989371+389734112
2388+389946333+390352637+390425324+389693283+387923585+385260577+382214747
2378+379278374+376507723+373650039+370610475+367508909+364358106+361071758
2368+357802889+355006415+353120233+352211160+351945183+352071196+352989899
2358+355501598+359832992+365394742+371625246+378167700+383950939+387227657
2348+386841437+383222262+378509826+375262427+374463241+375392959+376950931
2338+378278246+378834375+378539705+377827321+377355322+377518470+378250016
2328+379246978+380158227+380671615+380860026+381297561+382448108+384172823
2318+385982658+387440834+388390307+389147213+390248126+391742184+393094465
2308+393986784+394785245+395999144+397611730+399148629+400253796+400976239
2298+401511030+401983260+402588726+403502317+404451624+404886191+404774853
2288+404678125+404873197+405036709+404943575+404851035+404965836+405042381
2278+404783461+404284617+403811695+403422210+403056833+402753325+402528671
2268+402287823+402068445+402097500+402409154+402709792+402844875+403107687
2258+403799723+404757506+405626773+406363496+407146489+407984920+408670921
2248+408988907+408859958+408407978+407885323+407406234+406822468+405985521
2238+405020845+404208534+403683241+403378611+403200622+403113425+403085063
2228+403088757+403150725+403286467+403441272+403584270+403763545+404003634
2218+404229707+404321158+404238908+404130868+404239139+404646135+405243818
2208+405979255+406908214+407949237+408842381+409445505+409882777+410346399
2198+410877496+411382441+411799332+412186640+412620746+413061612+413416996
2188+413723143+414150488+414778116+415407755+415738537+415798922+416005438
2178+416598141+417267157+417628049+417769003+417977728+418271936+418550775
2168+418868398+419273746+419676785+420027025+420385113+420777303+421154981
2158+421462017+421675030+421842268+422031371+422189836+422218495+422200950
2148+422366077+422833954+423518537+424229833+424833056+425333846+425737940
2138+425906168+425788267+425676038+425915863+426509885+427233978+427926443
2128+428490190+428880664+429224505+429726581+430399226+431050632+431544331
2118+431953438+432463495+433191149+434088778+434981955+435698923+436182003
2108+436487853+436705614+436904413+437141534+437426376+437635299+437592459
2098+437358109+437302934+437714317+438400714+438826773+438619762+437908499
2088+437227676+437099387+437610565+438347618+438773314+438699110+438391546
2078+438224803+438283374+438383730+438443356+438630942+439075799+439620484
2068+440004099+440194125+440407435+440786201+441165496+441292565+441223473
2058+441303283+441721789+442267728+442602566+442711694+443010123+443898386
2048+445207860+446318402+446925616+447366087+448003411+448696008+449175592
2038+449600067+450325314+451337644+452307894+453135376+454073569+455291096
2028+456624645+457865390+459071869+460474509+462193519+464107832+465876112
2018+467104259+467738615+468308496+469499079+471458772+473750367+475928678
2008+477851929+479407889+480374906+480763534+480963816+481329325+481831269
1998+482303400+482852076+483783277+485165701+486657121+487880090+488919958
1988+490234445+492047808+494069831+495932004+497709848+499746349+502044738
1978+504176087+505866240+507358056+509016186+510884823+512847681+514898561
1968+517008243+519030266+520972347+523056437+525357299+527694043+529952296
1958+532207417+534493471+536765312+539082862+541544168+544097619+546679497
1948+549410442+552410893+555566775+558622499+561381608+563826029+566109907
1938+568329146+570365350+572155991+573980204+576204654+578870893+581704535
1928+584434029+587047567+589656819+592081188+594012914+595748809+597861459
1918+599932028+600812705+600456529+600064208+600487464+601679861+603320446
1908+605223018+607280791+609279333+610695725+611022681+610553848+610267259
1898+610708851+611537685+612216134+612673556+613168046+613781592+614251480
1888+614316318+614072997+613814901+613752768+613906518+613985997+613546780
1878+612548894+611544347+611127225+611471067+612434786+613696308+614485699
1868+613605549+610617102+606697850+603504404+601715215+600817454+599899576
1858+598474477+596666358+594894515+593471923+592478522+591875134+591605957
1848+591762411+592614265+593881261+594045695+591845717+588139048+584645294
1838+582182272+580583967+579459111+578831516+578898662+579139344+578359715
1828+576298117+573976445+571965701+569900607+567622335+565550843+564054048
1818+563301066+563465698+564539766+566061164+567225199+567341550+566454276
1808+565418531+565079438+565670096+567015715+568799760+570499180+571537564
1798+571883516+572301561+573750207+576357612+578738317+579212822+578270407
1788+577889431+579076618+581339587+583809930+586346033+589184886+592038117
1778+594348247+596231032+598399021+601065392+603268603+603991838+603651360
1768+603147503+602900555+603424067+605218863+607697714+609443042+610290872
1758+611463284+613391382+615319876+616964748+619073770+622193276+625721857
1748+628651139+630744924+632326609+633813774+635705002+638078913+640104696
1738+641413708+643518508+648032443+653365449+655482320+654140989+652243363
1728+651537938+652321722+654189072+656489044+659115511+662846914+668186516
1718+673891990+677503612+678369185+677927527+677399068+677752012+680036747
1708+684454052+689548157+693243679+695498733+698481771+703537488+709013822
1698+712927798+716157257+719125718+720440930+720217133+720188243+721507544
1688+724778029+731045865+740491119+748883411+751128637+749520702+748639365
1678+750360419+754742568+760593151+765969756+770148225+773709191+776419755
1668+777318175+777263495+778300363+780882175+783495714+785079377+786513050
1658+788721604+791853048+796400093+802601707+807588959+809025601+809436258
1648+810595610+811419761+810243326+807626951+805112416+803463586+803133794
1638+804511798+806918755+807530652+804308053+799490248+796030066+794579640
1628+793922231+792838600+791365417+789604458+787095925+784478099+783404427
1618+784076610+784107742+781311103+777133623+773753317+771424390+769657626
1608+768625046+768855373+770010636+770761177+770065777+768278896+766681184
1598+766156616+766680854+767723723+768618054+768826681+768451311+768246708
1588+768722467+769594174+770391876+771083055+771806685+772570022+773520814
1578+774929225+776308087+776208753+774647780+773474181+773331777+772601221
1568+769833669+766269933+763691880+762545258+763127011+766292820+771355265
1558+773592906+770654786+765990665+761952423+759035475+757218979+756274981
1548+756390541+758426943+762830924+768563111+773797971+777076041+777075844
1538+774307962+771817898+771599575+773102439+774368050+775080468+777103018
1528+781483914+787129036+792349913+796997216+801766211+806232721+809488497
1518+811930478+814597773+818038760+822332393+827245046+832357883+837751242
1508+844152643+851090486+855889558+857991655+859536534+861816191+865130538
1498+869530496+874273042+877791531+879865200+881961558+885068466+888642689
1488+891696501+894188940+896680983+899774567+903856077+908610496+913397366
1478+918062609+922404326+925728567+927813053+929165267+930254176+931469790
1468+933210105+935263656+936516999+936061094+934536596+933438057+933749711
1458+935195257+936185294+936076792+935931947+935953318+935350391+933548406
1448+930519988+926842474+923649556+921723239+920854302+920477415+920544033
1438+921397206+922968535+924597181+926005922+927432868+928926300+930404891
1428+931829660+932828139+932862108+932217562+932073838+933246910+935243605
1418+936443125+935898440+934613239+933931690+933811052+933232794+932008012
1408+931091387+931245598+932554082+934837894+937772914+940694545+942644079
1398+943293770+943926774+946110329+949083407+950079776+948075034+945070626
1388+943539334+944150703+945962648+948488924+952292221+957333559+962222797
1378+965479233+966820432+967230232+968074567+970094941+973012548+975882269
1368+977868279+978826590+979335987+980346537+982694988+986120805+988873450
1358+989789745+990331660+992930292+997736290+1002371192+1004673737+1004455348
1348+1002914690+1001764374+1002694059+1006543462+1012551025+1018371201
1340+1021554951+1021871288+1021413140+1021944699+1023630994+1026213532
1331+1029883197+1034584586+1039187827+1042312478+1043731443+1044424930
1322+1045380075+1046506580+1047154292+1047442201+1047708277+1047471222
1314+1046740468+1047051397+1049185417+1051620142+1053564005+1056985402
1305+1062859598+1068325907+1070336915+1070029284+1070620008+1072590716
1297+1073741823+1072566047+1069548447+1065640737+1061420318+1056743269
1288+1050730890+1043288927+1035917211+1030098618+1025403496+1020427852
1280+1015290743+1011629058+1010305535+1010313186+1009504206+1006224355
1271+1000881388+995384937+990876873+986669514+981952164+977565596+974356650
1261+971169207+966362021+960086666+953561790+947330891+941468501+936479732
1251+932535482+928449090+922636764+914658690+905359601+895918964+886938982
1241+878365436+870328396+863525175+858213869+853583716+848915703+844846659
1231+842506980+841634085+840582641+838415443+835870436+833991938+833107105
1221+833170162+833837002+834488012+835123192+836529757+838967252+841800103
1211+844647266+847497991+850023871+852405302+855954593+861331198+867278212
1201+872229913+875764825+877907882+878986831+880478284+883966695+889028151
1191+893497563+896072384+897493195+899073429+901223213+903793681+907117064
1181+911698210+917439829+923803437+930240786+936778128+944210527+953048699
1171+962245223+969784738+975134036+979566644+983462481+985503698+985143103
1161+983733043+982587146+981884886+982008229+984187496+989057804+995621728
1151+1001843195+1005592275+1005200283+1001011788+996822436+996930872+1001085464
1141+1004687390+1005400006+1006144677+1009594701+1013994329+1016376551
1133+1016884695+1017237903+1017866025+1018444943+1018358471+1016254264
1124+1012286400+1009738094+1011471681+1016102296+1019660491+1020668073
1115+1021460168+1024396904+1029252832+1034575351+1037181173+1033447461
1107+1025726692+1020220611+1019396328+1020696369+1021359977+1021051160
1098+1019366580+1015570209+1011761700+1011574444+1015233095+1019230376
1090+1020793394+1019437750+1015922625+1011870598+1007708750+1001966273
1081+994242734+987475395+985507985+988548143+992095324+991001600+984900244
1071+978223399+974824295+974618373+975229544+975007792+973681301+971620297
1061+969896406+970001346+972269658+974631631+974355067+971572213+968447892
1051+965053273+959490599+952644901+948838174+950721552+956724169+963692879
1041+969513715+973176785+973999683+971955498+968818381+967599336+969508900
1031+972044739+971825493+968809608+965565572+963658119+962621120+961843997
1021+962286909+965805134+972759927+980906392+986847800+988023773+983890749
1011+976577999+969545837+964039161+957839790+948963231+939092479+931507651
1001+926674543+921933712+915553219+908681006+902787880+897750038+893123908
991+889023929+885405711+882236275+879689618+877455011+874888633+872277139
981+870738855+870270286+869254460+866449312+862444116+858548080+854988433
971+851015029+846401300+841867644+837914291+834179524+830435194+827309158
961+825403156+824698653+825247758+827291943+830405380+833606741+836635752
951+840114666+844475642+849631418+855234788+860777807+865915576+870555161
941+874293819+876953199+879974097+885430446+893425272+901943018+908980127
931+913769834+916945800+920274725+925012258+930194747+933594709+934604401
921+934546819+933980896+931858418+927913507+923994387+921984368+921809842
911+922063650+921520614+919996050+918389434+917855368+918616199+919756819
901+920580574+921654180+923739391+926265667+927756988+927999385+928835013
891+931981694+936441938+939388765+939989778+939818748+939837942+939656556
881+939763079+941738008+945595985+949760735+953379612+956008453+956112602
871+953400719+950523083+949888826+951096592+952596553+953701028+953908270
861+952655652+951068032+951556652+954577155+957560654+958401229+958136933
851+958413629+959161796+959556624+960009231+962158751+966480614+970882749
841+972408566+970321772+966882565+965242046+967491362+972815464+977304268
831+978435060+978692694+981834362+986813633+988278703+983640173+976721789
821+973154095+974672393+978749418+982343825+984975107+988190121+992900545
811+997751857+1001005852+1003482197+1007149092+1011074809+1011605445+1007133922
801+1000265930+994623314+991194265+988448348+984959211+981669466+981311311
791+984566494+987459564+984313609+974652144+964121148+957756287+955500309
781+954044804+950842850+945878881+940499835+935521356+931017579+927351805
771+925484521+926626394+930632118+935331329+939691712+944890295+950363727
761+952428161+949991853+948459836+953463248+963483593+971401051+973187074
751+971907810+971664950+972306331+970628215+964514986+956510200+952402570
741+956023756+967076417+981130387+991248285+992108779+984509704+974698513
731+967824782+965069433+966187099+969725376+971174285+966473755+957628789
721+949838632+945567623+944531811+945409125+945904143+944423111+942835029
711+944556743+949843315+955602083+959447792+961261122+961310921+959470548
701+955868160+951227124+946385178+942098735+940015370+941404456+944873937
691+947044961+945325753+940129874+934951145+932727355+931860331+927941012
681+920166355+913079908+910541628+911093569+911131165+909513204+904930277
671+893095282+873354505+857066389+858483573+872932766+886158430+892673939
661+893165528+890045692+887294696+887176169+886973478+883242142+877152064
651+872767276+871529697+871439862+872005126+875070942+879469581+879758215
641+873721893+867157640+866999933+872616891+876048447+870786873+859712050
631+851866289+852141732+857903600+863249403+864230403+859902340+850813064
621+840335758+832992734+828635781+823709078+818696432+817257482+817556802
611+814446596+809292864+806629461+805267683+801294014+796193907+795772367
601+803453891+815681800
##END=
