##TITLE=<SNM>
##JCAMP-DX=4.24
##DATA TYPE=INFRARED SPECTRUM
##DATE=29/4/2025
##SAMPLING PROCEDURE=Instrument type and / or accessory
##ORIGIN=Admin
##XUNITS=1/CM
##YUNITS=ABSORBANCE
##RESOLUTION=4
##FIRSTX=4497.3318
##LASTX=599.83466
##DELTAX=-1.4281778
##MAXY=2.1051924
##MINY=0.38464522
##XFACTOR=1
##YFACTOR=1.9606132e-09
##NPOINTS=2730
##FIRSTY=0.40006402
##XYDATA=(X++(Y..Y))
4497+204050455+203601113+202859905+201970463+201427668+201579901+202350719
4487+203392318+204277399+204723442+204837249+204918328+204898750+204356548
4477+203164007+201819962+201052565+201187439+201885021+202471152+202617092
4467+202607790+202810032+203118056+203172276+202864268+202393645+202030915
4457+201905465+201911439+201831287+201527337+201044189+200673798+200836824
4447+201591484+202375632+202542579+202076623+201613114+201668276+202015882
4437+202108696+201866780+201525057+201043171+200354876+199871424+200098307
4427+200949064+201792161+202032070+201568470+200787802+200126565+199826507
4417+200095115+200965602+201962239+202436069+202253283+201871659+201776367
4407+201900708+201718636+201043642+200330662+199945511+199686343+199250666
4397+198627536+197921107+197245141+196857239+197058524+197847917+198773613
4387+199235359+198977923+198159223+197092300+196249902+196186182+196980773
4377+198166231+199400330+200603374+201472129+201649291+201297962+200885025
4367+200625141+200518616+200555903+200635219+200608573+200496576+200374500
4357+200093899+199511278+198895035+198747210+199338707+200460596+201389803
4347+201333014+200332836+199460494+199764291+201235396+202838685+203412049
4337+202624434+201104216+199629903+198508972+197797147+197566449+197808988
4327+198480061+199461892+200168503+199853685+198791641+198259410+198895992
4317+200018702+200792347+201106572+201257939+201593247+202316700+203040959
4307+202983516+202117801+201379087+201407633+201948042+202582709+203193161
4297+203621223+203635709+203361097+203299975+203797412+204579235+204958093
4287+204665042+204281396+204472117+205042866+205191162+204500056+203316513
4277+202295951+201862554+202039595+202603731+203303897+203928972+204383012
4267+204812958+205446607+206272298+206931666+206866213+205751240+204065792
4257+202957599+203185044+204311098+205140651+204958929+204290334+204339933
4247+205624164+207338933+208272670+208026969+207039149+205951020+205412345
4237+205836469+206834018+207434043+207193921+206629921+206480454+206919445
4227+207472257+207566211+207103873+206392702+205795261+205770165+206707975
4217+208201228+209152324+209059890+208435316+207713930+206707291+205369540
4207+204354800+204475522+205849922+207790434+209528187+210802218+211519743
4197+211396573+210458823+209355813+208742412+208773801+209268410+209883256
4187+210132377+209707386+208873121+208285697+208356167+208848055+209174152
4177+209117165+209091872+209611987+210670384+211744771+212381460+212673066
4167+213012570+213467567+213723650+213627871+213387505+213167569+212911486
4157+212663855+212590649+212553727+212187349+211520275+211013049+210931757
4147+211174585+211628670+212275026+212999224+213525891+213511542+212802149
4137+211804615+211377116+212056594+213485290+214729635+215084946+214532727
4127+213614039+213008922+213116420+213844767+214767560+215528999+216060895
4117+216393285+216437807+216138357+215734221+215625917+215952196+216470443
4107+216906089+217211528+217498696+217926743+218522755+218974985+218854476
4097+218181747+217470803+217074040+216865945+216697797+216808943+217539373
4087+218756599+219795387+220084759+219716268+219219470+218920081+218784538
4077+218772150+218913469+219044756+218946849+218790451+218959709+219410829
4067+219724492+219812898+219997797+220353307+220568668+220531381+220541398
4057+220851321+221313964+221565487+221412539+221022904+220795444+220996607
4047+221557400+222249221+222855782+223114540+222810332+222108023+221533201
4037+221473493+221882341+222490529+223079853+223539273+223784579+223709944
4027+223298755+222800604+222667448+223175266+224136182+225000164+225251945
4017+224856595+224260765+223845062+223552938+223178337+222825959+222867000
4007+223479261+224398512+225231561+225953327+226798354+227540534+227386066
3997+226096804+224746923+224572421+225386500+225938810+225630787+225075300
3987+225053426+225633098+226312028+226562883+226206263+225639710+225791943
3977+227313119+229530463+230824893+230447799+229180638+227938650+226896823
3967+226194073+226286416+227296444+228704847+229799208+230237256+230200182
3957+230020497+229800135+229595856+229808024+230918574+232708495+234118494
3947+234387224+234066083+234152269+234592856+234495892+233524777+232163815
3937+231075337+231056868+232772078+235594281+237339908+236411567+233957490
3927+232596725+233453472+235127413+235721114+235498001+236258209+238538590
3917+240576948+240213139+237433543+234122705+231842491+230985973+231738839
3907+234827841+240676283+247993368+253947378+256475937+255457047+251457002
3897+245563050+240177782+238052493+240095958+243799334+245258295+244521571
3887+245032385+247918004+250524740+251236443+251628616+251718481+249310234
3878+245289212+243417270+245152742+248773732+252527635+255550256+256369868
3868+254911516+253601733+253555813+252774582+249551101+245513998+243383144
3858+244749579+250780929+261899206+272503903+272224457+262644760+252333889
3848+245690597+243837777+246174764+250856825+255987666+260904545+265345466
3838+267794785+266812193+263379735+259448336+255916710+252988758+251144723
3828+250809096+251642555+253548790+257700308+264091059+268629262+268262231
3818+265950324+264144443+261092180+255739381+250659066+248989154+252088887
3808+258259443+263162915+265128737+267056557+270190568+271292696+268916491
3798+265871829+263440203+260368119+256521143+253594057+252602239+253061021
3788+254286471+256023236+257843740+259507861+261688891+264656578+266751239
3778+266302702+264442798+263641731+265407879+269957787+275908209+280557893
3768+282484619+282670217+282512679+283221692+286337188+292415477+299257623
3758+303621172+305592344+308581251+315678765+326619636+336093902+339214840
3748+339333556+342416828+348804812+352525958+350926682+348985060+351740426
3738+360761078+373219386+382600959+384744474+381956700+378966273+378586321
3728+381438484+386546008+391770849+395529297+397874645+399329820+400261611
3718+401439256+404132513+409833920+419453746+431231679+440242055+443589177
3708+443310430+442933093+445085637+450364562+456500430+460467186+462241998
3698+463936885+466698362+470495419+475509095+482365923+490244409+495092916
3688+493447187+487972297+483484468+482218539+484317578+489039130+495989928
3678+505523810+515424511+519304411+516544910+514414771+515592264+514908970
3668+509097025+502297380+498629345+498090639+498863007+500659069+504807228
3658+510901325+515611781+517545529+520862524+530429361+545691950+557172045
3648+554448052+541718294+529777380+523628895+523290836+527046153+532855423
3638+538681657+543130056+546308118+549489463+553842647+559494804+564250132
3628+564530308+561481207+559740384+561997721+568337367+576532023+581922064
3618+580552133+574443230+569116302+567502190+569087300+572903297+578550469
3608+584076523+586663772+586750901+587246498+588679420+588776582+586873052
3598+585692277+587877867+592713940+597066940+599585118+602035197+605732752
3588+608773705+607941751+602961698+597006929+593934115+596115510+602164584
3578+606707226+605574423+600847855+597887342+599422898+605031643+613551773
3568+622535943+626926884+624007778+617299367+611767658+609553126+610041002
3558+611684785+613130293+613170544+611154774+608464587+608566188+613917315
3548+622972320+630620061+632092200+627214721+620467458+616709892+617068867
3538+618766703+619103364+618943090+620773839+624760143+628556197+630442215
3528+631024760+630877984+628628916+623762260+618896880+616896007+617745654
3518+619652224+621935341+625163564+629302542+633073910+634685955+633246223
3508+630136928+628239844+629098794+631277453+632039728+630638849+628628247
3498+627262572+626562376+626849240+629232559+633300094+636005602+635392474
3488+634163969+636186488+640945221+644637911+645219726+643352009+640594393
3478+638679858+638399196+638759084+638136835+636522055+635257372+634930136
3468+635395819+636750792+638834052+640461723+640452481+639037861+637390186
3458+636768181+638146017+641128174+643573207+643754032+642266814+640602845
3448+639210174+637600561+635017508+631178954+627370071+625742947+626730980
3438+628662236+630188245+631309617+631861396+631149647+629583508+628671295
3428+628912740+629232863+628950741+628946120+630106102+631847229+633218497
3418+634285573+634981513+634140682+631583834+629629778+630697158+634522762
3408+638572117+640126157+638143645+634700912+633387527+635496750+639015547
3398+640857666+639641260+636616359+633885374+632279106+631227352+630847461
3388+632897402+638290057+644580454+647472685+644960102+639212849+634356225
3378+633233029+636089995+641101178+645580282+647675460+647452134+646570930
3368+647358924+650706016+654624769+655425653+650896083+642543889+634405536
3358+630107318+630958425+635586919+640878825+643886641+643752634+642175307
3348+641684452+643145100+645140440+646058430+645998114+645697509+644975606
3338+643478173+642023910+642141988+644564888+648709155+653068966+655258083
3328+653391095+648989696+646123792+646651554+648230461+647835187+645644003
3318+643933824+643923609+645139954+646216576+645867207+644142557+642883165
3308+643919049+646780758+649597473+651385722+652470187+653235685+653484791
3298+653559030+654372075+655953354+657314894+657323102+655215643+651795163
3288+649946416+651702258+655039135+656255479+655155266+654752514+657130238
3278+661514066+665156716+665958452+664676745+663205761+661532002+658897997
3268+656570252+656497228+658411520+660574917+662358120+664119129+665660826
3258+666150404+664934606+662346142+659591627+657746467+656790294+655866650
3248+654542990+653277274+652904679+654002460+656079518+657593124+657799669
3238+658007186+659687998+662502160+665382717+667834438+669071942+667786222
3228+663848499+659333583+656857663+657215300+659107946+660970252+662635438
3218+664205042+664035648+660400294+654788083+650804576+649933040+650278456
3208+649806085+649327877+650633115+653267545+655109787+655095620+653733897
3198+651777591+650029533+649197943+648951756+647974484+645548361+642800960
3188+641695579+642718452+644458181+645601441+645762810+644826823+643291025
3178+642360389+642306640+642068904+641021588+639417509+637466736+635448352
3168+634042365+633464259+632831188+631436268+629955495+629398001+629749072
3158+630233360+630227280+629382436+627374327+624543870+622245978+621600200
3148+622051473+621811609+620101612+618259188+618090584+619772186+621785281
3138+622754283+622627329+621813919+620321290+618228787+616195749+615149590
3128+615274781+615354371+613911660+611143951+608695088+607893717+608865820
3118+610657960+612005333+612149738+611153193+609507342+607613541+605643494
3108+603885281+602754546+602036899+600851503+598996007+597579745+597685176
3098+599079731+600842018+602414784+603477786+603673326+602914638+601479223
3088+599805525+598669257+599109707+601050447+602598163+601916147+599218117
3078+596036893+593503637+592303526+593024638+595218923+596878515+596154606
3068+593527106+591304488+590826158+590916388+589725276+587480465+585901922
3058+585557235+585516315+585021873+584132887+583272538+583045077+583831187
3048+585058537+585542400+584841534+583628838+582563647+581538403+580408822
3038+579679867+579689230+579718415+578761148+576900727+575070038+573727955
3028+572774822+572516170+573515695+575233900+575891474+574340170+571350473
3018+568592310+567201585+567512648+569000961+570193410+569842157+568492352
3008+567693048+567708431+567353104+566079605+564739589+563962964+563283258
2998+562307629+561414143+560895136+560511536+560110851+559835539+559601634
2988+559008388+557903433+556645256+555615695+554656178+553407790+552151255
2978+551579169+551584337+551105399+549534822+547615849+546586956+546825057
2968+547563498+548026506+548490912+549684760+551434399+552489071+551780180
2958+549445808+546518736+544132621+543058492+543426953+544509655+545047753
2948+544274168+542536385+540746495+539483697+538823691+538699898+538852936
2938+538571605+537262173+535340585+533988773+533634966+533326092+532338545
2928+531383162+531269219+531572804+531535289+531125483+530484934+529426978
2918+528004940+526727124+526038845+526091925+526853714+528058203+528972118
2908+528623175+526856511+524906103+524150699+524449966+524377977+523093229
2898+521373991+520513460+520637435+520618829+519609576+518083019+517124293
2888+517184000+517661905+517452563+516109507+514552002+514001378+514330743
2878+514292681+513224328+511710053+510712109+510576521+510764095+510515962
2868+509756666+508978491+508355574+507618775+506741949+506058230+505704362
2858+505543601+505594128+505969276+506391911+506293473+505455438+504084748
2848+502368914+500528740+499070616+498393494+498223552+497756258+496496045
2838+494918627+494082234+494487206+495475087+495891368+495263010+494111692
2828+493141687+492448088+491687941+490746208+489827064+489031682+488271626
2818+487565289+487183543+487413679+488120594+488670366+488523346+487644392
2808+486101206+483917652+481637485+480169298+479781016+479947249+480158840
2798+480239129+480118923+479870243+479692914+479544040+479072794+478083757
2788+476787275+475510493+474394563+473388867+472353195+471233161+470269418
2778+469843469+469981277+470250356+470207248+469709705+468906266+468153811
2768+467686638+467266131+466549853+465685582+465023874+464482340+463726844
2758+462743584+461804770+461098068+460653727+460396352+460107481+459542843
2748+458743874+458056659+457691573+457446267+457012688+456301851+455290257
2738+453935405+452505371+451590453+451435347+451510164+451085492+450086210
2728+449025579+448277045+447872560+447743447+447652821+447250676+446565802
2718+445966172+445492403+444833309+443924622+442979120+442146041+441590827
2708+441506707+441739245+441801628+441420125+440771003+440168728+439726332
2698+439292875+438650258+437782370+436929408+436368357+436129496+435907721
2688+435345363+434440142+433511999+432788911+432223300+431647018+430939738
2678+430130888+429382202+428780384+428269403+427890060+427805332+427962353
2668+428063680+427974818+427804785+427560908+427070387+426229525+425141838
2658+424112489+423488265+423312213+423277373+423190426+423174800+423249587
2648+423099497+422459981+421469972+420520335+419849293+419400970+419124077
2638+419107995+419176306+418824566+418014774+417489292+417820329+418634773
2628+419050111+418538918+417319959+416146054+415657692+415832923+416115440
2618+415990765+415359792+414542765+414039141+414098849+414419762+414381244
2608+413660314+412572018+411740946+411488739+411621166+411745932+411693824
2598+411602408+411598061+411491445+410995543+410225029+409682432+409700490
2588+410114309+410489397+410518885+410191162+409675409+409190817+409008107
2578+409305976+409849121+410072082+409742048+409294302+409241678+409474063
2568+409449013+408950406+408265775+407649607+407091809+406635277+406423047
2558+406415599+406451898+406449374+406313907+406025554+405891789+406177072
2548+406538997+406429918+405932253+405628000+405799188+406192121+406436302
2538+406394683+406146550+405848164+405677857+405780400+406148374+406597883
2528+406889946+406852097+406489504+406060180+405867772+405892792+405803383
2518+405374607+404752815+404328082+404462242+405250540+406388056+407284186
2508+407452395+406919861+406204373+405765382+405584678+405437476+405375671
2498+405590333+405901001+405840077+405325388+404850007+404837330+405150278
2488+405442705+405681141+406006523+406306490+406311597+406031512+405781555
2478+405796421+406015005+406219634+406258061+406123019+405862908+405509770
2468+405200592+405230324+405716740+406330719+406674768+406773419+406874837
2458+407028392+407199064+407510765+408055764+408655485+408995247+408895927
2448+408441371+407917257+407588865+407489333+407436313+407267131+407073143
2438+407109350+407397977+407646232+407677150+407628752+407646475+407739320
2428+407907924+408080480+408100454+408010832+408040746+408196369+408209563
2418+407905279+407364840+406841760+406659780+406974035+407531651+407871261
2408+407848612+407815353+408162472+408802565+409297798+409467649+409605821
2398+410018606+410593307+410984386+411088327+411136604+411350840+411675644
2388+411846346+411578239+410759844+409583659+408351475+407092630+405583432
2378+403698508+401418765+398601928+395216288+391765103+389021685+387279463
2368+386117232+384952903+383666028+382564721+381991844+382373225+384307003
2358+387879336+392140070+396094361+399902849+404035229+407713692+409446489
2348+408569420+405705522+402364724+400018798+399004134+398596395+398187866
2338+397956059+398332210+399149694+399740325+399769844+399565975+399615407
2328+399994782+400412522+400736445+401233866+402163408+403384252+404544933
2318+405457845+406201758+406960264+407779115+408558658+409298832+410087130
2308+410805111+411227868+411467428+411927243+412779718+413791191+414652968
2298+415261870+415697061+416092396+416537801+417010355+417397086+417646587
2288+417868819+418220163+418726553+419253677+419581886+419522513+419063761
2278+418393875+417751927+417308558+417114296+417024491+416782226+416300643
2268+415750324+415361130+415285796+415567158+416083975+416642989+417173487
2258+417682309+418127319+418579139+419295691+420301965+421109659+421232783
2248+420813523+420375079+420136309+419929126+419618002+419215706+418699132
2238+418048124+417388239+416877837+416537528+416283193+416015573+415673987
2228+415310299+415073232+415028512+415062318+415064385+415162307+415629480
2218+416491531+417350725+417787709+417853831+417935823+418218552+418541168
2208+418745037+418920117+419269516+419887690+420750562+421846336+423180333
2198+424590819+425710550+426326413+426672134+427095498+427554919+427758484
2188+427661596+427517100+427600824+428070429+428830971+429482860+429740691
2178+429850925+430246139+430943781+431582233+431865023+431808599+431729374
2168+432003804+432691293+433478892+434080164+434541590+435071510+435684152
2158+436171967+436477831+436904266+437745827+438861788+439880010+440696277
2148+441481809+442342827+443286535+444385167+445652586+446866134+447816166
2138+448634318+449608124+450804799+452141502+453656050+455428034+457334452
2128+459124555+460763110+462531020+464641702+466867240+468784115+470298451
2118+471625273+472849583+473823692+474450379+474885935+475475350+476478644
2108+477803825+479078266+480036628+480781179+481628395+482723439+483840008
2098+484623138+484940160+484841965+484360200+483511586+482275906+480550922
2088+478407315+476189926+474036469+471658349+468939343+466314579+464209339
2078+462496789+460834795+459261816+458109587+457421855+456813409+456043594
2068+455447096+455452082+455831578+455876176+455346560+454790130+454771372
2058+455194099+455554746+455589373+455453480+455431743+455709031+456352803
2048+457290705+458306433+459261421+460294113+461610386+463182180+464862201
2038+466628257+468556655+470792619+473578934+476976917+480600202+483948996
2028+486879563+489526094+492006787+494322189+496347080+497962468+499229005
2018+500211019+500758906+500802258+500583158+500336940+500125744+500019675
2008+499971246+499610933+498632659+497236887+495918881+495034546+494627537
1998+494440905+494231777+494214934+494816540+495902617+496798170+497207276
1988+497502531+498047439+498826648+499704781+500590181+501448645+502458810
1978+503969892+506075589+508376460+510338542+511874219+513451059+515528908
1968+517968712+520177467+521821068+523106667+524425949+526121962+528439431
1958+531252195+533968891+536106630+537839488+539705138+541988923+544623111
1948+547508290+550718212+554281151+557725465+560174389+561389274+562326781
1938+564034893+566469103+568746686+570284431+571426780+572910958+574964547
1928+577320565+579951591+583010603+586073566+588495251+590531754+592814567
1918+594821582+595322651+594482854+594011942+595181651+597647113+600037971
1908+601421826+601966187+602200700+602231648+601950925+601625999+601864161
1898+602976595+604489593+605486442+605750263+606190652+607514799+609013387
1888+609525461+609137484+608676604+608273243+607597611+606769791+606136416
1878+605703202+605368912+605322946+606037066+608077582+611509371+614747445
1868+614698682+610121504+603619759+598600003+596319926+595828099+595400721
1858+593917212+591350880+588431409+586014467+584677977+584559170+585401643
1848+587024571+589497572+591918406+591687844+587657642+582481321+579074765
1838+577705989+576829467+575530249+574826344+576164475+578892115+580106028
1828+578264577+575003156+571889726+568713853+565385732+562931761+562091599
1818+562309939+562383692+561911017+561781569+562866582+564533166+565209771
1808+564431444+563287271+563117147+564668085+567771239+571076256+572888765
1798+573002708+573015720+574767730+578731720+582865407+583810940+581297809
1788+578529978+578062775+579986917+583058515+586354897+589386791+591626556
1778+593180170+595361078+599741440+606343873+612233220+613862775+611847917
1768+609164966+607342364+607128645+609256899+612875532+615445817+616124611
1758+616377912+616829489+617395070+619467021+624814804+632632913+639171261
1748+641770791+641503627+640762632+641148421+643235026+646320730+648689091
1738+650240759+653771290+661078297+668126166+668650401+664292658+659785342
1728+656562287+654967388+655535948+657934467+661700971+668025174+678535172
1718+691253318+698837704+696979472+690460459+685077776+683221064+685443014
1708+691414930+699028440+704758424+708203346+713474944+723155906+732889097
1698+736941250+736103823+732090584+726174181+722006140+722292092+726524522
1688+733210740+742912497+755864669+765287223+763606654+755876222+750038800
1678+749245577+753764080+761834639+770375989+777833420+783850451+785943440
1668+782370469+777430850+776224598+778789532+780940952+779803771+777851235
1658+779232475+786374222+800141690+816949624+824241552+819489873+815412609
1648+816751531+818713856+814928807+807173081+801275040+799916722+803431506
1638+811189178+820049191+822849307+816501574+807663267+802379387+801429416
1628+802465726+803038542+802689113+801466566+798801187+795650668+794318860
1618+794970719+794303660+789865719+784384050+781036715+779795867+778842369
1608+776836023+774102242+771917260+770965282+770576028+769636514+768179211
1598+767241948+767095415+766742763+765588010+764450039+764223309+764633601
1588+764850603+764624480+764363153+764414713+764885139+766333261+770001509
1578+776272997+781988145+781861312+777211476+774477999+775833823+777878231
1568+776946926+774454590+773300689+774455320+779387520+790933828+806832772
1558+812061201+801034021+787344927+778313027+774389228+774428931+776563205
1548+779556550+784114940+791185610+799902251+808743659+815950707+816928769
1538+810823879+804748113+803066511+804051200+803797291+802315971+803343404
1528+808692220+816647985+825009421+834296082+845248719+854887910+859957827
1518+861328366+860399189+857623759+855096583+855914370+861686065+872375185
1508+886150253+896191406+895204285+888519952+884413990+884978111+889001261
1498+894021686+897347375+898361675+899583796+903780961+910866587+917053195
1488+918430362+915921061+913199927+912546305+914060884+916698598+920355111
1478+926694575+937005629+950103970+962164724+967712424+964669829+958508150
1468+955605095+957489716+961085852+962101003+960455214+960359694+965716354
1458+976214191+983725736+980211682+971203434+965674583+966476744+971024737
1448+974436461+974761995+974333523+975038280+976142323+977083660+979244626
1438+983760941+988282910+988395394+984570763+981717870+983075154+987933177
1428+992772898+995013635+995307978+995923964+998496680+1002955538+1007156047
1418+1008502629+1007213991+1005123921+1002825056+1000924871+1001177625
1410+1004267585+1008355002+1011161564+1011976554+1011579821+1010978610
1401+1009995198+1008688258+1009031607+1012074081+1014683461+1012681858
1392+1007055298+1002559959+1001815864+1003018893+1002518492+1000365918
1384+1000617152+1004777045+1008770462+1008626970+1006615456+1007557036
1375+1012479205+1017905544+1020693378+1022762593+1027598666+1034302091
1367+1038411823+1038090667+1035553762+1033283049+1032391448+1033144907
1358+1035403703+1038758881+1041826466+1042837969+1042369915+1043215549
1350+1046383214+1049562431+1051005629+1052082311+1054623715+1057995432
1341+1059974416+1060223340+1061164799+1064929661+1070103307+1072745764
1332+1071099245+1067290969+1063947344+1061675901+1060520419+1061112266
1324+1063821362+1067751119+1070944807+1071533006+1069362617+1066553927
1315+1065230631+1064925892+1063801662+1062657854+1064411993+1069379763
1307+1073741823+1073447663+1068393067+1061460297+1055329992+1051558684
1298+1051091238+1053690525+1056750814+1056622035+1052481416+1047112109
1290+1042803433+1038801564+1034002337+1029329214+1025213037+1020175466
1281+1013470704+1006727818+1001947804+998873410+995087936+988744458+981007459
1271+975015114+972416921+971661030+969792340+965347954+959055611+952176651
1261+944890924+936881532+928816141+921818981+916159101+911456246+907062508
1251+901858886+895089552+887543593+880618240+874314771+867226772+858485628
1241+848907239+840055616+832821876+827097303+822411532+818637124+815928879
1231+814004434+811940387+809151397+806182920+803926738+802607942+802122012
1221+802696592+804480706+806854722+808787132+809877130+811039909+813796613
1211+818447726+823366611+826772802+828949576+831701051+836043837+841239493
1201+845917724+849629202+852760386+855376515+857175161+858381778+859574775
1191+860835383+862173332+864116566+866851381+869970525+873798440+879207693
1181+885503806+890648692+894544036+899640767+907561024+917412961+927336706
1171+935978014+942951886+948871148+954346250+958845662+961410414+961965901
1161+960672824+957687322+954147974+951823634+952332304+956632164+963923970
1151+971455580+976354036+977381408+974519395+968853374+963435730+961763917
1141+965137396+971696174+977894273+981214247+981048257+977887524+973717842
1131+971621813+973075650+977010029+982190849+988494927+995375833+1001660576
1121+1006713833+1009776250+1009551647+1006646526+1003648924+1001885057
1113+1000170682+997369593+995271436+996767470+1001538546+1006515011+1009418247
1103+1009450777+1006750558+1002698770+999313434+996834657+993958538+990890649
1093+989045185+987934271+985259164+981200627+979754329+982944612+986628487
1083+985161029+979204253+974516476+974126553+976079515+976682063+973724226
1073+967948032+962498649+960338717+960969720+960202277+955325467+949676835
1063+948697254+952785157+956609728+955190182+948731181+940808006+934574398
1053+931379008+930995833+932389234+934699833+937777632+941762173+946248755
1043+949808472+951176639+951000618+951262127+952650785+953485597+951883402
1033+948097502+944230492+942011765+941075778+939941395+938913840+940159674
1023+944351306+949039083+951607179+952987385+955716728+959504330+961307780
1013+958951944+952760046+944005403+934246311+925461510+918833479+914420406
1003+911754784+909735669+906461358+900774421+893453126+885443551+876963490
993+868976473+863381955+860733601+859031204+855989217+851631413+847314164
983+843500113+840017676+837501748+836912637+837853549+838580012+837684337
973+834818311+830220582+824735022+819611598+815456083+811851251+808340724
963+805209418+802990326+801862692+801792040+802803360+804952408+808303148
953+812969766+818745352+824633604+829174544+831874458+834072087+837256898
943+841214138+845124743+849579831+856017369+864815667+874762030+884261438
933+892585784+899270239+903412743+905086076+906310569+909139080+912639332
923+913246562+909483280+904581541+902418265+903256482+904356574+903325249
913+900163178+896528615+894219414+894110092+895701281+898125398+901416916
903+905581735+908967375+909520917+907661347+905790772+905409179+906574632
893+909274000+913605476+919253986+925239096+929574403+930362580+927655065
883+923401111+919973335+919353945+922650631+928595734+933229214+933652639
873+931686058+931162005+932909152+935419425+938356346+941164732+941510391
863+939731141+940424953+946091035+952924516+956002984+955535963+954145603
853+952775186+952087515+953123460+954946731+954899549+952600198+950594217
843+950090593+949770349+948508585+947322033+948996886+954341082+960295061
833+963800542+964570417+963941420+964390018+968651876+976268609+982167197
823+982639690+981293046+982723415+985867853+987697386+987729308+987749494
813+990576302+998300959+1009259128+1017483699+1017645797+1011309313+1005103005
803+1003035675+1003761225+1002303192+994687189+983357519+974115061+969066607
793+966426521+964884338+965377565+967900302+969117133+965650748+957945001
783+948637242+939244299+930447521+923338120+918888748+916701942+915401021
773+914461083+913902069+913414254+913461254+915751788+921493994+929426289
763+935755843+937205972+934676181+933029966+936792335+945865520+955820821
753+961816328+962489407+960701036+959623624+958903120+956111394+951871364
743+950684568+955718978+965032209+974172641+981575350+988826845+996181886
733+1000885228+999876644+993171516+984081003+976404684+972435466+971942057
723+973034487+973389328+970849019+966556577+964874610+967107322+969802980
713+970757147+970313778+966567035+957444114+946757425+942318876+947473309
703+956225945+958741265+953043992+945988462+943385526+944432173+944373681
693+942455620+942328301+943655001+942413119+938845438+937397133+939709982
683+942445527+940349984+930675103+916445540+905196250+901240469+900551156
673+896372475+888393240+882684111+886036371+897593441+907270937+910982537
663+912283153+914332304+918005416+923114612+929138088+933975863+934307173
653+929717896+923272758+916606361+909605006+903972548+903470688+909387882
643+916688809+917960544+912324742+905196797+899721026+894830109+889955123
633+886307244+884573048+883803112+883146328+881686349+877802011+874067245
623+875790801+882406428+886709328+885831894+884107791+882135677+876874780
613+870627856+871863050+886829594+911564169+932197829+935675098+924659774
603+912882540+906511763+902144838
##END=
