##TITLE=<SNM>
##JCAMP-DX=4.24
##DATA TYPE=INFRARED SPECTRUM
##DATE=29/4/2025
##SAMPLING PROCEDURE=Instrument type and / or accessory
##ORIGIN=Admin
##XUNITS=1/CM
##YUNITS=ABSORBANCE
##RESOLUTION=4
##FIRSTX=4497.3318
##LASTX=599.83466
##DELTAX=-1.4281778
##MAXY=2.166451
##MINY=0.38686144
##XFACTOR=1
##YFACTOR=2.0176647e-09
##NPOINTS=2730
##FIRSTY=0.40134624
##XYDATA=(X++(Y..Y))
4497+198916220+199096748+199699658+200404708+200585856+199917895+198901671
4487+198278259+198114939+197933850+197643325+197831312+198902749+200290826
4477+200994576+200904696+200927975+201577915+202201475+202001539+201210110
4467+200587776+200200282+199528082+198623155+198224434+198673080+199491303
4457+200177062+200767491+201337094+201508227+200888020+199772817+199009926
4447+199010206+199242165+198974889+198264448+197804828+197956494+198462686
4437+199028965+199570311+199854869+199517654+198646744+197950556+197999624
4427+198503364+198589197+197779866+196494785+195521455+195187637+195185968
4417+195171330+195274149+195844461+196882176+197984676+198731365+198937121
4407+198708042+198395819+198260756+198034646+197142628+195525340+193887801
4397+193013050+193104968+193855778+194927067+196117084+197059395+197229317
4387+196595507+195846145+195619282+195822659+195851506+195198420+193856384
4377+192420450+191737231+192203040+193397650+194414155+194544551+193887033
4367+193261361+193273192+193760300+194343329+194945117+195544305+196026584
4357+196363104+196444388+195989790+195090682+194409945+194506797+195250575
4347+196000764+196294598+196260241+196196166+196046583+195730136+195575206
4337+195836662+196222487+196375202+196321052+196203345+196114558+196294908
4327+197011996+198101911+198847064+198488372+196948896+194986579+193514265
4317+192916184+193109134+193869116+194796199+195343069+195364295+195379287
4307+195849232+196528847+196995778+197399830+198119223+199035789+199629601
4297+199519766+198721424+197654507+196963844+197094284+197938252+198924093
4287+199497935+199554477+199348603+199096319+198861421+198596922+198080996
4277+197217471+196533499+196856608+198410457+200523479+202085850+202259421
4267+201192356+199996859+199541405+199453224+198864567+197902049+197590151
4257+198259648+198969690+198850963+198243149+198032356+198495418+199151163
4247+199431068+199292917+199130085+199113793+198977814+198553275+198062193
4237+197819156+198044217+198809975+199744945+200138318+199801930+199451954
4227+199897423+201094707+202112319+201991392+200755822+199474110+199140735
4217+199706083+200417455+200833280+201156744+201676717+202234842+202341546
4207+201805015+201214172+201453708+202597108+203752414+204147973+203786918
4197+202997719+202076486+201408141+201306814+201705578+202284812+202769615
4187+203054926+203247197+203515477+203777465+203720996+203296117+202976686
4177+203265586+204020502+204602305+204712539+204592793+204329815+203672223
4167+202788876+202462710+203125811+204235859+204959490+205105572+204980952
4157+204656395+203960621+203062563+202483152+202525087+203100583+203992039
4147+204879064+205296218+204951868+204045863+203125442+202709573+202957691
4137+203498225+203786002+203770301+203926220+204576441+205525385+206385129
4127+206839357+206625566+205772529+204847572+204480077+204656070+204848562
4117+204736763+204501052+204486606+204772449+205069428+205064244+204844884
4107+204793394+205069000+205510600+206057455+206817393+207598232+207884842
4097+207545367+207077579+206832223+206541314+205985788+205512653+205460822
4087+205658942+205907518+206397403+207171757+207668333+207364958+206586335
4077+206192341+206655373+207744033+208874716+209509442+209395235+208653731
4067+207605765+206543338+205675736+205095321+204775905+204751253+205156014
4057+205904460+206565804+206711103+206208870+205250916+204344231+204102834
4047+204760381+205931314+206900789+207190412+206986680+206919252+207231209
4037+207405636+206932782+206146434+205855614+206364996+207236408+207896526
4027+208110125+207936614+207687919+207857354+208577234+209224515+209126896
4017+208479319+207936599+207655453+207398650+207192022+207261076+207566150
4007+207832007+207925491+207959287+208099918+208477590+209133543+209759997
3997+209777427+209031787+208102429+207637433+207745510+208148662+208566998
3987+208931405+209353700+209789229+209859774+209267838+208217848+207305240
3977+207189792+208184702+209793305+210962746+211161102+210802174+210419347
3967+210063654+209740412+209788032+210440247+211345263+211820141+211512541
3957+210695825+209988530+209843925+210330929+211404907+212973142+214372873
3947+214567048+213551356+212570212+212495103+212976185+213285882+213179016
3937+212845641+212716516+213257256+214496016+215797093+216398098+216242312
3927+215956233+215992968+216116288+216017915+216134102+217056827+218408922
3917+218976280+218006657+215965213+213893342+212473567+211822283+212054523
3907+213780065+217566047+222765408+227406894+229873128+229785139+227223516
3897+222991665+219073855+217330927+218062520+219678198+220167847+219821356
3887+220670080+223205235+225450130+226225710+226720691+227028262+225457516
3878+222491751+220923871+222127786+225230416+229151269+232932850+234585248
3868+233376369+231504685+230767199+230282484+228475894+225735737+223709551
3858+223809283+227382699+235257433+243425114+243556041+236315251+228407048
3848+223438154+222142852+223930757+227471708+231235061+234412076+237025545
3838+238765770+238710439+236736084+233821233+231125772+229367468+228714057
3828+228818072+229175360+230271228+233660956+239134107+242597556+241449089
3818+238715904+237081615+235409409+232360603+229266466+228094618+229683665
3808+233152283+236184058+237937326+240109564+243171545+244593358+243295737
3798+241474613+240339957+239182185+237687908+236636810+236677370+237919970
3788+240382187+243869668+247564529+250791587+254093105+258196553+262200831
3778+264575635+265745859+267483336+270823346+275745476+281418370+286392463
3768+289857404+292290788+294457916+297247481+301928316+309009567+317003294
3758+323712117+329049569+335132232+344416681+357834475+372142528+381828947
3748+387058071+391880084+397053670+399212585+398042509+397807862+401392179
3738+408620340+416907472+423099852+425869654+425871692+424720198+424262897
3728+425366888+427155473+428087888+427535139+425356372+421458827+417146107
3718+414652842+414888583+417503972+422247228+428030548+431604585+430695389
3708+427002360+423830972+423487730+426467867+431157121+434981463+436986969
3698+438033178+438959833+440263111+442759596+447305722+453203191+457376534
3688+457506250+455196260+452886211+451183977+450122968+450415368+453428857
3678+460163027+468587408+472855195+471347490+469295663+469001046+466808040
3668+460440805+453258315+448806573+447574963+448078437+449277522+451571353
3658+454970564+457703232+458721849+460173809+464934997+473209780+480167312
3648+479067515+470513566+461206163+455730014+454105237+454280477+455306273
3638+457487551+460519621+463253028+465235965+467562912+471486778+475535900
3628+475972758+472844974+469547887+468376452+470177237+474797483+480402255
3618+484220452+485832733+487089040+488877683+490549136+491771027+492733073
3608+492982166+492150191+491331540+491983637+494164826+496606807+498347741
3598+499982503+502787223+506721429+510091630+511796996+512771685+514303643
3588+515948509+515878259+513446647+510173283+508073657+507966008+508908852
3578+509400480+509231857+509353272+510348759+512229896+515153904+519115288
3568+522671068+523100600+520241347+517043018+515101379+513609480+511964792
3558+511279195+512494587+514458795+515090331+513924627+512668822+513202281
3548+515428166+517431014+517712721+516465424+514649042+513392114+513817924
3538+515814863+517508945+517293824+515871524+515138188+515670642+516117367
3528+515199693+513651665+512866277+512674317+512136309+511365515+511175091
3518+511681785+512063696+511696083+511212549+511623057+512261328+510965051
3508+507474144+504751549+505223030+507532931+508508329+507475385+506452070
3498+506996991+508943238+511288766+513183611+514140043+513827731+512395387
3488+510880149+510445832+511036010+511284571+510112132+508031826+506329946
3478+505809604+506535318+507829822+508608652+508353651+507459137+506371009
3468+505183799+504262639+504329757+505533510+506980093+507567258+507104817
3458+506304186+505655752+504762302+502948696+500255643+497840988+497407261
3448+499554744+502385460+502866926+500179367+496401081+494009025+494021019
3438+495987265+498435656+499525439+498540233+496742048+495652561+495145424
3428+494410965+493834967+494559677+496365927+497321000+495997545+493073981
3418+490225628+488417074+487548291+487022690+486675608+487234266+489423727
3408+492613223+494780321+494375959+492114564+490144212+489756422+490612355
3398+491704087+492300852+492208949+491925470+492397246+493773521+494718639
3388+493889205+491689434+489719407+488895940+488825247+488833460+489031505
3378+490059310+491872709+493434090+493927313+493679816+493559730+494066099
3368+495291181+497229599+499687030+502116161+503859044+504672142+504885844
3358+504700561+503609419+501338513+499039719+498348864+499429311+500946912
3348+501843139+502143043+502080120+501559896+500581367+499561597+499079186
3338+499337142+499942150+500397146+500831110+501735195+502991886+503842678
3328+503945955+504036765+505190889+507464868+509542042+509923481+508416751
3318+506161383+504348427+503249605+502467467+501938558+502122542+503052091
3308+503984595+504362784+504264116+503675179+502544393+501586956+501611594
3298+502337898+503177997+504418440+506247762+507591837+507261505+505516317
3288+503753877+503327063+504755094+507296895+509438056+510621485+511928278
3278+513909443+514845196+512808908+508710333+505490025+504660443+505155794
3268+505358448+505081290+505296588+506685861+508781292+510223917+509973583
3258+508433117+507013357+506637059+507085261+507709293+508307152+508916946
3248+509038125+507951001+505924993+504085450+502990409+502277988+501689228
3238+501591151+502415297+504055258+505695870+506336682+505936337+505478858
3228+505389112+504962357+503746314+502200590+500818880+499666174+498757658
3218+498258526+498219591+498183314+497404366+495868981+494479413+493785013
3208+493252086+492234296+491107498+490715661+490965286+490755069+489482957
3198+487937321+487133529+487101802+487403036+487853719+488145707+487681286
3188+486396206+485146811+484821826+485166988+484831900+483099946+481049507
3178+479979695+479558937+478816236+478031912+478144878+478920636+479111030
3168+478198614+476917433+476111396+475891697+475837045+475468161+474620678
3158+473545696+472458720+471200197+469714560+468434324+467759185+467573458
3148+467476208+467151193+466438418+465408103+464425142+463763415+463277813
3138+462719185+462090840+461485123+460878195+460262138+459681502+459071236
3128+458417071+458001394+458044731+458204284+457896226+457049038+456167641
3118+455704166+455638554+455649041+455409461+454719994+453625042+452415883
3108+451286928+450122406+448879659+447918086+447610826+447872533+448349420
3098+448762379+448909082+448647906+447966357+447051253+446324741+446235083
3088+446791111+447415764+447461080+446785528+445795891+445034077+444649153
3078+444248187+443470421+442640189+442400343+442703379+442759684+442126878
3068+441237623+440569249+439946929+439043790+438032469+437380520+437308734
3058+437691739+438246556+438568734+438252139+437371628+436674983+436832468
3048+437512068+437754780+437249297+436514957+435884218+435138505+434205440
3038+433467555+433126617+432771530+431950367+430855090+429997592+429468121
3028+429004794+428550181+428257987+428121595+427929960+427415348+426444706
3018+425434243+425259092+426175230+427214939+427301348+426547747+425749715
3008+425191028+424696653+424305732+424162367+424053330+423615113+422854983
2998+422096094+421511883+421033637+420641268+420393180+420195636+419872188
2988+419406733+418863615+418261708+417716758+417353369+416988267+416339538
2978+415479145+414641351+413816230+412963074+412330533+412191896+412496970
2968+412989573+413504361+414023285+414481857+414524573+413555822+411341901
2958+408646455+406879731+406802953+407801718+408697739+408955369+408714016
2948+408115507+407178277+406055526+404976556+404059000+403382590+403072169
2938+403126555+403319549+403471333+403697709+404144965+404576181+404495681
2928+403651772+402336352+401255255+400954996+401180102+401055023+400125946
2918+398828960+397782604+397110183+396631701+396310970+396287130+396649514
2908+397291980+397972969+398506811+398822668+398794574+398206021+397063123
2898+395778013+394845893+394463834+394533847+394835642+395101367+395099654
2888+394783059+394261269+393560429+392565770+391400863+390691515+390983798
2878+391932993+392536789+392146459+390903918+389411191+388333639+388043070
2868+388407994+389089544+389897383+390640409+390965187+390646022+389828316
2858+388912739+388301409+388112285+388092079+387943485+387618028+387151924
2848+386489399+385661737+384888934+384337012+383973830+383805267+383984169
2838+384378872+384337780+383404922+382028351+381066306+380832250+380919869
2828+380782265+380355983+380125353+380467059+381029202+381132390+380623746
2818+379817059+378880951+377926557+377406983+377705085+378417506+378623823
2808+377908005+376703100+375639344+374993746+374773485+374889199+375129400
2798+375195661+374834429+373982869+372937073+372246809+372184329+372418120
2788+372430468+372143562+371893169+371868472+371846493+371513355+370844213
2778+370055162+369337394+368780539+368447282+368383030+368491536+368423177
2768+367814063+366817483+366094546+366007222+366154013+365945214+365273591
2758+364419608+363696671+363352306+363437504+363646598+363599657+363353281
2748+363318275+363584118+363638179+362956097+361676009+360468032+359838652
2738+359705952+359609499+359254914+358795309+358565861+358651944+358795900
2728+358668783+358203210+357658172+357286984+356996710+356527533+355885628
2718+355305701+354853688+354368500+353762133+353152842+352731463+352588571
2708+352582959+352370792+351734411+350891713+350317960+350251994+350472166
2698+350551219+350296484+349934217+349814752+349951765+349993212+349659157
2688+349031993+348401462+347986996+347799851+347656546+347346272+346828677
2678+346230435+345675027+345193797+344785358+344472839+344250304+344043337
2668+343831525+343746682+343880209+344062155+343997725+343565239+342915417
2658+342368546+342202464+342393331+342578083+342375488+341723303+340915168
2648+340331785+340089634+340012885+339971025+340011999+340096812+340016017
2638+339661667+339145668+338666211+338427516+338564854+338981418+339372664
2628+339495704+339327879+338957666+338452686+337907883+337526060+337497287
2618+337770870+338068263+338182204+338163446+338152309+338158040+338109267
2608+338000023+337856422+337690104+337588334+337647446+337736602+337604759
2598+337288754+337097474+337123766+337084328+336739698+336244997+335967988
2588+336075075+336390489+336625727+336660675+336566615+336444609+336317994
2578+336137703+335856439+335511544+335219911+335071613+335044464+335027744
2568+334935457+334791560+334684827+334657649+334664562+334639747+334590679
2558+334593928+334674576+334730853+334648078+334475615+334408645+334540488
2548+334678269+334536086+334120321+333744731+333649460+333807123+334075654
2538+334309947+334352073+334143865+333885496+333917253+334350478+334905413
2528+335226380+335248359+335112262+334920213+334762876+334749316+334852504
2518+334957938+335074360+335251047+335389951+335336481+335052647+334676024
2508+334463976+334505629+334513369+334238309+333957016+334084339+334499366
2498+334723231+334583412+334322532+334198074+334265074+334472041+334742344
2488+334925737+334827128+334409177+333906973+333642459+333745440+334074827
2478+334358927+334400019+334171221+333767035+333346306+333111482+333206694
2468+333589255+334058963+334401555+334493635+334359547+334168266+334114501
2458+334283832+334610088+334877319+334812623+334355382+333837462+333704466
2448+334002244+334312340+334306343+334166110+334254852+334585686+334883021
2438+334971113+334866714+334691002+334662405+334945353+335383629+335602088
2428+335440792+335128598+335017257+335246557+335671747+336081722+336423634
2418+336746492+337043236+337295726+337547773+337798905+337955799+337982977
2408+337987438+338084600+338246811+338353545+338375996+338452420+338751556
2398+339287319+339877822+340298137+340529033+340805629+341287803+341774853
2388+341953844+341791868+341439794+340890324+339956313+338505003+336604310
2378+334487757+332368959+330265227+328124775+326110819+324472365+323136561
2368+321848468+320720636+320122068+320025645+320106470+320491838+321748263
2358+324134913+327391055+331228306+335604983+340272997+344244514+346209667
2348+345553375+342998901+340412521+339302887+339385869+339613308+339814042
2338+340350750+341091264+341462659+341242753+340911269+341153538+342111861
2328+343231037+343914448+344210837+344677679+345671423+347048111+348497353
2318+349766511+350585044+350823886+350763563+350877977+351355129+352051981
2308+352811609+353586037+354306670+354844442+355131377+355231995+355286351
2298+355412848+355661202+356043527+356576809+357260397+358036951+358803758
2288+359423211+359749939+359771386+359691802+359701964+359709142+359494997
2278+359088182+358761425+358666892+358637439+358393487+357885345+357353157
2268+357034671+356920848+356849860+356705136+356475304+356263463+356231263
2258+356404494+356621475+356792933+357046724+357484498+357971458+358309116
2248+358504917+358742311+359116749+359491275+359660783+359605157+359443831
2238+359171666+358669994+358018399+357509371+357261460+357106456+356910360
2228+356691518+356446974+356210968+356191677+356520000+357034789+357596016
2218+358344300+359375650+360454177+361336874+362146426+363158722+364412843
2208+365769148+367176884+368652300+370165529+371757869+373583764+375662918
2198+377766945+379682026+381458173+383326342+385409365+387545208+389458191
2188+391070325+392473010+393665448+394581202+395287714+395926902+396568807
2178+397264034+398051578+398792979+399201596+399151553+398820364+398488171
2168+398311306+398236862+398014681+397399304+396411588+395240330+393945560
2158+392524973+391159038+390081928+389251815+388349827+387167728+385930564
2148+385029374+384498751+384293763+385063967+387793002+392539714+398317687
2138+404257577+410191175+416173368+422125133+427942544+433613755+439214214
2128+444775767+450188431+455352977+460269612+464855826+468941107+472487079
2118+475557288+478140624+480238300+482041773+483892513+486174822+489366475
2108+494092568+500844640+509530757+519448279+529661332+539217976+547137021
2098+552481297+554645914+553869330+551345903+548302253+545022448+540991464
2088+535660187+528918366+520998434+511981571+501764677+490707626+479663454
2078+469277229+459858455+451599831+444375806+437864792+432132017+427526513
2068+424090523+421492002+419236722+416883986+414461650+412436380+411065275
2058+410199889+409614497+409093534+408541169+408196598+408323538+408923376
2048+410142402+412400487+415871455+420456310+426263322+433579398+442538094
2038+453160828+465484733+479369281+494102464+508310875+520760153+531303184
2028+540356265+547691691+552621619+555068474+555867924+556167355+556460583
2018+556114299+554272924+551133560+547723714+544646031+541520787+537578133
2008+532583154+526937792+520985790+514763249+508354419+501916165+495500068
1998+489306300+483874049+479666172+476584088+474023675+471427400+468776029
1988+466430826+464653261+463512372+463013565+463028691+463287355+463628026
1978+464104884+464826787+465850072+467171459+468739250+470547007+472623029
1968+474788000+476653126+478087657+479397906+480845406+482382208+484022406
1958+486004043+488370842+490834654+493175455+495374310+497443952+499536251
1948+501991673+504957807+508167717+511131133+513361686+514739438+515818349
1938+517347235+519515692+521990375+524539444+527251876+530169858+533046954
1928+535656110+538212623+541097814+544117713+546623237+548556959+550523648
1918+552602890+554100344+554829425+555584799+557005032+558769776+560071134
1908+560515909+560462616+560706746+561804741+563495750+565010929+566137047
1898+567427238+569040553+570209861+570567489+571046651+572369633+573619353
1888+573596842+572748649+572218086+572126744+571938801+571534852+571206647
1878+571157904+571334325+571547082+571909437+573095879+575569735+578344086
1868+579266960+577445969+574239308+571294385+569230445+567969855+567123316
1858+566050963+564270326+561930824+559629253+557963768+557286679+557498550
1848+558179598+559061468+559794035+559362790+557134955+554085396+551537391
1838+549813591+548490727+547378020+547004381+547850269+549108142+549028557
1828+547235394+545025048+542946869+540395260+537352791+534658851+532802883
1818+531607579+530731972+530106226+530072017+530969426+532387058+533265738
1808+533092921+532477632+532457190+533652080+535760687+537586877+538071001
1798+537526731+537401180+538961438+542168571+545037278+545209268+543347923
1788+542271966+543365057+545740718+547898303+549319363+550168206+550642286
1778+551325401+553304380+557562360+564005399+570234380+572825516+571513760
1768+568749157+566382300+565469175+566805451+569822337+572284908+573084358
1758+573453862+574341226+575643648+577928084+582228190+587837629+591964268
1748+592988291+592237349+591777507+592719464+595041123+597628005+599045933
1738+599687395+602022170+607390847+612778372+613582430+610862612+608071245
1728+606344904+605776941+606430574+607907999+609970166+613620361+620077875
1718+628004483+632495604+630733636+625886247+621824540+620057255+620856587
1708+624185962+629144604+633790462+637506180+642053015+648237981+653121411
1698+654002572+652071332+648652269+644913568+643048620+644072702+646937155
1688+650564543+655781555+663078340+668460134+667778732+664142244+661926698
1678+662660507+666067871+670350843+673540251+676180189+679595234+682110448
1668+681079039+678451509+678106879+680344168+682002090+681116852+679741700
1658+680666228+685199711+693926477+704818510+709777862+706872465+704405581
1648+705663394+706999847+703855342+698081121+694200031+694003226+697307609
1638+703092465+708718684+709668500+705239712+700595153+699316424+701186277
1628+704333086+707631797+711493804+715993314+719807995+722426781+725518171
1618+730531642+736011100+738731922+738503331+737316889+735826052+733864503
1608+731817402+730239655+729258467+729066802+730239773+733209098+737787661
1598+743301268+748987515+754183257+758204196+760375253+760489460+759220775
1588+757957053+757875637+758845895+759705313+760017389+760922951+763863561
1578+768861021+773482064+774425558+772806571+772984351+776723406+781608018
1568+783935408+783924241+784655923+788153920+795439539+807831921+823869653
1558+832850889+828905162+821435028+817246175+817121215+818877687+819664907
1548+818875974+818961821+822523274+829560627+837816681+843598524+841897884
1538+833507772+825913918+822929291+822817447+821894455+820021590+820400310
1528+824588454+831149718+837696565+843202905+847440679+849890252+850800009
1518+850870494+849920679+848238651+847687881+850109094+855903818+864570379
1508+875168416+883822688+884533159+879124778+874135649+872623542+874510588
1498+878012485+880676706+881449982+882113482+885224309+891160950+896965599
1488+899348408+899039937+898695366+899454698+901328450+904072610+907098477
1478+909940124+913168881+917824310+922726647+923336972+918096446+912837603
1468+912620061+916458907+919261027+917452798+913417678+911928437+915647818
1458+923245099+927676900+924026764+917382962+912618406+909968011+908348551
1448+907272299+906740140+906540854+905718303+903500157+901336249+902508098
1438+908552032+915820990+917896510+914460549+910057344+907060191+905452726
1428+904836315+904851735+905296215+906936413+910913690+916558402+920742174
1418+921155517+919761576+918845734+917577994+915271342+914118164+916438582
1408+921141810+924747397+924621373+920637952+915292021+912331323+913941034
1398+918484265+921355276+919721046+915572960+912932372+913140403+914427285
1388+915159321+915883913+917631523+919924586+921918690+923815543+926606142
1378+931435925+938121676+943615668+944463683+941736776+939498187+939740604
1368+941778547+945161806+950664424+957796605+963317243+964253882+961987821
1358+960442982+961420035+964063340+967443763+971199184+974281121+975510870
1348+975407003+975774143+977563466+980450843+984268596+989400056+995298765
1338+999736238+1000979931+1000786494+1003044993+1009020983+1015358204
1330+1017518153+1015354659+1012905086+1012572686+1013092261+1013729528
1321+1016814123+1023920484+1032671002+1040038037+1045488662+1048663890
1312+1048405462+1045711286+1043621646+1044013483+1046936900+1051975363
1304+1059161368+1067634315+1073741823+1072800043+1064521833+1054094427
1295+1046608045+1042986505+1041261051+1039421449+1036425714+1032402294
1287+1028302301+1025111357+1023316185+1022349473+1020466031+1015914882
1278+1009568680+1004364785+1001475636+999426526+996661687+993164812+989635501
1268+986424469+983155417+979129692+974035218+967825024+960656862+953519541
1258+947929008+944180618+941046039+937438856+933033406+927820116+921999456
1248+916191734+910851003+905161034+897347746+886646314+874508048+863210765
1238+853717399+845588964+838502927+832736327+828341926+824933852+822032473
1228+818906579+814723339+809599678+804891901+801714251+799749866+798255603
1218+797652781+798870950+801470948+803963474+806006794+808755799+812643447
1208+816204013+817966158+818863744+821570150+827212085+833616189+837630333
1198+838766850+839246780+841002012+844094169+847683982+851458427+855739154
1188+860398483+864475728+867342544+869460781+871444545+873401368+875526694
1178+878484438+883209349+890237249+898787831+907162464+914485127+921253535
1168+928052962+934651152+940030642+942762926+942390822+940006536+937269702
1158+935670212+936250228+939259847+944203955+950483749+957585088+964148006
1148+967907918+967751289+964873366+961883539+961309964+964088214+968673276
1138+972064038+972496347+970881791+969471190+968767986+967724584+967022207
1128+967861479+969657005+971873083+975035549+978721193+980878543+980135163
1118+978287467+978936432+982791349+986096854+985773790+984415181+986386537
1108+991265536+995063025+995676777+993969638+992056655+991270381+991218802
1098+991771758+993869197+996375017+996041081+992025578+986144062+979583212
1088+973428497+969968194+970809474+975180656+980133981+982554309+981428486
1078+979174949+978822580+979902968+979562060+976401484+973444567+974768613
1068+979279290+980950624+976055318+967246249+958949724+953221705+950514590
1058+950699401+952334577+952583197+950027866+946946875+946550784+948627426
1048+949682645+947395372+943070925+939584035+938974477+941538317+945866309
1038+950087362+952745025+952399272+948541047+943217332+939487316+938260993
1028+938561311+940220534+943861630+948611178+951974703+951878516+948293963
1018+943884554+942347101+945012090+949231784+951091120+949605660+946393446
1008+942695099+938343768+932643755+925661113+918425478+911883712+905847044
998+899544504+893120667+887324290+882110055+876657894+870321854+863087578
988+855863641+850273345+847171379+845888337+845376444+844884638+843026661
978+838422043+832417635+828493828+827855024+828086629+826717680+824167962
968+822060774+820264952+817315125+812990381+808780200+805763314+803495420
958+801549114+800950015+803060453+807780164+813818781+820126875+825741573
948+829078393+829571084+829507334+832109518+838180749+845821751+852490486
938+856669413+858832080+861509594+867534681+877410372+888249113+895887219
928+899100851+900580167+902941470+905726929+906629419+904741959+901444253
918+898159544+894896578+891434089+888772468+888371414+890111816+892003175
908+892330612+891736830+892276965+894501787+897593117+901525078+906143994
898+909956490+912265682+914131340+915454499+914425454+911290875+909271897
888+910612250+914259313+917658878+919466221+921070851+925249660+931757040
878+935520083+932343614+924938884+919056010+917032601+918153756+921645136
868+926295071+929142862+928266782+925952627+925714287+927785435+930118260
858+931886845+933286398+933892293+933776786+934428115+936507829+938282263
848+938393752+938715636+941417197+944981485+946255015+945895673+947288846
838+950757302+952874534+951267777+948047705+947352478+951111149+957659473
828+963123865+964903971+964252464+964420378+966802360+970085414+972934446
818+975969057+979634791+982101143+981892581+981028495+982919381+988252727
808+994772928+1000244586+1003008126+1002211571+998956818+994602533+990000692
798+985759078+982669875+982320163+985994464+992287669+996278594+992067290
788+979465460+965754940+957402286+954467998+952618469+948664766+943594930
778+940132087+938079727+934457124+928123861+921639464+918162737+918646329
768+922528956+928001914+931983859+933118840+933204923+934415589+937530612
758+943222826+951640944+959477156+960858039+954261739+946368159+945248126
748+953091900+965907433+977437206+982150182+976995562+966932401+961967910
738+966374660+976085214+983457271+985105031+984032501+981029322+974060801
728+966414482+965499525+973007768+980241039+976790781+964047388+952997781
718+949903615+952995300+958238958+962745676+963270626+957752529+949777650
708+946798577+952035027+961116408+967603759+969851151+969132113+965511814
698+958730172+949572810+940872631+935729532+934898000+936391318+936991008
688+935825305+934916552+935343425+934853334+930700758+924559986+922376936
678+928930755+943031162+955737451+956628183+945018235+927251976+909194735
668+898439538+902974379+919145638+936731162+948935897+951146480+943702756
658+933990902+928102355+924316329+918046048+910034656+904445659+902480211
648+901476689+899467992+898259689+900537450+904951113+906021870+902032717
638+896746165+893147786+894282235+903426658+918265245+927939936+919975338
628+895320734+870093676+858133898+860590916+869859885+879348288+886353382
618+887778814+881656653+874053287+872446885+875730057+876638455+872231942
608+867598018+866461088+868353924+873722719+882276905+889995659+893159839
##END=
