##TITLE=<SNM>
##JCAMP-DX=4.24
##DATA TYPE=INFRARED SPECTRUM
##DATE=29/4/2025
##SAMPLING PROCEDURE=Instrument type and / or accessory
##ORIGIN=Admin
##XUNITS=1/CM
##YUNITS=ABSORBANCE
##RESOLUTION=4
##FIRSTX=4497.3318
##LASTX=599.83466
##DELTAX=-1.4281778
##MAXY=2.023659
##MINY=0.53919661
##XFACTOR=1
##YFACTOR=1.8846793e-09
##NPOINTS=2730
##FIRSTY=0.55289888
##XYDATA=(X++(Y..Y))
4497+293364968+292562493+291607012+290886891+290860356+291589048+292320713
4487+292048351+290989548+290602416+291638733+293077900+293304088+291934593
4477+290323412+290171576+291521369+292728497+292704746+291997244+291515961
4467+291610649+292247310+292963636+292990423+292154235+291086640+290397290
4457+290389985+291111940+291944492+291912518+291029302+290507760+291277565
4447+292961643+294235376+293869622+291904738+289844755+289108124+289528432
4437+289888019+289687447+289722900+290786131+292373086+293243303+293058577
4427+292574796+292332668+292199365+292008597+291759259+291315896+290616837
4417+290138527+290562472+291837217+292992067+293212278+292683462+291923334
4407+290940560+289764551+289101167+289528812+290583156+291367794+291685539
4397+292023177+292756012+293796567+294716975+295085385+294960020+294865363
4387+294983454+294755938+293556906+291485410+289354838+288065894+287985374
4377+288982412+290810103+292758827+293401180+292078617+290385178+290383881
4367+291748569+292454206+291777855+290691917+289836848+288987567+288167982
4357+287995020+288667007+289514897+289977330+290171798+290261615+290213512
4347+290298301+290852861+291520483+291520009+290614022+289342789+288461185
4337+288267192+288288350+287802735+286816608+286094621+286144178+286753767
4327+287574902+288558688+289579287+290178281+290176036+290094757+290380181
4317+290690873+290665446+290739293+291284112+291614444+290993470+290129609
4307+290345139+291650466+292849593+293139507+292517395+291213112+289808037
4297+289246393+289935837+291287369+292407020+292864141+292752659+292264482
4287+291264092+289653766+288142144+287769875+288623616+289777676+290347448
4277+290105731+289454112+289142091+289698422+290968960+292298986+293080272
4267+293061075+292425521+291763149+291688607+292280011+293066515+293596343
4257+293654725+292962687+291434113+289873376+289480013+290482332+291881809
4247+292423308+291535095+289750541+288546670+289187221+291365453+293518354
4237+294485536+294217191+293061391+291351601+289715468+288940634+289353984
4227+290687869+292475933+294234553+295386653+295501897+294750308+293731702
4217+292733494+291728487+291213365+292158978+294618333+297017884+297505429
4207+295926949+293892361+292897664+292906551+292945482+292606991+292343737
4197+292485294+292674385+292429443+291815585+291344833+291370102+291698379
4187+291864668+291654893+291212985+290666743+289917178+289063469+288733389
4177+289554555+291362133+293338497+294978299+296371514+297595689+298460783
4167+298720179+298056162+296246213+293734105+291604608+290758490+291306376
4157+292613221+293791380+294453468+295036206+296104718+297490280+298413945
4147+298324318+297392018+296276194+295551265+295348322+295508539+295976254
4137+296792613+297728771+298205436+297749612+296546057+295365432+294877982
4127+295111824+295536528+295473402+294544519+293172019+292523656+293403077
4117+295203570+296453868+296429105+295700065+295115809+294891644+294870613
4107+295131938+295848865+296785940+297448028+297672287+297697176+297688859
4097+297500811+296927814+296061707+295389879+295504807+296590207+298212678
4087+299726546+300848601+301674890+302197160+302159430+301505407+300739365
4077+300614348+301303254+301941243+301478019+300121269+299270690+299748779
4067+300712831+300744267+299582996+298307840+298014163+298630804+299137704
4057+298922489+298489373+298658192+299519143+300502392+301142879+301466570
4047+301756833+302123092+302439066+302595330+302497890+301893267+300659952
4037+299272114+298566066+298997032+300251156+301583618+302508074+303039199
4027+303237873+302907951+302089189+301377417+301244936+301499777+301715118
4017+301703037+301469796+301224443+301323779+301747250+301926537+301466855
4007+300673899+300149352+300268044+301094397+302388876+303616466+304215018
3997+304034339+303480032+303139168+303349038+304158123+305370754+306466243
3987+306895627+306687434+306344768+306009786+305311234+304217326+303410076
3977+303459918+304149584+304955190+305697196+306311940+306481360+305976737
3967+305086152+304437253+304568468+305581667+306863590+307275391+306217094
3957+304551074+303830605+304505659+305575689+306270352+307086015+308510287
3947+309886740+310532857+310789943+311033052+310816351+309676871+308005727
3937+306722254+306681710+308304244+311052818+313282790+313563407+312323989
3927+311215343+311145608+311655607+312019684+312288378+312901698+313918059
3917+314748555+314412372+312668521+310732226+310012959+310573654+311540521
3907+312801697+315297770+319406099+323727301+326199243+326008160+323708389
3897+320410189+317426572+316088291+317047377+319059669+319573210+318332432
3887+317879264+319543260+321608873+322585132+323392288+324089670+323081817
3878+320801970+319505847+319918090+321356846+323874931+327048335+328389114
3868+327121138+326014200+326699438+327222182+325531747+322736336+321053080
3858+321768742+325867994+333576581+340164537+338381501+330664280+323434635
3848+319259703+318071993+319210081+322251637+326850325+332160690+336227304
3838+336557004+333171042+329283146+327230184+326397285+325140757+323521322
3828+322907084+323831350+326261578+330837590+337055618+341091491+340507172
3818+338116445+336152730+333316142+328873591+324756534+323170369+325194963
3808+329881729+334147776+336552766+338836313+341186211+340964387+338135547
3798+335491275+333474429+330580187+326986222+324449699+323843400+324852929
3788+326937328+329384033+331287025+332647539+334571183+337341136+339365794
3778+339197829+337583517+336231858+336433157+338983184+343386297+347498800
3768+349683579+350155343+349802967+349993387+352577569+357863456+363178659
3758+365866859+367377723+371288959+379512131+390840933+400716304+405463665
3748+407141102+409363547+412051399+411690833+408078683+405732991+408094780
3738+415312091+424095136+429846208+431027782+429581246+427777306+427026001
3728+428270100+431737942+436502823+441185794+444913948+447427605+449233632
3718+451473472+455231133+461425062+470699225+481527548+489191289+491326100
3708+491326890+493354868+498514378+504724721+508642946+509284256+509157562
3698+510569721+513545654+517465618+522905175+531086917+541025983+547683041
3688+546790369+541133385+535820616+533194846+533438997+535743069+539801555
3678+546873988+556479148+562384839+560633144+556961000+557277385+560190951
3668+560901395+559004411+557262837+557343800+559048245+562085088+567180018
3658+573987616+578965466+579414427+578601136+582028623+591751178+603166982
3648+607868170+604592424+598846065+594423059+591785270+590658883+591743587
3638+595375251+599942787+603456675+606286306+610891730+618578401+625870697
3628+626057100+619413135+613172716+612036651+615988874+621978563+626514853
3618+628558770+629315325+629551064+629237525+629073703+630558348+634046304
3608+637310790+638284235+638617762+640573759+643802256+646824298+649340643
3598+651753318+653311652+652692607+649948240+647096724+646356425+648196609
3588+651110048+653424493+655457595+657918341+659658903+659729682+659006335
3578+658347062+658110753+659277685+662068543+664564837+666314064+670607151
3568+678606096+684640883+683956562+680016610+677775410+678094073+679191997
3558+679329696+678618999+679407938+683946063+691387000+698467086+703937099
3548+709770176+716388208+720326959+719507532+716428120+713570279+710212053
3538+705225221+699515611+694560025+691338296+690921024+694285196+700397846
3528+705393534+705726618+701796153+697172702+695205952+696057953+697081177
3518+696727030+695990337+695453140+694262615+692839640+693333636+696276614
3508+699075252+699219086+697273272+695412152+694975462+696748346+701103293
3498+706920495+711683226+713900833+714848660+716518001+719022265+720936137
3488+721378899+721204514+722288017+724766537+725844157+723246977+717932437
3478+712476213+708928422+708688318+712082218+717103775+720608492+721305843
3468+719992357+717689487+714821589+711162474+707466927+705490941+705233191
3458+705245082+705181957+705915045+707344787+707604689+705810806+704134191
3448+705290876+708553276+709587695+705986962+701165659+699628642+701678378
3438+704763356+707066606+708001847+707878506+708427025+711348498+715537788
3428+716903963+712338008+703966764+697815530+697531150+701144597+704458546
3418+705817131+706032377+705511815+704217177+702529684+700698798+699338759
3408+699376520+700961293+703647216+707011451+710131217+712006948+713514428
3398+716419075+719865727+720857704+718527383+715299203+713487103+712935864
3388+712415808+711694611+710976324+709572325+707026125+704520533+703588455
3378+704272713+705429840+706050530+706175958+706794371+708153841+709131776
3368+709034495+708352072+707874268+708087300+709197748+710951719+712693736
3358+714084073+714596665+713519425+711676964+711082081+712105431+712593355
3348+710715474+707788941+706848894+708918871+712122699+714192929+714716717
3338+714430250+713482169+711696445+709796489+709294333+711242108+715255685
3328+719934229+723936610+726055292+725522775+723740846+722978599+723623135
3318+724718908+725300319+725350287+726074330+728176250+730467292+731433463
3308+731265972+730688610+729243307+726608934+723914662+722819584+723523956
3298+723541034+720840626+718534720+721922801+730675833+738342010+740302688
3288+737840423+733411408+728228243+724422005+724170579+726928229+729929968
3278+731613477+732576548+732980348+731824358+729125153+726084134+723668423
3268+722544249+723373860+726117089+729768360+733168458+735321865+735748814
3258+735729396+736879882+737784256+735107504+728407119+721232155+718228329
3248+721542215+728422742+733488955+734699720+734664995+734958357+733795030
3238+730078357+725753138+723469559+723859570+725066920+724921187+723850715
3228+724009666+725831064+727835702+729428318+731475209+734075615+735633506
3218+735238183+733411219+730194107+726353777+723966655+723582717+723467535
3208+722635711+722176820+722572776+722257909+720269336+718383548+719290832
3198+723351785+727625011+728506424+725402470+720800335+717057918+715014759
3188+714953722+716264045+716581379+713838972+709255497+705843191+704285995
3178+703025514+701734546+701844288+703871254+706721062+709093762+709839563
3168+708018735+704212623+701070402+701048833+703617677+705511245+704085867
3158+700158438+697218433+697657021+699706441+699076707+694655029+690237526
3148+689328977+691281370+693513651+695123788+696486926+697128742+696325824
3138+694667047+693214976+692283404+692029891+692677209+694029532+695327332
3128+695471799+693837437+690943099+688127826+686456652+685673658+684662642
3118+683423729+683384703+684698316+684953094+682786152+680511429+680286126
3108+680719211+679717872+677962003+677153076+677367879+677834614+678314948
3098+678605906+677873514+675509226+672418935+670509680+670605696+671825949
3088+673283397+675105364+677240364+678700025+678551193+677032076+675242873
3078+673713888+672237465+670618853+669104036+668246595+668198461+668445143
3068+668381701+668004784+667769614+667950893+668425851+668685499+667860190
3058+665630186+663369315+663113525+664953392+666499898+665521267+662384169
3048+659187298+657287405+656239323+654844432+652913609+651641742+652282672
3038+654636144+657050211+658101645+657691837+656227432+653835314+651145153
3028+649546022+649468475+649542416+648544557+647263772+647290021+648403252
3018+648485226+646347823+643319139+641497678+641483889+642187881+642107425
3008+640480083+637802826+635349669+633929667+633347941+633144586+633345411
2998+633970591+634461235+634386661+634160473+634391468+634821897+634716962
2988+634124419+633697597+633350218+632389993+630939756+629869031+629502676
2978+629197360+628084698+625858047+623005139+620562419+619418258+619837807
2968+621428652+623048150+623267001+621781470+619990180+619298586+619407758
2958+619051967+617912866+616961243+616946316+617170543+616247700+613959188
2948+611619316+610518166+610655738+611090215+611026457+610365666+609394371
2938+608238446+606910918+605697812+604983130+604808808+605109760+605838041
2928+606350317+605437341+602648065+599248219+597260216+597598993+599375672
2918+600935776+601357792+600713510+599329435+597580334+595936167+594529005
2908+593159605+591993432+591569898+591955544+592487871+592465037+591713163
2898+590497717+589182903+588038868+587253092+586853467+586527594+585818478
2888+584670522+583471585+582292446+580662764+578469193+576521671+575898578
2878+576926925+578782289+580068767+579984832+578917585+577801950+577387398
2868+578197210+580182051+582080552+582127612+579813103+576227234+572818407
2858+570573475+570020844+570955200+572210241+572479441+571371270+569311792
2848+566788047+564267970+562425509+561739860+561959091+562305331+562148467
2838+561351495+560180894+559042236+558149690+557384660+556559857+555679962
2828+554938778+554651551+554872806+554865469+553631680+551292187+549179705
2818+548382163+548828468+549684770+550077816+549584706+548469640+547338383
2808+546432997+545559996+544717546+544342526+544635255+544961761+544450623
2798+543100135+541748065+540925033+540241598+539096488+537727910+537039541
2788+537215064+537194697+536130486+534598086+533563161+533001991+532316658
2778+531358204+530437322+529898543+529962238+530537892+531055418+530771101
2768+529434686+527614901+526162609+525337458+524672208+523588231+521956399
2758+520257931+519293341+519383538+519850020+519802044+519266617+518879738
2748+518837992+518853742+518717940+518245702+517108594+515276285+513258427
2738+511671788+510878295+510876398+511123079+510811912+509772686+508700284
2728+508317231+508741524+509484827+509630085+508472546+506360348+504403560
2718+503287198+502841336+502562649+502119222+501512512+500920602+500347509
2708+499647881+498906634+498443947+498463871+498872351+499256100+499044017
2698+497980248+496393989+494867408+493831281+493422927+493331592+492908437
2688+491867345+490708699+490068370+489907837+489726273+489284270+488664276
2678+487923092+487218087+486933138+487116379+487172831+486630605+485821994
2668+485389890+485504344+485867757+486179715+486283448+485970858+485025592
2658+483649549+482516268+482053929+481959715+481724988+481279095+480773081
2648+480081770+478940582+477441547+476065884+475182067+474707236+474384494
2638+474145118+474010392+473946761+474006186+474288921+474585856+474405779
2628+473585119+472586753+472021440+472072231+472456960+472793681+472895611
2618+472746274+472311734+471511536+470434738+469427422+468761855+468285664
2608+467642394+466841089+466336024+466427739+466790361+466787167+466167205
2598+465268176+464547106+464110700+463748078+463284126+462835639+462728048
2588+463130045+463804878+464336541+464563267+464618232+464544259+464112471
2578+463190007+462113652+461416396+461226072+461199727+461029201+460672872
2568+460093549+459241295+458389452+458021801+458245997+458671839+458947870
2558+459060395+459054481+458854542+458456941+458003268+457589285+457178781
2548+456710339+456175260+455684838+455506120+455778419+456147936+456067226
2538+455522249+454996153+454725150+454565661+454539760+454819807+455139165
2528+454977019+454448298+454293900+454826037+455424082+455312380+454513415
2518+453669890+453122983+452647077+452080879+451724993+451906715+452482211
2508+453001983+453191264+453067227+452736895+452360673+452222057+452436986
2498+452612510+452275789+451633025+451380872+451809307+452522092+452948661
2488+452858275+452484425+452234264+452144162+451760351+450824193+449866909
2478+449688065+450335478+451036150+451205348+451126125+451404749+452101119
2468+452706723+452773422+452303272+451634290+451139566+450940355+450793105
2458+450397275+449905556+449859698+450447908+451167176+451483845+451465945
2448+451447033+451481758+451445641+451285298+450987382+450627258+450408059
2438+450339716+450104388+449556343+449063960+449070759+449565862+450150751
2428+450457269+450430482+450297812+450344112+450723148+451358006+451911174
2418+452000265+451599912+451105379+450912429+451057149+451275020+451313761
2408+451189946+451142950+451306772+451576098+451884166+452379996+453178012
2398+454088743+454729736+454877303+454701937+454653107+455039796+455687210
2388+456084368+455955777+455533255+455038911+454156138+452472249+450320076
2378+448607250+447735767+447199898+446424179+445517844+444859267+444352842
2368+443593030+442529863+441487758+440723139+440439455+441030764+442852478
2358+445793021+449246915+452571428+455569783+458268419+460250761+460768635
2348+459514226+457059994+454704119+453613659+453870935+454694347+455304410
2338+455312917+454798396+454251553+454194468+454754183+455642712+456468970
2328+457018849+457299529+457429322+457538146+457743588+458107981+458549131
2318+458913398+459221718+459686334+460391275+461096026+461458965+461465164
2308+461548434+462187878+463414614+464755172+465685353+466141430+466549372
2298+467304661+468276240+468975583+469179538+469191841+469456992+470041249
2288+470582051+470779144+470765798+470776171+470700142+470328886+469794092
2278+469403639+469253480+469241746+469311640+469581250+470193369+470900745
2268+471028704+470268829+469278306+468972926+469468188+470187550+470779903
2258+471414761+472226692+472978471+473413485+473577402+473634202+473665986
2248+473785753+474139931+474657141+475025393+475052117+474904361+474868940
2238+474944810+474816947+474254417+473401151+472649119+472344056+472560282
2228+473014556+473264432+473096720+472656393+472252372+472160689+472488491
2218+473082741+473669117+474142177+474582599+475010023+475324447+475521793
2208+475784857+476281794+477014028+477912140+478880967+479694006+480138792
2198+480339838+480610018+481016600+481456611+481976066+482618388+483257673
2188+483921564+484858196+486013521+486943037+487436749+487718409+487956235
2178+488075244+488082359+488149628+488310034+488360066+488152284+487844628
2168+487771003+488117053+488796946+489561091+490091678+490140730+489818336
2158+489612641+489873934+490436622+490989094+491560700+492304415+493043986
2148+493466002+493644087+493975937+494644192+495447585+496082790+496346835
2138+496193892+495811029+495509698+495390690+495319753+495343915+495799296
2128+496809775+497989926+498875040+499385450+499653258+499735200+499786877
2118+500168601+501025663+502017482+502762556+503286945+503774047+504173197
2108+504317822+504230440+504146948+504333762+504872161+505506860+505802341
2098+505633490+505401863+505505659+505737729+505580738+505035382+504699199
2088+504962263+505543705+505953671+506125399+506397256+506955484+507497552
2078+507595339+507267695+506915857+506788341+506820694+506894636+506976673
2068+507074018+507209060+507388474+507573043+507712481+507772665+507743886
2058+507687402+507744392+508008974+508407175+508801740+509221921+509853964
2048+510729527+511559453+512042191+512228246+512414807+512807442+513392426
2038+514020643+514568213+515081217+515731508+516602580+517583899+518492479
2028+519276168+520053881+520883586+521603106+522193213+523177506+525097197
2018+527548013+529374534+530041587+530200950+530706774+531703559+532854298
2008+533955068+535012701+535949397+536528024+536649214+536632705+536975087
1998+537764343+538638166+539434758+540457223+541885764+543375090+544547841
1988+545534379+546732304+548243326+549755802+551027162+552300926+553947496
1978+555839483+557543549+558997707+560490701+562175412+564079480+566243639
1968+568418930+570107246+571269181+572393861+573689510+574992560+576509084
1958+578703541+581336016+583530852+584997660+586403367+588373597+590822705
1948+593403693+596120862+599258023+602765017+605911666+607971207+609204300
1938+610464781+612046455+613685561+615495573+618051514+621389752+624562334
1928+626623646+627832450+629316210+631568605+634007277+636187502+638272154
1918+639844023+639927389+638904735+638525540+639689499+641677376+643447666
1908+644769249+645916066+646932079+647526013+647521206+647175535+646920631
1898+646994825+647380661+647863209+648399141+649515914+651507459+653268072
1888+653375853+652258004+651467231+651612141+652304241+653023351+653300330
1878+652919491+652129097+651146228+650099981+649773728+651144141+653514564
1868+654223806+651766159+647780412+644532118+642575804+641176232+639674698
1858+638021550+636469226+635193058+634134983+633207269+632534080+632343693
1848+632951289+634670788+636711037+636621979+633304930+629064911+626168802
1838+624512112+623027910+621559014+620901955+621643455+623181864+623869917
1828+622826516+620745976+618169415+614947244+611614445+609348134+608524976
1818+608428391+608244075+607962352+608238572+609391019+610653082+610834171
1808+609812339+608725990+608778426+610323793+612747094+614942943+616189066
1798+616688691+617327091+619129577+622409687+625552604+625926991+623660364
1788+621608983+621714297+623749549+626536485+629246570+631318255+632317506
1778+632762736+634227140+638078350+644046281+649369170+650917826+649196745
1768+646829675+645238450+644985823+646496844+649196998+651557428+653137710
1758+654661761+656065634+657066214+658798806+662670004+668122622+672645439
1748+674746473+675523900+676538522+678147710+679985617+681690062+682949088
1738+684325953+687835034+694651866+701575404+703438422+701103483+698286502
1728+696435123+696132211+697787889+700723403+704174356+709061061+716853868
1718+726342075+732437648+731990711+728057969+724667548+723494481+724923718
1708+729250454+736043441+743119795+748828267+754570388+761962242+768890714
1698+772346284+772761912+771032229+768289506+767299742+769660868+774362687
1688+780249845+788717485+800809262+810629161+810926255+806000207+803198597
1678+805032139+810455725+816600950+821424340+825856201+830836582+834244650
1668+834099234+832985371+834188166+837208122+838675436+837024312+835185457
1658+836953596+843923435+855657016+868229127+873262639+870965461+869685435
1648+871298292+871146994+865583811+858560905+855031709+855926216+860245742
1638+866760737+872776106+873189267+866949354+859891216+856359427+856437986
1628+857748562+857941733+856750070+854738854+851989110+849652527+849831972
1618+852504802+853819616+850204588+843963347+839004092+836419182+835236880
1608+833793159+831222417+828513534+827458052+828432698+829977180+830857392
1598+831389086+832095671+832571514+832608517+833039577+834339464+835558010
1588+835557567+834651043+834371027+835837709+838909531+843067638+848366365
1578+854280595+857682844+855577129+851163548+849338861+850499341+851604286
1568+850342667+848029297+846752876+847289567+850819901+859369895+870637564
1558+872741697+862635394+851560579+845039006+842944108+843703066+845428384
1548+847409556+851086634+858096574+868041585+878859408+886632923+885279019
1538+876126362+868031338+864715744+864202772+863479678+862435075+863042862
1528+866115190+870882412+876389616+882452298+888380443+892013624+892680867
1518+892254866+891577440+890324739+889578874+891566624+897699452+907936813
1508+919512455+924055196+916085980+904772643+899107562+900516179+906755270
1498+913216058+915042769+912346536+910576941+914286278+923432546+932570971
1488+934632536+929443741+923231532+920986727+923334632+927924244+932854971
1478+938538838+945923292+955061654+965367833+974550028+979372722+980695190
1468+982318673+985361083+987172297+985608271+983649553+986473302+996238805
1458+1008647030+1012355354+1003786827+992933710+986213527+984020335+985009529
1448+986815177+987163758+986021115+984659368+983623177+983300973+985088721
1438+990553736+998893861+1005854907+1008155247+1006485337+1003043429+1000245488
1428+999881474+1001484463+1003164620+1004251095+1006126700+1010215294
1420+1015020404+1015982843+1011758384+1006830439+1004995379+1006326386
1411+1009265316+1012671423+1015664497+1017313533+1017298100+1016483733
1402+1016794806+1019830700+1024608043+1027636727+1027067714+1024375782
1394+1020765055+1016519344+1013991487+1015713137+1020200091+1022747049
1385+1021479421+1019478515+1020134688+1024202283+1030122774+1035404044
1377+1038397623+1039300416+1039254621+1039131407+1039681381+1041386585
1368+1043658715+1045699849+1048084314+1051671385+1055441127+1057395923
1360+1057369041+1056468083+1055454283+1054866991+1055209309+1056811160
1351+1059021050+1059978809+1058781136+1057810348+1060591845+1066933403
1342+1072543708+1073741823+1070713961+1066305946+1063816862+1064864185
1334+1067797802+1069151769+1067267499+1063721099+1061225944+1061090395
1325+1062636837+1064461398+1066189562+1068423615+1070684486+1071102327
1317+1069137854+1066585771+1064794861+1063347028+1062266815+1062567007
1308+1064161331+1065903158+1067528476+1069460691+1070683474+1069029187
1300+1064678857+1061163767+1061424175+1063791562+1063673407+1059525230
1291+1053531430+1047463119+1041785198+1037385595+1035157994+1034277403
1283+1032291298+1027468667+1020503383+1013603754+1008933181+1007354670
1274+1007988073+1008271567+1005704431+1000652955+995893577+993076090+991172275
1264+988226198+983316596+976808116+969893496+964084581+959974861+956036616
1254+949605683+939997550+929175806+919385255+911692449+906078286+901426372
1244+896031060+889497659+883094177+877464959+871833465+865965852+860939487
1234+857514341+855401416+854148019+853555097+853238206+852505118+850862976
1224+848536196+846279373+844621038+843542533+842848028+842641005+843365807
1214+845418959+848564533+851717127+854068638+856520276+860772376+866743849
1204+872060855+874943491+876592971+879154857+882560522+885157512+886834570
1194+889534598+894239770+899277077+902293364+902972814+903189135+904815401
1184+907996333+911883976+916528300+922958348+931432376+940835067+949936300
1174+957792043+963578630+968034464+973544768+980767676+986907905+989546072
1164+990120335+991458679+993754275+995213620+995739875+996832486+998176522
1154+997835659+996264738+996565184+999740549+1003031412+1004068677+1003622436
1144+1002920025+1001917232+1001502806+1003944830+1009401433+1014333869
1135+1015970129+1016256660+1017739218+1019182623+1019137714+1019546131
1127+1023169635+1029729981+1035784882+1037719311+1035011503+1030490077
1118+1027512880+1027626164+1029754839+1032080163+1034446475+1037326454
1110+1039092191+1037634870+1034223007+1032041074+1032563280+1035242815
1101+1038494651+1040226421+1038814579+1034579873+1030366800+1029542566
1093+1031888068+1032234688+1026184846+1016846229+1010992721+1010759069
1084+1013262764+1015560764+1017523023+1020822172+1025348089+1027715982
1075+1024211391+1014859808+1004365138+997593721+994817854+993196079+991628890
1065+991002128+990725212+988822156+984631410+979371900+975226442+974414859
1055+977512551+982972696+988713173+992474249+991573608+985818709+979403715
1045+976670101+977913504+979808527+979338186+977144932+975487356+974621502
1035+973633889+973360262+975231186+977896679+978244437+975508861+971690606
1025+968627765+967138250+967701064+969717846+971631971+973276580+976227655
1015+980339209+982028094+978615725+972502315+967863305+965858224+964378512
1005+960948559+954902196+946829753+937549581+928400909+920657691+913765589
995+906421617+899640458+895816257+894566655+892404836+887397953+881907763
985+879500338+880786752+882948065+882824914+879914384+875546976+870473869
975+865062680+860168132+856216542+852387596+847599248+842141063+837524886
965+834546993+832500419+830774532+829851499+829978951+830555681+831609898
955+834209988+838824710+844557660+850072202+854344859+857008580+858778175
945+860964788+864503661+869792141+876629404+883959840+890576038+896339539
935+902095323+908494061+915527594+922956513+930174931+936026162+939934425
925+942496438+943704104+942534009+939368954+936198713+934254480+933023727
915+931637312+929908957+927887304+925963059+925096763+925562929+926280393
905+926533843+927296533+929604716+932947509+936391188+939847264+942552858
895+942622688+940473014+939561746+942089982+946454733+950371156+954405417
885+959387695+962939914+962213214+957876737+953151640+950286462+949628896
875+950738965+952738859+954717627+956676028+959502813+963057183+965104389
865+964248972+962640796+963353707+967038565+971746773+974952499+975998240
855+975923603+976163707+976836959+977018871+977279278+979854258+985582907
845+992572543+997982213+999614362+996477011+989890099+984505160+984951401
835+990644376+996243675+997658617+996034248+994872124+995747212+998052612
825+1001098248+1004969066+1009397702+1012771298+1013323802+1012032644
817+1011408538+1011398481+1011223780+1012976297+1018426069+1024710574
808+1027585430+1027808709+1029737445+1035005874+1041049770+1044019250
800+1041412898+1033373599+1023208534+1015365822+1012263829+1012124675
791+1010896389+1006605263+999888684+991934206+983768656+976330565+970233032
781+965820715+963465283+963290898+964648028+965563597+963719555+959637033
771+957055033+958930005+964616086+970712543+973412319+970783575+964729116
761+960584102+963588877+974543450+987923854+995635762+994712476+989139363
751+983912048+981382041+981801906+983637662+985111048+986926058+990972716
741+996770436+1001382754+1002992259+1003696757+1007566057+1015662030+1023142500
731+1023340794+1015374171+1003419018+993515120+990082700+991486067+992169882
721+989345880+985700302+984968985+986588104+987300761+986186771+984895613
711+985036032+987026944+989703126+990744630+990286308+992285380+998620487
701+1003875253+1000198998+987670658+974535417+968210873+969896026+974897280
691+977661888+977756070+978555319+980352682+980068365+977620585+975716390
681+975644726+977010079+980228076+985900051+990324449+985658492+969815380
671+948192069+929418440+923825656+935103129+950524035+957459465+956716826
661+955124779+955813211+955897146+953420776+950383553+948274992+944760155
651+939009558+935404777+936512505+939030115+938353511+934021903+930703779
641+933743026+942044061+946462323+939939802+926999503+915569530+909612731
631+910002615+913256539+913363941+909255612+906893159+910795792+915282936
621+910608631+896201207+880335577+870941109+870628013+876737627+882236862
611+879941392+871740801+868047025+874906109+885587941+888240214+883597724
601+882068549+885318362
##END=
