##TITLE=<SNM>
##JCAMP-DX=4.24
##DATA TYPE=INFRARED SPECTRUM
##DATE=29/4/2025
##SAMPLING PROCEDURE=Instrument type and / or accessory
##ORIGIN=Admin
##XUNITS=1/CM
##YUNITS=ABSORBANCE
##RESOLUTION=4
##FIRSTX=4497.3318
##LASTX=599.83466
##DELTAX=-1.4281778
##MAXY=2.1632841
##MINY=0.58500838
##XFACTOR=1
##YFACTOR=2.0147153e-09
##NPOINTS=2730
##FIRSTY=0.60025966
##XYDATA=(X++(Y..Y))
4497+297937712+298167614+299744919+301467929+301881996+300425810+297836858
4487+295412248+294080702+294186881+295448341+296920976+297740619+298025756
4477+298424142+299030332+299532088+299981035+300695859+301770788+302894767
4467+303371968+302637943+301141552+300062244+299866394+299982484+300065380
4457+300477820+301195218+301404589+300772690+300158986+300367499+300943956
4447+300992800+300594650+300388770+300276763+299607321+298370062+297292530
4437+296830832+296752698+296635040+296154615+295032440+293457590+292489166
4427+293163045+295133590+296922840+297624913+297544384+297221852+296882782
4417+296749267+297195581+298377902+299833555+300770560+300899520+300677842
4407+300471726+299908611+298538635+296774650+295469731+294817330+294393826
4397+294080406+294295190+295238379+296338040+296711576+296055418+295051492
4387+294875464+295954505+297306523+297791327+297726596+298126610+298729752
4377+298275687+296619627+295090929+294669673+295017855+295330209+295224089
4367+294737067+294077566+293477323+293149732+293251888+293669564+293896449
4357+293502381+292720903+292144209+292015072+292290535+293075415+294418558
4347+295896874+296840861+296928343+296330378+295287578+293941092+292643923
4337+291980103+292370827+293678291+295100544+295733182+295434170+294754078
4327+294012272+293080504+292139239+291955104+293028169+294837447+296226831
4317+296546198+296362152+296796839+298167200+299486498+299299759+297148304
4307+294356786+293029293+293938607+295681290+296216536+294895374+292655728
4297+290863608+290367769+291107829+292427630+294051502+296293219+298883237
4287+300441105+299965443+298145544+296394340+295447039+295380326+295858118
4277+295945955+294965372+293675155+293214996+293457501+293724562+294101796
4267+294785231+295244384+295054628+294620059+294502786+294732156+295008891
4257+295118235+294991347+294680767+294472669+294847477+295955156+297139666
4247+297466103+296734060+295612506+294911616+294917504+295232758+295238053
4237+294873600+294806295+295689012+297362616+298647329+298074511+295549668
4227+293009501+292456327+293708527+294964987+295207640+294948775+294901143
4217+295068326+295103798+294900522+294732008+294932828+295467127+295943351
4207+296082340+295947404+295691260+295345238+294987205+294948124+295553514
4197+296588326+297292086+297140317+296395020+295585407+294818395+293945944
4187+293101036+292730606+293135147+294088098+295010577+295519374+295636736
4177+295588572+295697592+296302420+297435009+298712652+299698827+300117716
4167+299789592+298711202+297251081+296043259+295557449+295698509+295763506
4157+295066521+293733141+292636320+292591647+293684060+295208764+296283516
4147+296680867+296948312+297550774+298111048+297762689+296274463+294567192
4137+293878491+294591274+296037135+297124134+297042155+295958617+295081639
4127+295286868+295867052+295458074+293885384+292213437+291403469+291678428
4117+292681289+293630305+293814795+293455105+293524747+294420689+295478517
4107+296026455+296170325+296263783+296482295+297129814+298406747+299785628
4097+300411018+299991626+298710551+296781691+294713458+293316323+292936575
4087+293238161+293888372+294786177+295546799+295595495+295026848+294664732
4077+295053179+295911814+296565339+296488567+295575999+294310811+293496287
4067+293515635+294094725+294704050+294918983+294596806+293881360+292944000
4057+291951465+291449354+292157522+293940914+295567685+296033022+295680640
4047+295596767+296303130+297269069+297605683+297212296+296811247+296670808
4037+296187336+295228409+294753220+295351037+296229524+296321088+295555792
4027+294622485+294218330+294710470+295952789+297282530+297909162+297578672
4017+296944466+296813377+296966004+296532234+295568218+295115691+295609193
4007+296380287+296686902+296407475+295959741+295909714+296292716+296469218
3997+296099529+295711230+295817143+296198164+296434959+296385139+296047075
3987+295707443+295961072+296788318+297126944+296289817+295189860+295174032
3977+296379488+297920168+298872054+298731438+297799078+297165079+297495539
3967+298171519+298336276+298136343+298217849+298684399+299105536+299162309
3957+298919153+298523399+297962918+297385958+297350693+298220304+299431914
3947+299984082+299689951+299318486+299529395+300239752+300977712+301324414
3937+301035402+300375605+300208215+301018361+301997702+301880872+300635447
3927+299490817+299437032+300170643+300615241+300484565+300525984+300965257
3917+300779317+299184438+296968962+295541858+295575052+296849884+298813388
3907+301141285+303700979+306031894+307349446+307465448+307001886+306287831
3897+305180744+303937626+303249576+303441166+303876002+303545511+302730425
3887+302870478+304428406+306014557+306459688+306328569+306023048+304891702
3878+303229252+302573567+303471550+305025484+306827366+309022695+310255931
3868+309117514+306856685+305387955+304724489+303826891+302602116+301730641
3858+301904126+304164393+309470400+315577174+317149036+313662692+308747262
3848+304960338+303065737+302825155+303853636+306018729+309005921+311679012
3838+312532352+311450175+309834024+308732203+308164859+307816115+307622957
3828+307623489+307814547+308599427+310725499+313941054+316213688+316290608
3818+315496645+314874864+313598612+311034658+308252666+306980674+308361271
3808+311731525+314493193+315205857+315289108+316087332+316790914+316499268
3798+315834768+315161214+314010253+312467709+311390562+311335150+312335762
3788+314349293+317044158+319546783+321478217+323687125+326791827+329720145
3778+331143936+331768172+333409676+337179471+343177196+350334196+356648063
3768+361139190+364612458+367688758+370056418+371826290+373761481+375898499
3758+377324745+378192551+380279453+385333221+393348826+401351829+406372728
3748+410179208+416186193+424191267+429371716+429453340+428304036+429891430
3738+435841080+445018031+453377588+457558106+458179620+457675143+457543669
3728+458204146+459267448+459754885+459225319+458229263+457243118+456268008
3718+455494902+455479311+456765681+459384455+462121686+463029757+461901399
3708+460222943+459252478+459772635+461977372+464588720+465624686+465016485
3698+464296217+464409497+465614302+468555667+474022969+480991338+485455247
3688+484197603+479341165+474920094+472743818+472661661+473895874+476108924
3678+479661005+484082993+486769782+486213531+484060124+481896776+479823099
3668+477725459+475829763+474137403+472632106+471601466+471335086+471773708
3658+472417913+472541340+472289753+473345747+477422127+483881728+488581013
3648+487745424+482983272+478275289+475918428+475746157+475895589+475157274
3638+474407599+474774301+475774321+476513938+477698270+480823888+485215197
3628+487377214+486263263+485039701+486280481+489883655+494200262+497662494
3618+499416568+499397930+498421459+497988044+499111965+501390929+503866750
3608+505898506+506942666+506927046+506912608+508174571+510526255+512458369
3598+513244729+513506494+513640631+513456614+513660393+515993735+520794613
3588+525176632+525882877+523770829+521654343+520211026+518550618+516652762
3578+515652683+516176804+517679527+519360113+520948098+522511174+523807987
3568+523879345+521811852+518431746+516061543+516079530+517838042+520024347
3558+522324376+525113617+527857771+529051215+527885935+525499519+524179452
3548+525279528+528111962+530582458+530803692+528550998+525524370+523776036
3538+523714914+524117502+523857157+522706965+520920466+519107164+518118859
3528+518419735+519540816+520126414+518832973+515792677+512927167+511959927
3518+512482392+512805101+512440441+512601914+514163569+516279463+517422496
3508+517157417+516291948+515735165+515710905+515946103+516590516+518470976
3498+521831141+525062968+525644484+523111150+519856839+518182644+518128859
3488+518610497+519095567+519343900+518779484+517298477+515952198+515737295
3478+516178580+516052135+515110929+514175995+513657198+513079883+512230922
3468+511646566+511728161+512142642+512388786+512475647+512668183+513015566
3458+513348690+513322182+512379733+510406970+508360599+507055798+505673189
3448+503014772+499949802+498555832+499077173+499684546+499016998+497695215
3438+497181093+497970885+499312549+500297067+500643976+500327006+499267166
3428+497829943+496742826+496228023+496003032+496067527+496533840+497021987
3418+497176833+497411617+498102832+498587606+498137032+497282332+497012697
3408+497501731+498460392+499455442+499376392+497436823+495082713+494603678
3398+495972442+497037134+496547331+495104635+493536412+492330660+492058481
3388+492661890+493028592+492480654+491934048+492443082+493559015+494153193
3378+494124318+494477973+495871114+497663678+498629498+498383354+497758644
3368+497846274+499044038+500960946+502855784+504212477+505090608+505865785
3358+506652559+507158753+507214194+507154433+507595363+508980753+511041264
3348+512690017+512937877+511968921+510952688+510680568+510817427+510801096
3338+510723111+510677432+510151476+508948210+507816419+507313007+507143014
3328+506996747+507118872+507759321+508656327+509399671+509592504+508784607
3318+506997753+505011795+503807226+503747879+504249339+504360104+503894323
3308+503613624+503995917+504369393+504014378+503671965+504575303+506386534
3298+507378566+506672558+505202083+504306792+504497968+505619049+507253601
3288+508884958+510238455+511349063+512073236+512161576+511998091+512340681
3278+513147100+513650926+513710510+514111086+515091403+515492571+514213863
3268+511967323+510497203+510345374+510445311+509720014+508221374+506848765
3258+506532978+507376673+508341310+508239776+506986097+505572720+505232969
3248+506458425+508301016+509056785+508152915+506728296+506074949+506338784
3238+506972961+507732044+508582958+508993652+508288294+506760662+505491835
3228+505112501+505501125+506371091+507260169+507437913+506605579+505134453
3218+503498954+502173029+501743756+502388346+503359669+503405171+501774583
3208+498889429+496049924+494460341+494463092+495412789+496305772+496762944
3198+497143225+497512914+497142810+495525299+493290505+491602789+491034527
3188+491153221+491040503+490287189+489305985+488690003+488690979+489148831
3178+489582394+489514290+488833074+487631050+485890230+483793595+481995766
3168+481019236+480700520+480492126+479919486+478707787+476934957+475196385
3158+474246038+474213938+474435291+474359406+474239322+474421031+474524518
3148+473987290+472847305+471459962+470122500+469237800+469088368+469379037
3138+469500482+469119254+468323102+467467041+466975314+467103031+467770135
3128+468491350+468472889+467204358+465088583+463129132+462009501+461723447
3118+461908410+462188163+462302360+462239759+462193518+462255823+462262746
3108+462048257+461661467+461182995+460443112+459139139+457373025+455873024
3098+455285413+455306537+455008531+454096229+453245670+453061506+453372618
3088+453803222+454461511+455543066+456603912+456867127+456123044+454863566
3078+453719232+453022572+452574454+451764485+450418916+449378247+449488509
3068+450290844+450564118+450017985+449557145+449874884+450564147+450701420
3058+449887339+448584076+447550744+447079697+446887781+446658500+446376381
3048+446055742+445540851+444872504+444475952+444574705+444798572+444714522
3038+444285752+443581490+442685992+442030633+442028621+442360501+442374820
3028+442018947+441625441+441123035+440251856+439188613+438359148+438004399
3018+438120400+438418140+438389768+437744912+436694509+435657685+434882064
3008+434419567+434255491+434373445+434724082+435093683+435097884+434543438
2998+433787107+433416352+433448570+433246388+432466507+431585536+431208035
2988+431344717+431542845+431423855+431062449+430890000+431059905+431114696
2978+430637880+429817971+428991258+428223832+427594419+427202274+426828265
2968+426156338+425270781+424546904+424211976+424281411+424705270+425296224
2958+425653340+425421396+424597168+423483572+422446068+421722576+421262120
2948+420780719+420205978+419880665+420033588+420339937+420311033+419876701
2938+419329533+418871799+418499269+418336849+418677576+419427517+419976312
2928+419934982+419495680+418851415+417870418+416556948+415320694+414604302
2918+414506614+414810063+415236763+415640830+416013774+416372369+416632833
2908+416589373+416082026+415201705+414248902+413470411+412838424+412088897
2898+411133431+410379732+410339290+411003377+411912572+412666360+413044303
2888+412891617+412263890+411468773+410757676+410150777+409592426+409058009
2878+408448861+407604160+406610559+405920941+405859760+406142294+406205368
2868+405909226+405596575+405510632+405490396+405353241+405279250+405513649
2858+405903427+406033718+405707015+405101121+404598626+404502298+404740366
2848+404926631+404743413+404089296+403018036+401807876+400876019+400397428
2838+400218323+400178354+400285569+400617656+401157487+401641108+401669035
2828+401139056+400414203+399904370+399643552+399380574+398941272+398380524
2818+397799925+397201014+396617279+396182917+395928874+395719799+395498092
2808+395364606+395395729+395584923+395870208+396025349+395699563+394804924
2798+393741355+392982746+392492410+391886309+391212282+391038206+391539370
2788+392100295+392206178+392078106+392002991+391782556+391255417+390678723
2778+390310453+390139247+390079249+390060049+389984992+389761717+389263541
2768+388368665+387274832+386509713+386329129+386383032+386222210+385864798
2758+385586998+385375083+384967318+384396866+384065666+384161195+384381985
2748+384391245+384179271+383831208+383298477+382550962+381695758+380875583
2738+380238537+379949820+380020587+380200905+380273062+380378532+380755410
2728+381222374+381290301+380778575+379997925+379350110+379046068+379101303
2718+379250203+379004975+378158529+377077743+376240172+375745487+375500851
2708+375550849+375938142+376451672+376763376+376772429+376651664+376531847
2698+376302861+375841252+375273582+374817446+374498198+374212617+373912718
2688+373570897+373147481+372729125+372534103+372667470+372952785+373054645
2678+372761165+372162194+371560975+371208267+371119513+371133565+371133417
2668+371168120+371302494+371423199+371336131+371017653+370617136+370227328
2658+369794742+369286862+368823833+368549672+368478669+368600173+368942378
2648+369330174+369346682+368800283+368004012+367409479+367196292+367294898
2638+367513884+367591662+367390042+367051002+366789888+366622439+366491083
2628+366508538+366787373+367131088+367204132+366961183+366626462+366329551
2618+366046307+365798802+365640465+365514583+365337341+365198086+365280568
2608+365527245+365591355+365264178+364776830+364480777+364399212+364317972
2598+364119518+363806838+363404960+363040685+362913648+363025774+363119557
2588+363014650+362858887+362907583+363138846+363223104+362874567+362149003
2578+361406458+361044372+361186763+361556068+361772539+361811117+361921941
2568+362116638+362138205+361958212+361847447+361910817+361959425+361889102
2558+361837004+361931941+362162020+362472393+362760488+362799451+362421892
2548+361823957+361467314+361588759+361931201+362026109+361674850+361107979
2538+360732520+360749265+360993456+361155580+361127002+361080347+361258742
2528+361717600+362200924+362313997+361960815+361530447+361485390+361878274
2518+362412455+362799866+362892673+362654516+362207019+361813691+361687926
2508+361848394+362179535+362528426+362745696+362764334+362641410+362458755
2498+362274117+362179387+362210924+362227906+362092585+361865346+361622485
2488+361323059+361068099+361142563+361569825+361982708+362116016+362105100
2478+362201072+362454613+362699100+362685491+362325328+361873215+361702245
2468+361908805+362315920+362743507+363028555+362950895+362470973+361922089
2458+361667010+361676448+361693577+361682601+361831353+362165511+362412898
2448+362291720+361807419+361252411+360982806+361150255+361553316+361791502
2438+361655502+361319864+361106233+361169603+361470420+361901646+362345445
2428+362712325+363000124+363257481+363497146+363716516+363944969+364171144
2418+364302943+364304985+364279423+364317499+364384774+364430867+364499563
2408+364663817+364920227+365188560+365433550+365775194+366345260+366999850
2398+367398237+367442111+367411195+367687900+368635349+370659353+374093095
2388+379111539+385957989+395125473+407188407+422575560+441467371+463602102
2378+488094375+513753881+539702222+565366017+590026538+613058128+634421144
2368+653950030+669806692+679317210+682430580+681383047+676873636+668091611
2358+655219803+638804524+617808180+591461394+563279826+540080905+527071470
2348+526183457+536787779+554829622+572712951+584988864+592565197+597971555
2338+601421953+602555045+602740304+603917478+605825510+606307030+604634314
2328+602082046+598988853+594081943+586934114+578828157+570734980+562250044
2318+552899874+543161850+533814107+525086577+516718559+508341073+499656736
2308+490652944+481683707+473122117+465071187+457485594+450292945+443351617
2298+436610962+430355080+424959876+420359848+416088357+411928489+408191977
2288+405215466+402897597+400929094+399223391+397861580+396808248+395956595
2278+395307271+394834508+394296630+393464650+392485339+391743119+391345886
2268+390965960+390288620+389455575+388882254+388724420+388742053+388661257
2258+388437627+388134088+387770818+387397164+387129334+386996174+386859433
2248+386583882+386242682+386072689+386200376+386485809+386710268+386818488
2238+386858605+386821891+386696156+386546014+386417646+386261912+385985828
2228+385527888+384947585+384444409+384150042+383955878+383684586+383318802
2218+382946893+382622143+382364312+382178550+382034858+381926282+381925602
2208+382063229+382186923+382118434+381941133+381916016+382119292+382415287
2198+382741132+383127744+383506073+383791653+384097085+384619432+385352954
2188+386029436+386325578+386161088+385848792+385885477+386498708+387404205
2178+388084415+388330441+388397954+388597088+388942134+389304072+389654532
2168+389972892+390128034+390077829+390034073+390211493+390516214+390681948
2158+390640470+390578017+390662096+390871230+391115097+391418665+391879120
2148+392427619+392806688+392898104+392884199+392969344+393155786+393365098
2138+393600059+393993150+394755133+395931093+397236338+398355584+399301909
2128+400270332+401320410+402393504+403505680+404792376+406371013+408172244
2118+409976967+411652198+413225717+414740924+416206873+417610428+418822422
2108+419636237+420020245+420178494+420296862+420383456+420396118+420353605
2098+420258283+420060421+419789870+419623427+419710553+419968946+420168879
2088+420234616+420304672+420386503+420138762+419218856+417738648+416173590
2078+414954496+414267067+414014857+413845308+413420295+412784639+412348857
2068+412425955+412847891+413148412+413124655+413018861+413096698+413365179
2058+413781553+414372151+415016505+415435542+415547904+415633789+416040045
2048+416843061+417860063+418890496+419830608+420599957+421148456+421582818
2038+422124809+422915636+423997576+425408172+427070563+428688252+430026217
2028+431222177+432596591+434277058+436167843+438154984+440261530+442635609
2018+445245449+447612250+449219969+450202001+451208264+452648563+454375893
2008+455995297+457261668+458201099+458947224+459572939+460153508+460812920
1998+461577713+462432887+463557814+465114854+466793724+467996606+468521763
1988+468694626+468891896+469303626+470085400+471397243+473177884+475059704
1978+476734314+478313572+480080337+482008103+483854333+485674351+487851899
1968+490532564+493328580+495720558+497545339+499033920+500616285+502661886
1958+505154925+507654887+509729363+511392493+513074795+515213765+517886442
1948+520844611+523878044+526943546+529867515+532287776+534156283+535917931
1938+537935959+540143743+542413418+544933024+547987994+551498864+554899027
1928+557539812+559323648+560811520+562589853+564805270+567410612+570296654
1918+572912174+574527259+575311252+576311982+578205104+580653175+582778891
1908+584055705+584760234+585522512+586543123+587527049+588339444+589314613
1898+590787929+592622946+594352287+595707619+596808346+597794816+598623837
1888+599323218+600076798+600910257+601601650+601943826+601932939+601738805
1878+601501773+601183205+600864223+601058180+602242217+604153031+605777583
1868+606036034+604715198+602687585+601045873+600227680+599949111+599764680
1858+599494750+599204643+598962463+598601708+597770734+596328068+594659376
1848+593536698+593514982+594166555+594031590+592263197+589786311+587791950
1838+586392596+584984663+583342478+582135306+582147495+583081838+583581877
1828+582930542+581777214+580610869+579082407+577080887+575184215+573807938
1818+572741529+571636602+570585163+569995837+569977021+570019978+569489644
1808+568449566+567685454+567923433+569168355+570678888+571609088+571787010
1798+571694410+571844523+572597334+574066212+575514439+575632009+574442943
1788+573449312+573680960+574886535+576348253+577822811+579372633+580923933
1778+582520143+584628996+587895437+592386091+596579301+598146696+596940944
1768+594932442+593810415+594367612+596707758+599887457+602192870+603102598
1758+603630388+604344798+605118851+606405547+608974500+612483476+615386144
1748+616781889+617265361+617747473+618707317+620357904+622656690+624988789
1738+626783867+628620186+631438716+634445759+635509327+634698471+633699811
1728+633439703+634033230+635181647+636460473+637993254+640621022+644854348
1718+649681557+652788182+653124737+651922417+650761929+650715481+652322105
1708+655366425+658827770+661641151+664094784+667559797+672222042+675709244
1698+676129997+674580412+672591673+671211490+671106937+671986489+673056033
1688+674563312+678199029+684682741+690399383+690798776+687894569+686031683
1678+687115191+690598784+694090956+695725922+696720853+699052479+701977040
1668+703084689+702713697+703427575+706063212+708814585+709814131+709811528
1658+710747586+713766404+719428137+727039498+732111431+732065752+730870591
1648+731259866+732115336+730914317+728061943+726001609+725927706+727721601
1638+731026325+735277166+738506981+738640408+736800124+735468815+735956429
1628+738247524+741509231+744834427+747409357+748748062+749760863+752319166
1618+757328439+763321875+767274739+768522856+768979288+770112380+771995502
1608+773877204+775275434+776328411+777069506+777105481+776367521+775680448
1598+776148122+778150470+780993141+783468606+784788733+784999967+784810625
1588+785162564+786432101+787930682+788706214+788717692+788798813+789848359
1578+792244833+795090522+796241720+795323294+794428536+794921712+796216750
1568+796936840+796621586+795611271+794595275+794917866+798124723+804159873
1558+809236126+810528087+810081892+809418663+808553490+807537849+806821663
1548+807158159+809251273+813050889+817932593+823698641+829473327+831485320
1538+828395440+824689726+823312147+823626513+824070697+824606475+826183870
1528+828719451+830970843+832367653+834182020+837613130+841633624+844704037
1518+847375176+850503871+853838653+857361711+861618587+866417868+870882606
1508+874532346+877348982+879256955+880457500+881836973+884320900+888224713
1498+892640222+895667441+896373982+896149020+897378618+901551236+907659934
1488+912125796+912899198+912040651+912600275+915608205+920094421+924658504
1478+928320551+930144563+929839960+929195251+930621823+933507864+935621214
1468+937110150+939479171+942813893+945506037+946759420+947794055+949961012
1458+952494109+952037914+947769381+943343636+940536467+938331227+936009897
1448+934586935+935301049+938049345+941335726+942752121+941087807+938483766
1438+938345014+941152005+944098518+946056903+948609053+951974602+953918077
1428+952825043+949953438+947488090+946880007+948415214+950998723+952565408
1418+951422908+947882986+943819357+941008461+940600843+942393436+944346674
1408+944279339+942012919+939534612+938806771+940126305+943271272+947889199
1398+952462217+954923719+954167121+950335672+945161199+941198631+939662536
1388+939729871+939955661+940278726+942248945+947376379+955126018+962190714
1378+965439996+966028080+967872742+972199734+976056862+976880321+976263718
1368+976994044+979090590+980648340+980986789+981177610+981635047+981851548
1358+982522173+984991485+989260905+994149650+998352090+1000313789+999436782
1348+998245349+1000248821+1005748134+1011784822+1015793187+1017641045
1340+1018382081+1018965608+1020039768+1021661125+1023417862+1025018154
1331+1026098467+1025635408+1022769248+1018594025+1015220074+1013658004
1322+1014316795+1017666724+1023626019+1031232114+1038915366+1044475860
1314+1046413773+1046226088+1046690330+1049272123+1053834076+1059448296
1305+1065255999+1070548929+1073741823+1072167446+1065870058+1059891119
1297+1059167005+1063072060+1066548730+1065790416+1061073085+1054973440
1288+1050004757+1047209481+1045613212+1042603151+1037174842+1032099536
1280+1030401850+1031113065+1030374396+1026458927+1021534384+1018113216
1271+1016209148+1014622464+1012822889+1010439668+1006764781+1001876095
1263+996876763+992797513+989693965+987152052+984901666+982681397+980349003
1253+977749636+974806496+971346986+966439070+959577029+951684910+943974262
1243+936686380+929601744+922961470+917199031+912117039+906801210+900557370
1233+893674205+887120496+881651477+877184728+872855310+867708765+861673674
1223+855732840+851161775+848845119+848815771+850031168+851051128+851239168
1213+851034501+851337448+852954131+855884254+858741835+859848715+859483936
1203+859857354+862284774+865713280+868433825+870241921+872173739+874887243
1193+878354268+882400975+886538920+889984467+892660694+895428812+898947728
1183+903003133+906897774+910183623+913213209+916767805+920872261+924623476
1173+927988256+932529323+939461775+948383144+957831830+966294460+972286298
1163+973937832+971225807+967717186+967207206+969934910+973141413+974484615
1153+974478225+976065501+981544873+989082983+994212961+995519301+996159039
1143+998744382+1001585219+1001795388+999208861+995245465+991356681+989553438
1133+991906660+997967253+1003244208+1004314817+1004054235+1007543094+1016154830
1123+1027039851+1036000331+1041267227+1043730682+1043723345+1041299060
1114+1038384380+1036965264+1037136618+1037532698+1036074293+1031658961
1105+1025053774+1018570121+1014847070+1015962057+1022568072+1032595375
1097+1042563745+1049398035+1049713644+1042188966+1030031924+1017787666
1088+1009154747+1007106424+1012420301+1022027975+1030281500+1032303315
1080+1027289072+1019606530+1014820207+1014283779+1015319596+1015010141
1071+1012681356+1009206698+1004525933+998858224+994996007+994730929+995115529
1061+993025315+990659135+991075982+992614680+993068035+994763472+999546363
1051+1002956053+1000477806+994928081+992111090+994408575+1000468813+1007518834
1041+1011988483+1010939293+1004956212+997149297+989840882+984961604+984705579
1031+988466794+991889974+991954351+990442042+989268064+986670473+981786935
1021+977865016+977542840+980018660+983404150+985845120+984679249+978846635
1011+972013764+969527056+972556110+977119720+978194885+974369353+967768782
1001+960023402+951009906+941566368+934134053+929278443+924647380+918655779
991+912953042+909798727+908625104+906730799+902951774+898750931+895713120
981+893794260+891875755+888862617+884384744+879363933+875475978+873344463
971+871955345+870313634+868556838+867011218+865493880+863930272+862128390
961+858987328+853925987+848779737+846747567+849013633+853219683+856270866
951+857687616+858723374+859974154+861664858+864699177+869790873+876243048
941+882446890+887284335+890923010+894282584+897834221+901617329+906531457
931+914067673+923861020+932980843+938910968+941532464+941547434+939557097
921+937026958+936282905+939011201+944093074+947425489+946203229+942111672
911+938428857+936372132+935122831+933311896+930544429+928910055+931506581
901+937981773+943501914+944517200+943102639+942952290+944885943+947355847
891+948181140+946185656+943078143+942261370+945278827+950430639+954510894
881+956183137+958165368+964336666+974135694+981588659+981337899+975039978
871+968961871+966730893+966936802+966806215+966421082+967790201+971066405
861+974270422+976051359+977156464+978530079+980456217+982333541+982035624
851+979333007+976988956+976137805+974816082+971669103+967331165+963459777
841+962851990+967883747+977079958+985295497+988577322+987081581+984407662
831+984215598+986643373+990305006+995748878+1004718470+1015054991+1018225992
821+1010070096+999106025+996945517+1006415919+1021230018+1033308720+1038299413
811+1036305645+1030304813+1024300786+1021439714+1021137358+1020979968
803+1020755598+1022183472+1025750315+1029359524+1031080759+1031413409
794+1031057565+1028376722+1022475176+1016821786+1014832396+1015708102
785+1015800169+1011710743+1004030331+997278641+993344001+990842914+988281890
776+984352634+978454579+971956666+967057271+965607505+967862683+970862152
766+971628691+971618809+973856947+977772831+980492962+981482509+983819755
756+990837767+1002078572+1011730623+1013314941+1007297305+998395639+989607223
746+982535959+978210328+975461974+972144943+970704348+976660566+989673552
736+1001528653+1004759888+1000658273+994951630+991923523+994133201+1000074153
726+1003792470+1002637841+1002755114+1010191867+1019900602+1020184496
717+1010493630+1001894201+1001059440+1005014316+1007698709+1007665101
708+1006109185+1002032065+995160853+990220927+992673494+998426052+995569358
698+980521600+963132334+953758083+955322342+964232351+973298448+977752950
688+979827366+985313662+996100225+1006853890+1011571576+1009091436+1001265705
678+992524979+987765105+986536750+982879792+973664174+963404750+959311300
668+964351636+972243164+976771035+979307091+979053491+973546663+962919798
658+949656290+938374066+933832053+937509366+945255278+949991070+948772360
648+944661632+941560037+941569918+946382039+955157319+960963070+954148364
638+933700165+912905588+908802197+928037189+959291892+979441168+980514263
628+974347757+966568473+953516258+938204013+929285366+929571390+931448181
618+922914667+904123267+888735226+886292185+895517033+908214646+917202463
608+925185584+936212138+945569763+948417522+947367563+947209403+944252713
##END=
