##TITLE=<SNM>
##JCAMP-DX=4.24
##DATA TYPE=INFRARED SPECTRUM
##DATE=29/4/2025
##SAMPLING PROCEDURE=Instrument type and / or accessory
##ORIGIN=Admin
##XUNITS=1/CM
##YUNITS=ABSORBANCE
##RESOLUTION=4
##FIRSTX=4497.3318
##LASTX=599.83466
##DELTAX=-1.4281778
##MAXY=2.0567071
##MINY=0.42702064
##XFACTOR=1
##YFACTOR=1.9154578e-09
##NPOINTS=2730
##FIRSTY=0.43864897
##XYDATA=(X++(Y..Y))
4497+229004769+230281357+231767725+233015918+233549571+233082137+231833243
4487+230651875+230485738+231537392+233142614+234525064+235300253+235248847
4477+234318272+233135675+232829508+233816157+235121762+235528237+235151682
4467+235026044+235405462+235521905+234941170+234191965+233919405+234129730
4457+234432909+234566980+234445854+233977751+233306029+232991537+233398417
4447+234121079+234516071+234437126+234047346+233479976+233017490+233050708
4437+233632360+234263334+234166480+232986185+231355587+230399962+230540334
4427+231108263+231173719+230510336+229684161+229319151+229413920+229536601
4417+229574907+229758595+229987839+229772862+228888326+227782994+227286885
4407+227954002+229559364+231154317+231795762+231336200+230377682+229531576
4397+229065168+229130562+229837463+231025117+232192046+232721809+232233386
4387+230940445+229687553+229286337+229740049+230337244+230392494+229695862
4377+228500677+227345044+226631157+226270861+226046222+226082614+226451281
4367+226713090+226491532+226057378+225824213+225796036+225899673+226292550
4357+227045894+227975426+228842863+229377792+229347328+228870216+228282387
4347+227730841+227335584+227359809+227805072+228193872+228072996+227544539
4337+227112159+227161574+227565061+227797573+227572467+227107833+226657327
4327+226186018+225572953+224847988+224269852+224228108+224784197+225431087
4317+225774067+226121822+226853789+227700750+228175248+228296981+228448633
4307+228693498+228609729+227811218+226398365+224808531+223504139+222933985
4297+223308004+224224903+224967247+225371077+225983178+227141052+228396962
4287+229034362+228851981+228259982+227762177+227549923+227556940+227796390
4277+228425544+229226482+229393366+228560159+227673631+227862811+228890442
4267+229705850+229952505+229883704+229444664+228514245+227593425+227390429
4257+227909814+228505143+228676601+228452040+228175824+228180741+228488012
4247+228734791+228668137+228662023+229260447+230289852+231078281+231443416
4237+231731644+232025597+232016169+231612837+231101184+230657570+230188735
4227+229738260+229598868+229866636+230270466+230591958+230884231+231179585
4217+231315834+231172646+230766606+230050074+229053017+228241591+228185564
4207+228883970+229894517+230957653+231956687+232540580+232361653+231516278
4197+230505140+229860832+229779708+230059565+230440835+230845754+231191830
4187+231375906+231524665+231768223+231890733+231622670+231048439+230484991
4177+230198304+230315213+230828079+231683878+232805796+233907674+234526278
4167+234508961+234229882+233987537+233468743+232324778+231073302+230708012
4157+231373355+232103609+231995787+231085003+230117242+229967877+231051644
4147+232836525+234110997+234002520+232667711+231055674+230118813+230044318
4137+230193216+229955632+229487498+229374011+229886707+230853098+231955691
4127+232874971+233243746+232771566+231578374+230251530+229449192+229541238
4117+230533006+231944582+232812253+232438825+231278430+230509901+230698614
4107+231401112+232017880+232450385+232806932+232964807+232737399+232255759
4097+231946123+232138041+232688109+233011204+232630012+231729481+231041080
4087+231126109+231891184+232822024+233467809+233622122+233351103+233008730
4077+232941111+233054924+232934436+232423157+231804895+231355695+231021662
4067+230651066+230294457+230167279+230419784+230952706+231428713+231589218
4057+231620274+231949375+232603966+233125281+233226165+233086898+232921787
4047+232820499+232943149+233247232+233255400+232650674+231750626+231061991
4037+230815072+231042496+231642165+232324903+232816034+233078122+233238705
4027+233446976+233823500+234383728+234926078+235126087+234967792+234961724
4017+235505630+236142827+236075224+235291960+234494709+234074822+233930639
4007+234099468+234698717+235394851+235667987+235491674+235190828+234827140
3997+234312577+233876525+233853296+234228528+234771174+235280493+235586256
3987+235782609+236316682+237354084+238340437+238563909+237935269+237066976
3977+236684400+236913924+237176308+236921703+236213355+235386340+234616722
3967+234123102+234291697+235175969+236179375+236692833+236884969+237320228
3957+237912895+237948634+237152581+236103401+235535472+235704628+236349138
3947+236980173+237349214+237652845+238087139+238378510+238098964+237319636
3937+236621371+236547077+237165184+238060207+238656219+238628603+238087497
3927+237457581+237195819+237454718+237993739+238499620+238939282+239481881
3917+240086840+240273204+239583107+238339410+237479410+237458950+237782294
3907+237976002+238452134+239765161+241434579+242362151+242207605+241463425
3897+240653603+240023205+239636085+239571220+239865313+240134902+239927066
3887+239663702+240149045+241023997+241174093+240833587+241056546+241598881
3878+241385351+240495198+239817096+239697667+240172772+241427780+242974314
3868+243740945+243580036+243187828+242997295+243004592+243029501+242703730
3858+241833135+241089406+241974611+244891149+247034334+246362083+244465661
3848+243250530+243120349+243421460+243462411+243202796+243341830+244593819
3838+246393372+247278841+247146716+247232367+248133116+249289714+250173581
3828+250718857+250634139+249686636+248626347+248574256+249266158+249533350
3818+249616139+250385275+251194693+250695192+249108095+247753791+247628729
3808+248874339+250612294+251805362+252588113+253537031+254147763+253863378
3798+253559669+254099468+255114279+256002207+257010140+258523332+260230916
3788+261720909+263324031+265639032+268536339+271365125+273899164+276439862
3778+279240424+282220753+285089525+287792409+291011193+295771890+302171743
3768+309253977+316193349+322372360+327249251+331263745+335637401+340772786
3758+345886980+350519815+355194192+360922338+369014185+379704112+390207301
3748+397720608+402836078+407395381+411577414+414427235+416051455+417373335
3738+419338978+422615516+426815690+430730671+434080024+437177667+439290497
3728+439376662+437838607+436390265+436188311+436896550+437408841+436878470
3718+435394529+433876546+433358778+434373589+436525658+438593491+439895705
3708+441058760+443007755+446213252+450645813+455375299+458567353+459337081
3698+459023259+459454861+460751878+461759065+462322855+463678218+466045093
3688+467442464+466814851+465488055+464793072+464872671+465281371+466148777
3678+468268234+471560207+474009824+474125924+473090451+472148674+471121666
3668+469495921+467492190+465710204+464529940+463883844+463556610+463682854
3658+464569118+466006351+467194643+467773868+468291106+469388254+470747444
3648+471003698+469761044+468512446+468602408+469730362+470443704+469960322
3638+469219627+469632310+471319699+473511318+476165814+480075691+485180177
3628+489538615+491503231+491165853+489307815+487492813+487989825+491529775
3618+495709878+497745691+497625546+497099501+497629218+500020675+504267370
3608+508686084+510806973+510453289+509981265+511393946+514512407+517615278
3598+519350214+519975524+520712391+521949040+522766751+522637177+522587077
3588+524033366+526717454+529038150+530671270+532596335+534917093+536218000
3578+535528681+534024700+533475970+534098822+535177424+536816020+539472538
3568+542302071+543558417+542866110+541636152+541313586+542173430+543314703
3558+543536821+542530599+541266847+541322734+543438738+546543600+548701053
3548+548992314+548236341+548009120+548758869+549255881+548194208+545680457
3538+542874512+540752222+539627442+539421318+539883105+540586116+541093584
3528+541437683+542124140+543349679+544377746+544156188+542661356+541070370
3518+540396360+540422935+540368666+540221790+540586676+541502346+542366796
3508+542731619+542359701+541088294+539487848+538942728+540226707+542457099
3498+543874199+543510807+542197453+541820120+543169383+544752030+544592458
3488+542814393+541256454+540962516+541266536+541235978+541108831+541555495
3478+542092586+541654387+540577714+540302198+540977266+541183265+540308733
3468+539485172+539817322+541120843+542547652+543329328+542788565+540771640
3458+538287265+536721547+536460220+536847822+537141138+536779301+535214765
3448+532377391+529119119+526759525+526162999+527271225+529245830+530933841
3438+531502237+531031301+530472552+530578228+530950644+530426373+528334890
3428+525184223+522301790+520939302+521537353+523680055+526381010+528487865
3418+529353995+529210667+528672082+528109847+527636422+527267926+526883249
3408+526336387+525800229+525794379+526763322+528638661+530583269+531316091
3398+530260142+528315535+526944551+526479279+525979965+524873108+524069898
3388+524842613+526996082+529070264+530195791+530826671+531555012+532070508
3378+531670646+530377083+529189009+529448531+531926495+536087990+540254401
3368+542823541+543398161+542814828+542436250+543352978+545613243+547904440
3358+548384088+546604155+544376377+543733049+544802005+546286692+546892492
3348+546156932+544719418+543692783+543605591+544186621+544965435+545774308
3338+546932011+548768516+550765028+551829938+551610931+550586910+549045899
3328+547461759+547208772+548996297+551376553+552284505+551083113+548400891
3318+545554680+544180086+544800635+546108450+546687302+546519453+546121022
3308+545619342+545188549+545151705+545444959+545857704+546553869+547470161
3298+547790175+547037251+546007878+545703236+546036631+546145792+545606335
3288+545186308+546328701+549502022+553151195+555169552+555296450+554715420
3278+553948555+552762535+551460073+550847116+550958393+551024114+550761729
3268+550703850+551209264+551757247+551549941+550414954+548715554+546968606
3258+545903509+546116479+547190911+547823160+547329322+546520947+546569241
3248+547439790+548051377+547861124+547498851+547762481+548856766+550492810
3238+551862798+551793779+549899893+547378426+545847311+545747921+546310902
3228+546375814+545109510+542660982+540130304+538598753+538478950+539681587
3218+541760623+543937555+545577333+546582809+547039492+546887700+546110442
3208+544917140+543625258+542387644+540989402+539212332+537611886+537411613
3198+539072800+541164843+541555930+539904452+537815272+536525194+535888775
3188+535376951+534506713+532816711+530685521+529382374+529378453+529607418
3178+529044125+528045060+527757968+528697038+529720313+528676376+525031933
3168+521206291+520073016+521835522+524083154+524457438+522817846+520825224
3158+519966002+520370657+521159273+521308855+520250418+518170542+515848632
3148+514002139+512715080+511496261+509973050+508542009+507996142+508406460
3138+508895631+508679207+507813357+506864889+506295840+506169378+506193338
3128+506033549+505687427+505487215+505584801+505617256+505190166+504499540
3118+503938985+503236441+501738279+499572020+497836835+497537047+498654826
3108+500204425+501084932+500983426+500418204+499957973+499629930+499108802
3098+498265201+497301362+496434858+495783938+495537299+495850156+496588299
3088+497498025+498465381+499221542+499071150+497529330+495138837+493074271
3078+491998999+491791475+492144505+492795954+493233531+492920269+491889091
3068+490488545+488811083+487058908+485928371+485889629+486628332+487663245
3058+488741255+489333612+488827233+487559249+486649337+486581407+486768611
3048+486509992+485625471+484190260+482408118+480824009+480100243+480400342
3038+481229722+481830356+481589412+480397137+478811099+477553788+476810137
3028+476306341+475981442+476084970+476581578+476896426+476387154+474954682
3018+473230574+472088586+471840578+472021341+471965671+471420676+470580653
3008+469799568+469376491+469459700+470006998+470630193+470574554+469355425
2998+467429986+465757192+464889474+464895325+465656121+466675226+467081405
2988+466441159+465207684+463977944+462842490+461757851+460986723+460735075
2978+460682143+460390944+460034273+460041710+460088604+459329270+457810073
2968+456612166+456262932+456104947+455568416+455055005+455204370+456011501
2958+456863410+457089605+456485797+455413543+454355105+453517510+452885541
2948+452303111+451466791+450234624+448986182+448331465+448389282+448672857
2938+448769696+448706496+448544995+448233071+447988237+448093695+448173636
2928+447468136+445971032+444574501+444057573+444413342+445016932+445180798
2918+444672801+443728130+442648626+441672775+441030661+440731962+440516752
2908+440300609+440318595+440587327+440631608+440122709+439432643+439065018
2898+438913568+438622182+438275437+438099965+437845266+437085123+435921912
2888+434960531+434690865+435030950+435400100+435307804+434840137+434391513
2878+434091196+433797009+433463832+433089486+432457298+431484466+430722829
2868+430853274+431673630+432280488+432296109+432155643+432172509+432068389
2858+431458451+430322593+428995547+427918906+427332369+427127334+427070980
2848+427082587+427193397+427346714+427366162+427072878+426377895+425358510
2838+424324905+423650335+423348960+423005826+422339969+421598683+421170566
2828+421064703+420994066+420804497+420614181+420521482+420337949+419800516
2818+418988468+418296753+417960868+417784897+417390854+416667834+415953434
2808+415682648+415857405+416048810+415928820+415559173+415094617+414457637
2798+413510414+412432124+411622441+411172604+410752452+410153125+409596056
2788+409304017+409111305+408780493+408377052+408000247+407499501+406803429
2778+406186272+405899460+405843977+405787032+405580659+405114796+404408300
2768+403751841+403463909+403506882+403531434+403263262+402708029+402035668
2758+401419445+400988962+400802505+400793232+400758722+400427350+399622802
2748+398492109+397469083+396816110+396341814+395786705+395245008+394888928
2738+394572617+394079214+393537144+393272675+393389055+393708136+394036708
2728+394303075+394434859+394258266+393610582+392552891+391407728+390532481
2718+390038674+389715859+389235775+388449898+387504511+386744803+386522685
2708+386909416+387507871+387737458+387383369+386707493+386056231+385574000
2698+385225699+384866881+384373105+383851012+383548299+383456907+383242195
2688+382678497+381962323+381489085+381466027+381808415+382260960+382494654
2678+382236284+381518803+380699785+380064984+379596911+379248798+379098655
2668+379063990+378849402+378320401+377637243+376999984+376505710+376222445
2658+376217436+376470485+376758230+376695870+376107808+375328092+374853391
2648+374730943+374583538+374212522+373840821+373704432+373701912+373579619
2638+373251950+372813875+372422694+372270311+372473634+372869544+373081736
2628+372889117+372392292+371776877+371087340+370317830+369610401+369236957
2618+369333515+369687821+369870980+369620078+369060737+368536498+368253233
2608+368127051+367976690+367770037+367588154+367466609+367420679+367484097
2598+367567212+367458487+367113236+366736681+366467233+366191125+365758122
2588+365231611+364862617+364846436+365114204+365400424+365529967+365552185
2578+365577173+365596124+365486123+365143703+364614111+364083586+363730151
2568+363623977+363735970+363918568+363905468+363508935+362859477+362355837
2558+362313331+362672865+363121675+363466522+363734289+363938826+363986467
2548+363844695+363638602+363532304+363544502+363478471+363121831+362559160
2538+362124446+361991511+362009155+361977446+361889072+361868659+362012205
2528+362277483+362460424+362360194+362046807+361853193+362012951+362388884
2518+362611220+362443309+362036134+361817252+362013792+362335580+362371739
2508+362199409+362210424+362455538+362635337+362646539+362665303+362766529
2498+362868408+362957872+363052905+363058226+362893458+362651113+362472591
2488+362376095+362318621+362324253+362429524+362559721+362592301+362549172
2478+362614363+362916392+363359974+363707217+363767119+363481520+362939263
2468+362392805+362153354+362315229+362619653+362732859+362612029+362444896
2458+362331037+362234198+362140658+362044972+361889103+361707344+361706971
2448+362020451+362490950+362856677+363048735+363179865+363320393+363410292
2438+363343949+363056826+362613616+362281622+362369094+362868999+363401579
2428+363626778+363576274+363492629+363518270+363654721+363875875+364129920
2418+364280281+364189572+363893705+363607516+363531682+363697353+363970784
2408+364171182+364259587+364416265+364824840+365441064+366120208+366844255
2398+367595934+368117560+368093973+367593849+367100882+367013193+367224513
2388+367263286+366754698+365659261+364084986+361958838+358937216+354649787
2378+349071846+342683475+336177324+329950485+324015437+318462576+313675989
2368+309874744+306830499+304286627+302282336+300954139+300450157+301168073
2358+303737742+308553580+315549368+324493996+334721078+344205006+349998967
2348+350131093+345167321+338382324+333489003+331512282+331091447+331042094
2338+331185360+331634948+332304103+333067545+334087832+335737506+338097473
2328+340639696+342611064+343821449+344927590+346756284+349460226+352526782
2318+355371469+357672312+359400122+360824442+362393552+364408050+366748039
2308+368949834+370632181+371855636+372982097+374215789+375420542+376393375
2298+377153114+377864278+378624732+379476735+380491732+381646728+382707219
2288+383432075+383820019+384003738+384036505+383928153+383730400+383451368
2278+383033457+382555894+382305427+382449347+382758190+382846440+382570426
2268+382039682+381444992+381019955+380908211+380939578+380790804+380454235
2258+380322421+380740891+381610849+382472747+382955289+383123138+383343918
2248+383842891+384468543+384904129+385047208+385087661+385178649+385154191
2238+384715524+383839219+382850485+382082531+381574037+381160763+380766532
2228+380453893+380229596+380002655+379752095+379554809+379448013+379415713
2218+379482740+379681054+379948292+380180866+380360353+380518742+380616141
2208+380612251+380667267+381076745+381915087+382871209+383555923+383926193
2198+384288496+384885178+385603904+386161471+386471403+386705284+387040919
2188+387475820+387896096+388251833+388603401+389007589+389442926+389872786
2178+390291630+390683495+391015334+391289450+391553141+391840513+392105450
2168+392229796+392170610+392111300+392324860+392812288+393246100+393409344
2158+393496878+393777341+394157942+394356131+394348662+394383390+394638182
2148+395042152+395400845+395642723+395912016+396338577+396786423+397025003
2138+397101148+397323857+397868292+398550704+399067973+399368228+399632977
2128+399947048+400231931+400510870+400975022+401722095+402602913+403354623
2118+403812956+404055238+404350981+404875003+405511734+406050225+406491474
2108+407014625+407687452+408364791+408878109+409207459+409451981+409705933
2098+409967944+410158571+410254227+410349260+410505876+410632743+410629662
2088+410582923+410692395+411000990+411279368+411267482+411014339+410846148
2078+411006248+411465017+412039387+412536679+412810764+412831924+412729796
2068+412716571+412951229+413455958+414113226+414712336+415056840+415166281
2058+415335997+415823798+416541247+417216875+417733118+418162511+418636153
2048+419246558+419916273+420435597+420811187+421396418+422451152+423742288
2038+424789461+425384307+425730834+426203138+427088530+428443800+430041694
2028+431528031+432743426+433834568+435039290+436495692+438226147+440121869
2018+441982800+443728255+445466894+447259927+449013939+450680292+452330401
2008+453997968+455646148+457270461+458849217+460243290+461299332+462043294
1998+462711951+463557948+464598493+465638758+466603562+467653162+468841765
1988+469968444+470975724+472170270+473811200+475728952+477566982+479231281
1978+480927694+482880298+485172459+487780558+490582676+493360585+495941580
1968+498318008+500548089+502637581+504618534+506606115+508690005+510896063
1958+513227433+515576632+517732560+519696834+521791366+524225113+526785727
1948+529166106+531430853+534010697+537239034+540842837+544022195+546326025
1938+548182756+550272186+552727808+555246350+557714108+560304533+563030381
1928+565593920+567772657+569696228+571617809+573630128+575730884+577945967
1918+580173123+582060661+583320554+584132104+585059411+586555613+588529409
1908+590447006+591946755+593144350+594217289+594997659+595202786+594959259
1898+594903310+595677705+597300991+599090757+600288104+600680933+600686970
1888+600962984+601765074+602695307+603196239+603185286+603065856+603220138
1878+603642716+603965905+603802910+603137303+602313741+601590379+600845857
1868+599879217+598848848+598085655+597598725+597023483+596000333+594531266
1858+592949865+591574960+590426344+589281959+587960764+586440975+584767901
1848+583053751+581562528+580603917+580145117+579578899+578322429+576511254
1838+574816460+573709043+573035594+572441245+571837375+571183343+570242593
1828+568878642+567262824+565573257+563777019+561820587+559920105+558475932
1818+557642289+557153243+556719960+556340200+556057900+555755374+555375924
1808+555123497+555279397+555934176+556901127+557819971+558430874+558814742
1798+559221450+559670292+559996281+560284057+560966966+562243103+563751005
1788+565256604+566988988+569069456+571187638+573095962+574917343+576724410
1778+578330333+579649786+580872587+582242948+583854534+585598370+587221905
1768+588377990+588827765+588907053+589482855+591041043+592936360+594250834
1758+595128726+596189529+597470956+598800864+600420665+602455140+604374231
1748+605825934+607253552+609011827+610882125+612723546+614778684+616959226
1738+618742768+620295168+622558109+625672120+628167200+629240138+629648776
1728+630178772+631104524+632233038+633126241+633781704+634892606+637059083
1718+639983276+642555589+644019864+644693562+645347221+646524590+648210796
1708+650040952+651802712+653438445+654823432+656006527+657360085+659177919
1698+661402150+663961394+666589346+668673486+670182072+671643297+673157733
1688+674426589+675772305+678249025+681923092+685114088+687291393+689434843
1678+692014749+694627641+696661494+698064529+699650785+702486665+706624262
1668+710320547+712100292+712630849+713170368+714107633+715153997+716035562
1658+716588274+716846489+717462806+719514209+722555654+724387304+724987440
1648+725752251+727327553+728875970+729132318+728106367+726565170+724888361
1638+722944625+721072397+720435107+721116833+721706203+721564617+721047067
1628+720400068+719580303+718926458+719096050+720074390+721052171+721612787
1618+722103513+722808765+723364589+723397761+723100960+722764018+722405106
1608+721945000+721560261+721683985+722501882+723544512+724212982+724759720
1598+726051105+728347965+730965524+733101567+734595030+735923569+737693046
1588+740095271+742892005+745884221+749012048+751944020+754072409+755107259
1578+755262972+754693145+753142425+750651702+747960643+745907809+744787571
1568+744072922+743231997+742346699+741532286+740732499+740122530+739929538
1558+739625394+738812786+738373591+738882241+739751234+740108278+739913232
1548+739673750+739519531+739186012+738636286+738480387+739915224+743449012
1538+747399529+750222838+752197567+754096121+756318671+758873684+761803602
1528+765299240+769286974+773275081+777005969+780754532+784677914+788599180
1518+792642738+797179326+802449358+808529694+815005226+821040566+826481123
1508+832071854+837444699+840672787+842320034+844507795+847533431+850440820
1498+852915984+855973797+860270093+865045914+869589347+873967546+878240815
1488+881913949+884689834+887315422+891212291+897290574+904760005+911457655
1478+916013722+918886820+921046513+923030515+925546941+929262022+933442685
1468+936484565+937314412+936392581+935714402+936307505+936925503+936107107
1458+933958990+931845787+929992914+927259162+923264085+918701234+915034946
1448+913607950+914217920+915257251+915517519+914826271+913263229+911108826
1438+909470230+909889945+912502276+915655184+918195882+920116902+921320411
1428+921236455+920116840+919687665+921246662+923506367+923893471+922041532
1418+920499526+921189530+923236203+924951784+925632888+925996343+927466281
1408+930694618+934902852+938469812+939976158+938849012+935521596+931501314
1398+928866640+928861661+931166985+934293194+936380694+936498817+935406274
1388+934614577+934746890+935627957+937679173+941504099+946367796+950447949
1378+952861873+954531027+956726568+959509486+962222763+965032878+968611040
1368+972372859+974603127+974872046+974702891+975610718+977848952+980922137
1358+984115186+986594085+987964135+988929282+990976017+994627991+998162153
1348+999566121+999842758+1001783195+1005697553+1009403920+1011930553+1014538901
1338+1018286904+1022597390+1026186195+1028290312+1029125947+1029644616
1330+1030905194+1033368970+1036918566+1041421609+1045995911+1048237630
1321+1046513834+1042901255+1041126239+1041985835+1043620074+1045368578
1312+1048326751+1052999385+1058630071+1063530611+1066035088+1066626574
1304+1067849002+1070737222+1073361440+1073741823+1072009314+1069096572
1295+1066075168+1063779180+1061371914+1057440006+1051870311+1045378287
1287+1038739512+1032676165+1027563464+1023234432+1019415605+1016374846
1278+1014775022+1014445984+1014107983+1012578237+1009711363+1006459875
1270+1004068355+1002652873+1000247599+994633343+986541185+979141893+974294377
1260+971165430+968480408+966123305+963899136+960503759+955119525+949058481
1250+944213891+940296110+934838189+926227548+915568117+905006271+895348643
1240+886197051+877514279+869699255+862638959+856126273+850734260+846941572
1230+843993170+840899573+837953162+836139124+835761169+836522495+838064875
1220+839739069+840634076+840588147+840644034+841662205+843025347+843639486
1210+843813932+845190953+848927878+854386483+859591229+863268159+866276743
1200+870133596+874690472+878449615+880478302+881170422+881983341+884573579
1190+889193624+894287965+898457613+901902902+905303009+908647602+911770575
1180+915091829+919388437+925193444+932641217+941653900+951739147+961475253
1170+968872242+972976480+974930672+976426625+978064909+979677055+981019722
1160+982345709+984425803+988145115+993348680+997785380+998857820+996882033
1150+994621145+994082249+995520384+998614106+1002878103+1006790718+1008460183
1140+1008445308+1009387304+1011868567+1013214407+1011837325+1010350210
1131+1012218579+1017790203+1024995507+1031631482+1035941843+1036747356
1123+1034423673+1031154758+1029160798+1028489589+1027598565+1026486170
1114+1026892816+1029432456+1032512610+1033814700+1031802318+1026642692
1105+1020824802+1018191062+1020806816+1025988909+1028763301+1028446025
1097+1028538631+1029802508+1029237472+1026768469+1026115869+1028210588
1088+1029580887+1028018841+1025984926+1026427855+1028542925+1028993012
1080+1026887339+1025094337+1025341349+1025295357+1022335815+1017889842
1071+1014726230+1012035669+1006247030+996725573+987279732+980935455+977925564
1061+978227157+981520281+985105414+985778303+984114751+983359586+984134791
1051+983834505+981416099+978906581+977152787+974693057+972288779+973695984
1041+979856044+985887651+986732870+983626327+981021589+980520034+980693297
1031+980002049+978130381+975626651+972943869+969994471+966840319+964165130
1021+962971455+963992240+967658465+974063422+982100813+988867731+991248110
1011+988883787+984246067+978896374+971719139+962190463+952639133+945452126
1001+940432219+935743777+929798615+922304788+914367969+907540061+901990903
991+896441621+890599397+885945060+883595051+882596547+880867025+877336223
981+872617535+868120156+864917086+862921819+861164914+859049595+856553146
971+853440629+849671155+846386931+844841874+844226864+842372934+838782386
961+835160908+833150269+833069923+834420183+836679514+839721830+843565053
951+847802101+851728782+855187390+858716262+862646739+866841032+871304057
941+876042474+880591633+885083598+891135306+899798039+909239834+916672484
931+922308460+928522914+935731205+942102741+946338234+948321241+948353603
921+946829769+944028367+940269411+936334889+933358169+931889912+931373669
911+931265628+932297927+935156337+937949150+937399550+933636673+930751626
901+931705819+935526015+939678921+942918398+945132050+945949636+944882610
891+942795546+941914604+943441425+946191732+948961705+952514289+957297080
881+961086842+961748156+960487764+958991003+956817867+954552996+955153132
871+959484467+964084099+965882205+966159961+967528269+970758162+974891588
861+977652538+977030930+973177563+968436781+965185541+964082232+964419921
851+965623368+967948980+972031498+977469503+982382553+985725714+988878684
841+993179960+997302246+998226317+994734662+990124886+989375883+993656870
831+998703165+1000152254+999043219+998558841+999503575+1000446877+1000283571
821+999766519+1000502391+1004119823+1012154787+1023657633+1032675978+1033111688
811+1028324541+1027996436+1035311772+1043359992+1044054602+1037398214
803+1029166151+1024104732+1024678729+1030727512+1036730117+1035288434
794+1025439308+1013184099+1004818603+1001824520+1000999340+998916135+994947756
784+989643682+983259450+976801282+972753864+973347901+977830344+981440433
774+979060053+971023160+962378849+957576143+957818737+961423411+965465787
764+967876538+968505116+969528079+974206563+983313532+992630919+996422611
754+994707590+991780161+989856651+989465066+991917763+997129107+1001710691
744+1002857689+1002163640+1002355761+1003001453+1001976125+999747475+999618897
734+1002617025+1006142785+1007590194+1007981904+1010401056+1014661443
726+1016407519+1012417857+1003738320+993528727+985286457+983115312+988238780
716+996561209+1003723322+1007974622+1008946366+1008171286+1007670976+1007520179
706+1006808019+1007000763+1010396949+1016003176+1019501552+1016854370
697+1009090378+1000347549+991773066+982428358+973997266+971695427+977627146
687+985350808+987036890+982215762+974138540+965875421+959884579+957334359
677+958136946+960873499+963399697+961949612+952674234+937332149+927449602
667+933870989+947870781+955258123+957953850+964063935+973633624+981147242
657+982879938+977156397+965459626+953184440+944290565+938520160+936758836
647+942173876+952018521+956311146+949425670+936885734+929764261+932958556
637+942822307+954690287+963569599+963029209+954077331+941458543+927163755
627+916682815+915434808+919614040+919003884+909265164+895490664+887447485
617+891609664+903659683+913721219+916374812+910160482+897713464+886600150
607+881666812+882386004+886514888+893671835+902886160+910338476
##END=
