##TITLE=<SNM>
##JCAMP-DX=4.24
##DATA TYPE=INFRARED SPECTRUM
##DATE=29/4/2025
##SAMPLING PROCEDURE=Instrument type and / or accessory
##ORIGIN=Admin
##XUNITS=1/CM
##YUNITS=ABSORBANCE
##RESOLUTION=4
##FIRSTX=4497.3318
##LASTX=599.83466
##DELTAX=-1.4281778
##MAXY=2.0660193
##MINY=0.52321708
##XFACTOR=1
##YFACTOR=1.9241304e-09
##NPOINTS=2730
##FIRSTY=0.53662318
##XYDATA=(X++(Y..Y))
4497+278891273+278426023+278328072+279134849+279669922+278297342+275325242
4487+272773661+271923919+272517911+274137939+276781864+279853401+282021203
4477+282665100+282361335+281723138+280989127+280487665+280523258+280922712
4467+281335765+281948530+283145467+284500049+284975739+284343148+283729392
4457+284347516+285975691+287037164+286379048+284641647+283344621+283029612
4447+282988691+282634680+282196009+281993757+281931214+281828554+281724935
4437+281759567+281957389+282247989+282674053+283350910+283864733+283295150
4427+281435265+279262940+277956095+277868862+278594540+279755389+281123601
4417+281873905+280908741+278585866+276903481+277278401+278998083+280203663
4407+279949741+278915745+278073128+277445525+276762410+276492472+277137671
4397+278062471+278151593+277367616+276788307+277271400+278569882+279643188
4387+279693248+278822782+277684237+276933529+277122863+278298798+279673918
4377+280607516+281515589+282829714+283797976+283533181+282481683+281630825
4367+281031752+280117453+278862216+277754834+277009672+276483706+276177060
4357+276375285+277263315+278604608+279965973+281156406+282119680+282461826
4347+281641079+279856065+278326957+278320792+279939054+281938648+282778385
4337+281955190+280373265+279422071+279707033+280619071+281023234+280418306
4327+279470117+279238685+279835558+280201836+279481734+278193909+277587401
4317+278238795+279697957+280965956+281030111+279574016+277338188+275414550
4307+274503689+274936382+276505607+278143818+278643546+277890268+276884492
4297+276641319+277395806+278694132+280071483+281539628+283195775+284664756
4287+285409516+285330090+284544966+282999471+280849822+278745586+277266351
4277+276486463+276299483+276710801+277646785+278884086+280216798+281306956
4267+281656753+281207983+280446650+279616703+278661823+278029635+278355425
4257+279288992+279820410+279820225+280109213+280980175+281724966+281751049
4247+281377430+281244753+281500813+281904945+282333332+282756670+283002073
4237+282914840+282542275+281980282+281305965+280761071+280702338+281221149
4227+281915291+282214595+281920898+281164893+280037562+278754198+277866508
4217+277663265+277866787+278442719+279807493+281670352+282726869+282197093
4207+280858000+279984839+279963402+280420629+281106780+282000324+282721355
4197+282606584+281671251+280807724+280586297+280516690+279929079+278992910
4187+278382840+278377357+278710427+278986002+278992879+278827335+278754136
4177+278845705+278932473+278952980+279100154+279595421+280376456+280941484
4167+280754504+280100570+280065659+281145037+282427224+282800131+282384476
4157+281961943+281637021+281055946+280402353+280230552+280625235+281230349
4147+281788872+282049145+281606942+280538065+279697678+279773944+280522483
4137+281236606+281387002+280735329+279578786+278949480+279919166+282467371
4127+285173499+286200618+284787241+281909498+279400046+278452570+279059264
4117+280548009+282243528+283650369+284333298+283962745+282771198+281702011
4107+281485076+281801852+282056208+282579664+284084889+286208269+287610928
4097+287502538+286390479+285221948+284305387+283333965+282219149+281497932
4087+281745628+282772685+283759936+284184327+284214406+284238383+284514423
4077+285262094+286424058+287299667+287141062+286071752+284817878+283857670
4067+283261292+282892382+282550669+282310254+282545527+283244440+283822108
4057+284022780+284293120+284896560+285391766+285286938+284790153+284670487
4047+285382566+286464484+287027127+286754804+286028074+285240317+284592424
4037+284368829+284723861+285177867+285021926+284307648+283726914+283656936
4027+284067573+285030631+286538675+287996133+288677482+288616704+288426193
4017+288375730+288158052+287453346+286399648+285505391+285253173+285848219
4007+287085613+288238903+288468353+287764205+287110611+287304004+288067443
3997+288600193+288546261+288143523+287689115+287219931+286760318+286628231
3987+287200539+288267588+288915636+288411540+287090569+286070761+286201485
3977+287459727+289134833+290378298+290758422+290471231+289974445+289579204
3967+289551541+290189088+291330049+292176756+292235024+292064927+292358253
3957+292805009+292774837+292524416+292760154+293562346+294424046+294814175
3947+294572056+294311226+295031699+296740384+298090722+298017057+296839171
3937+295384346+294314943+294256519+295316103+296500990+296653833+295999713
3927+295692944+296075112+296387675+296182604+296156242+297136462+298840097
3917+299940571+299347632+297407793+295490475+294397033+293795854+293564328
3907+294845865+298676970+303893789+307740692+309168690+309294118+308541180
3897+306387194+303359892+301006257+300322275+300793938+301018679+300914997
3887+301778649+303756280+305241277+305608638+305990249+306256717+305038281
3878+303056097+302550761+304016304+306169733+308311048+310273439+310795687
3868+309228538+307180310+306211862+305966830+305351680+304417772+303923620
3858+304484436+307063184+312785957+319415100+320366448+314655167+307250659
3848+302105832+300993711+303523980+307421686+310619766+313062803+315218678
3838+316096672+314833473+312570695+310671901+309402260+308697740+308780078
3828+309518890+310193734+310994439+313449060+317567481+320048155+319171493
3818+317655798+316782605+314463974+310246055+306717197+305974265+308392674
3808+312680231+316280151+318148339+319707713+321395302+321317084+319113658
3798+316609317+314315500+311704256+309215125+307754384+307433333+308089312
3788+309874480+312497309+314852153+316437362+318239072+321031472+323734718
3778+324828687+324598834+324520028+325899546+329442623+334492380+338838175
3768+341070069+342202728+343929101+347214631+352515398+359448677+365956698
3758+369856139+372035340+375936330+384626773+398323265+411963873+419209281
3748+421544051+424961854+431366565+435980841+435384990+433559241+435316406
3738+441978477+450658884+456178848+456556773+454138829+451436790+449556676
3728+449290084+451299157+455186734+459448889+462446453+463284331+462726644
3718+462772088+464788534+469044432+475459613+482957673+488797665+491200740
3708+491114715+490312307+490302208+492112034+495347814+498430349+500808766
3698+503210819+505848735+508677161+512776902+519240470+526139457+528670438
3688+525332866+520058708+515826725+513006414+512290030+515106437+521843505
3678+531289581+540558591+545430847+545270570+544008363+543615197+542136086
3668+538087891+533001519+528917390+527111096+527951947+530692832+534194832
3658+538098919+542342520+546449200+551197980+558780205+569186211+576906967
3648+575783168+568374044+561571397+558712427+559263701+560797581+561374752
3638+561078360+561263791+563191208+567483319+574127237+582383594+589684792
3628+592119805+589241938+584739986+582475783+584530888+590554948+597257538
3618+600318110+598882429+595744971+593353946+592162368+592037777+593274954
3608+595695408+598246152+599982438+600664190+600481980+599843721+599431225
3598+600245313+603163078+607587153+611139399+612512629+613514873+616351726
3588+620151605+622212534+622098971+620864644+618478389+614990205+612143688
3578+611754425+613457689+615959365+619277112+623897212+628816182+631976192
3568+632556213+632067141+632381253+633683854+635217238+636550755+637425558
3558+637241180+635621493+633411748+632168809+632521333+634022809+636776580
3548+642086300+650118628+657482091+660290196+659344765+658057590+657323610
3538+655635277+652232901+647989115+644452048+643258177+645116576+648615974
3528+651321978+652303591+651912532+650047504+646859615+643847058+642156681
3518+641152578+640384400+641099421+643626251+645213597+643203843+639155091
3508+636671443+637156302+640183108+645098857+650416507+653371817+652331657
3498+649045260+647121622+648953566+653999916+659221846+662303606+663664074
3488+664112503+663016211+659554172+655169501+653288116+655807326+661076342
3478+666422058+671098103+674382518+673521778+667425789+660188962+657189973
3468+659067888+661533073+661407924+660442543+661076714+661760014+659579636
3458+655387024+652974749+654439424+658319845+661471676+661401481+657723777
3448+652539020+648970976+648752585+650855582+652669683+652671541+651619547
3438+650848581+650572138+650925962+652452903+653964106+652521363+647466835
3428+641881601+638863097+638745569+639843409+640549200+640700927+641028421
3418+641618603+641864750+641866175+642568433+644429744+646732545+647744641
3408+645786061+641417188+637871881+637809678+640486625+643502713+646019011
3398+648055840+648128327+644808722+639950282+637252394+637945979+639944148
3388+640832519+640296609+639537972+639619257+640814428+642488821+643543851
3378+643584556+643243804+643169829+643209605+642624193+641402814+640997505
3368+642903671+646641720+650286898+653039677+655387892+656930073+656583311
3358+655020437+654530808+656162204+658531049+659831544+659733717+658506081
3348+655926342+652355386+649393198+648211409+648322804+648367101+647593780
3338+646545999+646612539+648873830+652617269+655310510+654791142+651483123
3328+647775804+645531984+644753582+644341335+643921033+644426584+646626417
3318+649752103+652946001+656815828+661574831+665377932+666071269+663556706
3308+659846227+657628800+658112977+659490049+659155059+657587042+657492685
3298+659667983+662174864+663193402+662841623+662293384+662298712+662804326
3288+663651125+664942947+666616844+668045276+668747596+668970572+669373403
3278+670734738+673416455+676610415+678524450+677818536+674843772+671393814
3268+669292614+668883711+669108731+669021871+668446558+667429692+665867809
3258+664401275+664756462+667609299+670870357+671750736+670176400+668226494
3248+667203123+667092719+667747644+669063071+670329924+670456374+669194477
3238+667691575+667352992+668425679+669726298+669773074+668317629+666550428
3228+665509152+665049075+664760737+665101861+666333462+667245004+666429059
3218+664392477+663542394+665191076+667230383+666713679+664459698+663865117
3208+665698734+667310615+666328010+663171842+659666868+656968361+655568490
3198+655530078+656405872+657719936+659201401+660337901+660550717+659685888
3188+657746390+654942374+652447512+652147217+654271588+656194358+655266770
3178+651902991+648576819+647000129+646849269+646466511+644817830+642687635
3168+641319795+640938152+641433482+643203409+645861893+647669799+647646442
3158+646623195+645441653+643799601+641329459+638724318+637173154+636857927
3148+636482666+634772588+632169367+630183217+629536532+629927715+631028220
3138+632629072+634084393+634536044+633853053+632304491+629856839+626965961
3128+624781184+623655402+622479188+620197823+617348394+615456354+615409702
3118+616892530+619059836+621364310+623483229+624915564+625493542+625778596
3108+625882185+624747109+621824201+618355595+615982041+615157793+615511432
3098+616566833+617455452+617272437+616431957+616209106+616699417+616878714
3088+616556611+616265051+615534045+613506138+610739914+608647449+607687024
3078+607299868+607197891+607657224+608497456+608946320+608959330+609395369
3068+610340305+610534347+609129768+606695436+604253794+602745750+603011599
3058+604760709+606360942+606789546+606526300+606002471+604951840+603472357
3048+602200547+601368989+600646285+599649616+597976277+595412645+592797468
3038+591718151+592562101+593799526+593986630+593354628+592651502+592036476
3028+591757864+592196939+592688861+591923780+590034341+588625177+588440923
3018+588412424+587260497+585159235+583445005+583202576+584339696+585601717
3008+585547940+583866546+581585801+579912585+579122288+578687861+578264275
2998+578258699+579173835+580460018+580623951+578846465+575985574+573527018
2988+572149142+571636217+571545081+571399859+570752926+569667229+568721115
2978+568315559+568438849+569060752+570033444+570655285+570221539+568943533
2968+567594528+566564404+565930915+566000800+566834713+567623956+567599794
2958+567110598+566799770+566358961+565025754+562673699+559858159+557358712
2948+555839145+555466424+555815726+556208210+556061005+555316369+554757970
2938+555157517+556012618+556140431+555401929+554651346+554241390+553718924
2928+552878444+552309327+552736196+553965567+554677243+553746866+551655579
2918+549704619+548188026+546599874+545109053+544458217+544711489+545029193
2908+544441056+542577019+540197393+538805701+539123901+540279732+540801082
2898+539961283+538030521+535905035+534595618+534428588+534749452+534832224
2888+534764135+535005945+535509577+535795994+535581816+534834021+533530366
2878+531883481+530471343+529641457+529066206+528313950+527639509+527599982
2868+528082053+528378940+528022762+527070949+525828382+524728311+524215696
2858+524393196+524962872+525507765+525593882+524734072+522780882+520476718
2848+519020499+518814685+518996058+518554258+517691753+517387864+517757270
2838+517780844+516798673+515260333+513736986+512208094+510648225+509571015
2828+509555062+510492997+511477677+511528387+510573910+509497165+509054962
2818+509080550+508914634+508277924+507377688+506423831+505500176+504732617
2808+504148816+503533109+502789836+502191661+501906173+501588190+500830667
2798+499882634+499524317+500095665+500915329+500929950+499752126+497796241
2788+495705666+493989329+492905553+492371780+492124023+492044163+492194279
2778+492551635+492805557+492484445+491412966+489921185+488426988+487118966
2768+486167525+485829437+486086859+486431297+486284279+485551352+484582904
2758+483672136+482847579+482139868+481623970+481074368+480123453+478994573
2748+478453676+478745019+479229134+479307755+479023196+478564978+477912717
2738+477133727+476413037+475730975+474910197+473875705+472711108+471673828
2728+471032812+470586737+469731914+468410726+467400923+467282156+467726249
2718+468079299+468108293+467923823+467587655+467055060+466325510+465498258
2708+464727663+464136056+463683444+463195085+462684391+462459123+462578293
2698+462470336+461653740+460629626+460353152+460905944+461352298+460918304
2688+459745622+458456589+457504063+456977292+456638708+456191859+455743708
2678+455701734+455994316+455895931+454981725+453784911+453139496+453245129
2668+453611747+453678473+453319568+452860885+452690664+452769006+452564865
2658+451644711+450227802+448927679+448094726+447648589+447331163+446905533
2648+446293790+445621735+445044005+444635041+444463116+444540994+444758486
2638+444964424+444919724+444312380+443217761+442288345+442052668+442359097
2628+442767411+443025887+443002406+442629778+442086434+441704916+441532495
2618+441178547+440335929+439272164+438471986+438063920+437987219+438256878
2608+438581646+438333950+437399856+436443335+436005964+435944226+435878802
2598+435683923+435432355+435150894+434778700+434381724+434251402+434532150
2588+434883651+434849638+434435284+433964024+433520984+432935449+432248586
2578+431835006+431954238+432380612+432605818+432366300+431875277+431462068
2568+431093778+430491452+429611135+428675616+427837088+427177516+426916438
2558+427210910+427828910+428351530+428624689+428743983+428706656+428372347
2548+427738115+427026005+426510881+426407448+426794759+427438408+427835477
2538+427660114+427063395+426429256+426011866+425856793+425888080+426021871
2528+426237103+426501247+426676146+426622121+426372939+426139276+426133080
2518+426335270+426462990+426319782+426115485+426187601+426514630+426790856
2508+426859997+426821430+426740920+426458746+425812030+424978365+424367242
2498+424144421+424129150+424191817+424417271+424772458+424912321+424503450
2488+423641317+422839837+422622592+423137902+424099504+425015414+425491692
2478+425444886+425074209+424613637+424168491+423796328+423585991+423541941
2468+423543304+423564988+423749273+424093742+424309376+424219387+424081909
2458+424271088+424781318+425202890+425106829+424449673+423683973+423376583
2448+423659903+424158671+424443230+424415071+424242155+424054401+423831735
2438+423595129+423489775+423537511+423551296+423432002+423236627+422934195
2428+422545675+422440228+422922454+423633913+423923150+423708786+423477508
2418+423544543+423790566+424052604+424383474+424862664+425362857+425623440
2408+425494852+425070337+424676397+424746871+425483948+426522777+427168564
2398+427120889+426730852+426523768+426773384+427487167+428443316+429224258
2388+429454668+429050908+428204171+427173768+426058270+424714654+423013311
2378+421154571+419458990+417813933+415727819+413123514+410661643+408970120
2368+407991511+407447733+407356443+407609807+407795021+407977448+408924335
2358+411101151+414032299+416981724+419905840+423200632+426550811+428789582
2348+428973743+427248052+424838657+423029048+422044429+421478998+421258687
2338+421544732+422243552+423015944+423629205+424130110+424677110+425261995
2328+425715412+426003409+426351533+426953580+427692392+428395363+429157192
2318+430041629+430779016+431187391+431580588+432336871+433282706+433874406
2308+433911052+433782527+433988868+434588808+435250951+435764402+436266268
2298+436954493+437804638+438638149+439319931+439853920+440398876+441142768
2288+442013916+442628384+442694955+442318889+441785302+441320021+441141281
2278+441367850+441771827+441957537+441804787+441437921+440875247+440092540
2268+439345054+439013595+439110338+439270925+439314603+439482129+439943910
2258+440424277+440650227+440903994+441657086+442780762+443608758+443801593
2248+443690849+443687906+443813550+443922963+443992104+444036743+443996100
2238+443785299+443383088+442897578+442529473+442385211+442370869+442301077
2228+442027577+441530482+440998723+440676495+440530468+440260561+439731900
2218+439228826+439204354+439844875+440840583+441589865+441755533+441603867
2208+441685059+442251637+443106614+443956294+444753747+445648468+446696931
2198+447699826+448332788+448460074+448318662+448324207+448688440+449299873
2188+449927073+450417291+450720436+450866030+450976527+451205481+451616521
2178+452194095+452961438+453938683+454906945+455435606+455360455+455040334
2168+454910725+455037670+455333722+455862166+456594039+457169166+457295430
2158+457192368+457297196+457673665+457971823+457877434+457455522+457136423
2148+457384707+458231538+459175637+459696306+459742060+459602383+459567998
2138+459834775+460420745+461066562+461514558+461877769+462412192+463065475
2128+463605226+463987829+464245685+464307020+464275020+464544462+465290554
2118+466133017+466626890+466839953+467138730+467620708+468069200+468367389
2108+468669853+469137302+469719554+470311440+470953200+471683091+472310694
2098+472548631+472356757+472035769+471962879+472277703+472772134+473065211
2088+472959950+472620685+472359731+472322000+472398484+472375034+472158316
2078+471860189+471642975+471561690+471629655+471940141+472596832+473520797
2068+474362918+474694935+474438689+474030004+473951197+474241642+474674768
2058+475157428+475694608+476204559+476635579+477053991+477459362+477743084
2048+477924767+478203347+478704903+479321385+479825202+480107252+480347606
2038+480910218+481936997+483119592+484030329+484600654+485106299+485762649
2028+486530890+487338658+488304658+489557262+490985075+492457092+494074084
2018+495823039+497309678+498299872+499134590+500207835+501503497+502869262
2008+504252064+505529605+506528721+507287947+508048164+508965902+509918551
1998+510629515+511072337+511646226+512701070+514018881+515094046+515818237
1988+516485181+517276562+518203190+519429464+521219062+523553336+526073475
1978+528376896+530218567+531562183+532618204+533777628+535423893+537762195
1968+540648177+543492093+545614791+546885052+547773919+548765693+550042026
1958+551735005+554033469+556824971+559579238+561881915+563895387+566089272
1948+568714734+571703872+574807316+577540952+579325500+580246336+581316049
1938+583373943+586181614+589008182+591646098+594309415+596911768+599153358
1928+601191922+603625943+606652440+609600625+611691417+613033855+614229647
1918+615303759+615837438+615942142+616291320+617308495+618697152+619706831
1908+619989035+620112388+620875114+622310113+623798394+624937249+625832311
1898+626664241+627374864+627863936+628328288+629081473+629930379+630220948
1888+629829702+629479409+629747612+630518021+631459240+632324440+632762027
1878+632483974+631723044+631089121+631033114+631751171+633251223+634793590
1868+634706544+632181944+628564274+625625134+623858428+622787290+621835229
1858+620526246+618571631+616216974+614122775+612794524+612299008+612464986
1848+613260053+614713824+616049448+615467629+612320569+608383521+605603853
1838+604445978+604185768+603979706+603872710+604395299+605061996+604516173
1828+602875917+601629509+600665924+598309346+594495899+591240789+589891040
1818+589980688+590409540+590638773+590707109+590736786+590746265+590779597
1808+590926925+591165328+591433902+591898316+592828197+594085076+595077346
1798+595545910+596143651+597937927+601151217+603973634+603852450+601241919
1788+599141648+599310228+601168998+603402286+605517178+607417521+608812683
1778+610053825+612432955+616971275+623100968+628162248+629515839+627743310
1768+625148515+623184978+622728619+624233689+626828731+628881916+630284080
1758+631978422+633585036+634370005+635470819+638571476+643259788+647078564
1748+648470132+648182971+647700033+648181794+650195762+653168482+655584598
1738+657223181+660192493+665865083+671139427+671370271+668136907+665333262
1728+663812889+663091796+663314958+664860237+667883264+672887608+680487615
1718+689277093+694584644+693659720+689694917+686656091+685840331+686932286
1708+689569520+693421008+697556621+701583193+706891302+714505930+721905326
1698+725661404+725965602+723976850+721106294+719917875+721807252+726010272
1688+731655291+739704533+750236369+757532610+756371514+751451738+748631675
1678+749549908+753451889+758269130+762158782+765686308+770132810+774125493
1668+775030158+773914289+774113474+776634666+779458136+780382751+780099865
1658+781043500+785255070+793886067+804946750+810489173+808547197+806763515
1648+808104405+809346415+806797033+802081460+798450470+796998000+798246948
1638+802663465+808206631+809131183+803378858+796519646+792816602+792083180
1628+792335832+792575659+793145397+793287831+791291830+788206848+787208445
1618+789134127+790902010+789102592+784958739+781608962+780521840+781641489
1608+783992739+786306072+787645661+787725645+787058143+786539147+786481219
1598+786552157+786876429+788293523+791157760+794677789+797829558+800305214
1588+802302206+803908510+805061429+805957792+807236107+809653835+813530724
1578+818088188+820751133+819255294+816075583+815154004+816619299+817158431
1568+814477767+810778564+809078212+810252567+814621068+823131626+833587257
1558+836118176+827814052+817743223+810654220+806548656+804202114+802423637
1548+801367864+802885325+808414613+816843948+825057679+829510563+827393503
1538+821303956+817621915+818916339+822934919+825193608+824490792+823591579
1528+824152704+825780445+828617855+833966855+841585943+848311704+851767176
1518+852888684+852617135+851174887+849984362+850851359+854646158+861915078
1508+871978039+878756399+875228936+866501660+860811165+861078129+867170835
1498+876049095+882123028+883022427+882649645+885162659+890870749+896926096
1488+900589737+902194864+903087138+903392514+903076668+903156404+905197198
1478+909909983+916784126+924955356+933541065+940468923+943782766+945480268
1468+949522019+957114219+965508797+971225623+974523358+977770847+981703558
1458+984520337+982929026+977123543+970982884+965971662+961849060+959104582
1448+958022230+957158145+955098207+952952276+952958161+955294418+957776331
1438+958976583+960110606+962417372+964792475+966301820+967333617+967621397
1428+966389734+964874007+965489653+968776174+973320380+977492360+979652169
1418+979065704+977762359+978149144+979889023+981103153+980878195+979784815
1408+979027726+979363893+980216764+980782227+981664774+983288116+983918755
1398+982097281+980018880+980740965+983329130+983934553+981228736+977721469
1388+976156860+976902116+979196120+983390156+989661292+996030812+1000311276
1378+1003252956+1007128606+1011924968+1015270532+1015899932+1014845893
1370+1013155082+1011007602+1009461455+1010510042+1014265809+1018064202
1361+1019303362+1018626071+1018872713+1021838122+1026949091+1031918740
1352+1034932226+1036451856+1037825891+1038434164+1036394424+1032664925
1344+1031178565+1033670701+1037147237+1037521755+1034730191+1032422929
1335+1032992976+1035918610+1039785710+1044240391+1049434441+1053829521
1327+1055310243+1054023936+1051665065+1049519319+1048301038+1048670661
1318+1050608362+1052843943+1054608914+1057391308+1063068482+1070148192
1310+1073741823+1071317776+1066449113+1064041546+1064618841+1065131952
1301+1063369955+1059963923+1056710300+1054540144+1053238100+1051638301
1293+1048536467+1044255880+1040002181+1035599480+1029908614+1023298585
1284+1017376502+1012356731+1007484785+1003561057+1002088266+1002757503
1275+1003317141+1001629985+997518535+992595537+987972216+983271079+978662378
1265+975652919+974632027+973446768+969949910+964732564+959581325+954842705
1255+949713026+943690267+936996103+930007468+922794617+915188787+907194066
1245+899352683+892305005+886113171+880231050+873873982+866685232+859472320
1235+853619442+849381603+845832765+842680314+840626820+839770727+839179553
1225+838174831+836842367+835544474+834884097+835538093+837326544+838921449
1215+839322855+839396581+840856238+843732246+846143903+847179602+848552523
1205+852162758+857329920+861895190+865310701+868822924+873105432+877384842
1195+880591194+882462417+883860429+886274502+890277407+894374174+896459390
1185+896624314+897265051+900127987+904475547+908854953+913600883+920328751
1175+929207134+938125169+945267329+951409227+958481812+966311175+972272289
1165+974954440+976286036+978519448+981283813+983433586+985385785+986941348
1155+985794873+981499664+978574154+982165989+991841051+1001537053+1006267247
1145+1007162929+1006651801+1004227196+1000468641+999354506+1003247504
1137+1008961046+1011604289+1010719511+1009147158+1006765488+1001586493
1128+996524593+997472441+1005648937+1016428283+1024409250+1027062530+1024261178
1118+1018053236+1013103721+1013739626+1019343508+1023951403+1022192256
1110+1016181393+1012929318+1016211689+1024290916+1032980337+1038643758
1101+1039319624+1035473650+1029634959+1024110008+1019738533+1016001042
1093+1012893756+1011775533+1012246080+1011774789+1009090098+1004384438
1084+998810171+994917793+994825604+997942492+1001516980+1003121859+1001673168
1074+997819388+993512346+989629571+985685027+982220633+980944177+982216482
1064+984584027+986974432+989722008+991708963+990191812+985251714+980361801
1054+978179873+977634237+975990016+972654922+969123060+967571337+969828230
1044+975716175+981830751+983808165+981444586+978748557+977798603+976344522
1034+972094912+966550321+963060588+963347563+967011203+971574181+972665331
1024+967544635+959445954+954368007+955005585+960088983+966905013+972921328
1014+975954640+974701478+969527377+962269981+955334131+950680514+948559674
1004+946773886+941778215+932356611+921670446+912859345+905539685+897778843
994+889489341+882702554+878834091+877132748+876046988+874728216+872651426
984+869489868+865839734+862695337+860202644+857997856+856309213+855508075
974+854965845+853020648+848350116+841559488+834852314+829931856+827080073
964+825797731+824930672+823021160+820120308+818281859+819317435+823174065
954+828548776+833738489+837508444+840334764+843808823+848437225+853337981
944+858013902+862785668+867819565+873121726+879054217+885834312+892858572
934+899296552+905399171+912044700+918707949+923578471+926037460+927580385
924+929588095+931239812+930369222+926403738+921737667+918871076+917481490
914+916073069+914922877+915212578+916801969+918866491+920969116+922215153
904+921371699+918924667+916956980+916734190+918380207+922078605+927724430
894+933951702+938965216+941811795+942110232+939792375+935850681+932154390
884+930175799+930413086+932695195+936413108+940769032+945247565+949504610
874+952512830+952358190+948169358+942548067+939731226+941613291+946765212
864+952387309+956968130+960663925+964176519+968162945+972216591+974082363
854+972057553+967750139+964152481+962485522+962469476+963892952+966537248
844+969446402+971451510+972746368+974964910+978607610+981643152+981604120
834+978517466+974788711+972805473+974145929+978881079+984425484+987961064
824+989827455+992027783+994757453+997474547+1001570447+1008009047+1014650673
814+1019000030+1021780256+1025320730+1030236479+1034993190+1035888748
805+1029744619+1018927171+1009289469+1004947050+1006475725+1011592456
797+1017338772+1021777964+1022929705+1018575330+1009121509+998695306+991104097
787+985832232+980022846+973233767+966986607+961370582+955398069+949614208
777+946406741+947256948+950195593+951705495+951031674+949729878+948982330
767+949152087+949830740+949928753+949717115+951901954+958234983+966546604
757+972998772+975191975+972066041+965174055+959900517+961178832+968526682
747+977195100+983614495+987253725+987850536+985492099+983474724+986050127
737+993006484+999502826+1001278020+998031088+992030447+985616629+980424809
727+977556174+977686031+980197806+982658035+982740125+979696219+975298909
717+974078646+978308182+983100021+981775983+975641334+972013503+973968738
707+977520302+979225548+980601194+981838743+981737819+979825395+975995530
697+971266947+965925072+958519852+949741959+944524180+947026476+955721411
687+963572645+962375614+951254650+937108366+926478269+921330561+919861239
677+919806657+920183776+920511394+919034885+913913570+906893399+905096893
667+916557742+937989550+957416745+964662989+956274731+939394501+925770497
657+921774530+926316877+934193326+940901244+946736713+953242658+957463893
647+955852260+949276616+941366030+935103629+932033393+932153213+932363178
637+928007440+918102650+907546156+902569010+904438313+906108307+901033520
627+895173268+894463203+892978454+886488865+882000853+885955620+896064861
617+901447812+895264404+884124791+878394645+882784768+897035385+916205343
607+930728437+933755739+927062256+917792875+909753546+898216678
##END=
