##TITLE=<SNM>
##JCAMP-DX=4.24
##DATA TYPE=INFRARED SPECTRUM
##DATE=29/4/2025
##SAMPLING PROCEDURE=Instrument type and / or accessory
##ORIGIN=Admin
##XUNITS=1/CM
##YUNITS=ABSORBANCE
##RESOLUTION=4
##FIRSTX=4497.3318
##LASTX=599.83466
##DELTAX=-1.4281778
##MAXY=2.0926323
##MINY=0.38371515
##XFACTOR=1
##YFACTOR=1.9489157e-09
##NPOINTS=2730
##FIRSTY=0.39230907
##XYDATA=(X++(Y..Y))
4497+201296069+202522987+202783360+202156934+201740692+201825271+201637412
4487+200781961+199854853+199681796+200598781+202266591+203812066+204410707
4477+203939003+202909792+201884144+201205940+201120933+201679418+202544258
4467+203288431+203798824+204117320+204126633+203617754+202505310+201044321
4457+199911157+199672637+200111112+200547432+200724418+200827546+200935735
4447+201024687+201113043+200986962+200289230+199166327+198341613+198342775
4437+199022386+199925776+200786610+201560280+202233882+202714027+202774873
4427+202156949+200898301+199450463+198296441+197611172+197374715+197503839
4417+197776919+197929607+197887754+197819996+198009369+198548005+199039574
4407+198943557+198385011+198100859+198411266+198878750+199112928+199206621
4397+199307118+199421990+199684029+200203230+200675378+200718042+200511955
4387+200516894+200633555+200257240+199162932+197850258+197062198+197189349
4377+197995912+198750575+198809632+198250183+197744317+197690612+197741702
4367+197442580+196993477+196886481+197137816+197429322+197639263+197738109
4357+197621218+197429368+197621127+198488276+199872423+201350997+202397167
4347+202482954+201452412+199873387+198725848+198548632+199024542+199543727
4337+199942903+200406472+200854169+200879492+200342277+199655433+199331111
4327+199498647+199954311+200446888+200848924+201176687+201371014+201126989
4317+200326741+199468767+199059575+198862434+198446178+198098963+198459390
4307+199562444+200819548+201697738+202100889+202317130+202721719+203350301
4297+203800628+203760946+203503540+203521722+203821761+204057621+204248156
4287+204688253+205136408+204824334+203464806+201708595+200461752+200140778
4277+200587526+201342327+201951275+202252354+202438699+202720465+203009143
4267+203056853+202775378+202288076+201822916+201648927+201936243+202529226
4257+202986817+203068658+203104670+203610980+204565934+205433312+205865426
4247+205937313+205784870+205507416+205332203+205433496+205575801+205275853
4237+204425571+203540531+203217829+203544522+204252927+205149238+206064800
4227+206799431+207326644+207634161+207533114+207145498+207077649+207508372
4217+207778699+207420199+206818286+206499927+206497052+206625182+206772976
4207+206904179+207189294+207867422+208724417+209127874+208732308+207802478
4197+206935879+206716412+207256364+207953667+208242819+208407113+208900670
4187+209366303+209279018+208986258+209145796+209633358+209750203+209240926
4177+208714095+209010281+210144470+211114180+211052295+210242031+209633236
4167+209782958+210517007+211229541+211406635+211127958+211034908+211649070
4157+212754327+213622485+213841188+213635330+213351806+213059979+212787785
4147+212631382+212499047+212263737+212185138+212652591+213514434+214123382
4137+214095994+213644215+213113148+212711235+212814653+213807317+215332148
4127+216416562+216694933+216714262+216812634+216633828+215889731+214857447
4117+214045027+213763215+213912753+214111347+214201278+214461803+215105464
4107+215852374+216293724+216429117+216534447+216699154+216841199+217042178
4097+217402681+217659002+217459719+216952339+216611012+216615111+216807939
4087+217106281+217566196+218082904+218368844+218409994+218706150+219683506
4077+221006150+221890319+222000695+221660071+221315793+221083695+220731847
4067+220059974+219290875+218895783+219032246+219396236+219627661+219760225
4057+220176466+220977127+221587252+221393903+220648140+220177093+220306981
4047+220623964+220732795+220778778+221113239+221726621+222216584+222238971
4037+221790051+221113453+220643553+220897059+221954070+223130816+223592489
4027+223234754+222648514+222401859+222675841+223391403+224344201+225231168
4017+225728287+225596610+224800996+223637661+222639615+222243406+222600468
4007+223593682+224752338+225323010+224961437+224304121+224318067+225128423
3997+226000389+226438359+226661114+226865917+226751611+226132830+225467670
3987+225379437+225996933+226915034+227504821+227334532+226649401+226289846
3977+226825134+227950331+228885314+229150182+228851336+228415796+228135437
3967+227972427+227905557+228228549+229109323+230099035+230558002+230366365
3957+229870576+229449105+229373748+229782465+230614505+231661913+232667391
3947+233438752+234000143+234416537+234420498+233648540+232320238+231150281
3937+230640715+230908794+231870951+233118987+233785997+233259074+232201818
3927+232035719+233208290+234518518+234741716+234441325+234988433+236615154
3917+238216413+238459889+236909336+234461770+232691276+232498448+233672227
3907+235977473+239745680+244691596+249073186+251240423+250969714+248465155
3897+244208361+240018484+238348565+240165255+243310629+244078351+242293774
3887+241287057+242715490+244838733+246200784+247647154+248722592+247307172
3878+244280187+242925262+244265461+246974608+250325182+253808137+255134161
3868+253464394+251561275+251457857+251716318+250143485+247237549+245071382
3858+245359096+249653844+258706603+267690901+267423203+258931361+249695881
3848+243943631+242692674+245053735+249216347+253895590+258983628+263974456
3838+266462974+264711824+260515188+256562975+253734446+251783632+250738258
3828+250582435+250746469+251625806+255258482+261859455+266770521+266560321
3818+264529302+263277305+260588986+255321714+250477732+249080296+251825256
3808+256861654+260814906+262800203+265335116+269168175+270959542+268882433
3798+265375914+262167798+258927874+255701943+253356296+252293352+252422154
3788+253777355+256023957+257912472+258732385+259724330+262184894+264931536
3778+265642296+264384367+263382115+264436940+267979853+273074054+277796328
3768+280782592+282104043+282463614+282964112+285067217+289335999+294388912
3758+298271333+301211293+305523779+313410956+324877165+335543188+340184569
3748+340549124+341571225+344354169+345418628+343347055+342006397+345046824
3738+353418198+365020841+374924295+378723498+376588465+372512573+370334355
3728+371591612+375856663+381799494+388137311+393693444+397273517+398946342
3718+400736210+405078577+413257367+424553624+435243257+440566161+440572950
3708+439576326+440608702+444212661+449425250+454227133+456998303+458437134
3698+460360163+463604184+468191065+474344708+482224484+490030002+493210471
3688+489350039+482302563+477193713+476499743+480017181+485298338+489989020
3678+494587921+500101145+503932920+503957876+503073861+504001825+504968875
3668+503028322+499274046+496781093+496994169+499264779+502313677+505693337
3658+509391339+512749315+515584863+519865084+527950502+539064910+547012703
3648+545740858+538366444+531731723+528817116+528781028+529296910+529253787
3638+529721837+531816256+534940543+538312984+543189399+551589461+561571606
3628+565932384+562099416+556201941+554987348+561466216+573556053+583728183
3618+585483553+581369279+577523038+576299025+577186375+579555616+582766761
3608+585625094+587505550+589062739+590857134+592578678+593747396+594552414
3598+595683453+597005333+597127055+595367342+593379782+593520711+596492692
3588+600216355+600539439+595949958+590063492+587412148+589483751+594568073
3578+599706405+602985751+604802165+606633444+608961887+611404285+613820870
3568+616228158+618184278+618934062+617497617+613436068+608359759+605254373
3558+605987949+609876762+614400611+617226158+618014233+618444360+619892610
3548+621986356+623862164+625277323+625869114+624749024+621880965+618605596
3538+616709052+617321640+619740671+622138906+624162249+626981802+630441407
3528+632587144+632701343+632206625+631978349+631397018+630295218+629677431
3518+630141811+631006284+631298417+630487465+628318240+625552758+624398292
3508+626256668+629690460+632049487+632363518+631553667+630925727+631510911
3498+633801187+637284034+640888849+644086414+646855382+648903926+649814825
3488+649627164+648725196+647527424+646645029+646547407+646539272+644813506
3478+640403061+635230047+633063880+635725744+640728164+643468995+642146932
3468+639334290+638511166+640710609+643834101+644514644+641662000+637665533
3458+635521814+636112687+638029538+638851928+637406063+635462849+635936220
3448+639121613+642105399+642436374+640609010+637965373+634821635+631481368
3438+628557525+626383406+625503274+626827050+630288489+634109713+636204376
3428+635557596+632485729+629007408+628034669+630633838+634521856+636985050
3418+638529639+641067335+644329676+645834934+643832816+639447021+635493126
3408+633686682+633534376+634062859+635536922+638259036+640866218+641729895
3398+641372619+641487001+642217457+642071513+640293328+638219706+638103978
3388+640938884+645006672+646962669+645403462+642115125+639130360+636596946
3378+634013986+631913574+631018823+631059193+632428477+637180968+645259047
3368+652218442+654204106+652824362+651711918+651573620+651366080+650965498
3358+650591523+650352849+651156889+653525458+655783315+655740253+654178905
3348+654068621+656408809+659285736+660716554+660920485+661254946+661899891
3338+661902949+661022022+659950132+658501148+655771754+652523176+650964458
3328+651852236+653332843+652924615+650476223+648049912+647928496+650408511
3318+653112153+653873682+653327400+653423676+654902327+657225204+659416206
3308+660399526+659648457+657903730+656561481+655861609+654748553+653038814
3298+652320591+653890136+657058647+659999861+661140686+660125926+658482125
3288+658497355+660813015+664076457+666849523+668301077+667524378+664563101
3278+661451048+660179569+660823107+662431493+664137807+664787767+663077661
3268+659573466+657427728+659521963+665354480+671179167+673354937+671333491
3258+667664756+665739832+666928245+668890359+667601999+662657383+658372758
3248+658618649+663109957+668639819+672061439+671771385+667821038+662105228
3238+658033648+658172008+661618156+664801775+665354602+663885004+661715350
3228+659231604+656741863+655061239+655082953+657167646+660317256+662442992
3218+662502263+661781410+661615954+660987279+658479617+655349580+654043359
3208+655201678+657802621+660594954+662045713+660610307+656591514+652339064
3198+650057168+650247397+651988760+654116454+655932868+656550227+654691484
3188+650413710+645654430+642009673+639327990+637186595+636313926+637785971
3178+641653926+646635793+650767623+652443720+651266684+648240509+645207361
3168+643664362+643735071+644266001+643863644+641831310+638456911+634576539
3158+630774033+627404221+625303503+625273531+626734688+628035893+628214806
3148+627708649+627200168+626541950+625470305+624701314+625107707+626461149
3138+627783273+628283864+627593105+625626770+622867772+620277595+618609205
3128+617983344+617917895+617684849+616826921+615262086+613470261+612659431
3118+613839709+616319541+618018026+617974475+617144928+616367679+614973195
3108+611986900+607977649+604616157+602787447+602060600+601715496+601454374
3098+601290019+601258946+601456209+602261044+604013784+606212309+607505012
3088+607171469+606050217+605290951+604943033+604310689+602882440+600592593
3078+597851211+595412973+593988700+593977078+595174544+596766537+598077284
3068+598964083+599431032+599311389+598383058+596599184+594210063+591742709
3058+589827326+589066593+589778332+591545140+593047890+592913629+591161562
3048+589330834+588718002+588903521+588487953+586951805+585126155+583929912
3038+583442533+583364423+583504496+583325766+582088541+580201723+579182314
3028+579599351+580388588+580488780+579853989+578788399+577481322+576138523
3018+574829611+573511401+572510648+572483918+573577278+574791137+574524693
3008+572135817+568773468+566280179+565550274+566155154+567080733+567532757
2998+567293105+566594150+565813170+565185107+564477466+563187699+561521450
2988+560432249+560210029+560057418+559426970+558668622+557946851+556804252
2978+555302052+554331638+554240499+554282093+553952953+553718745+553738930
2968+553179374+551623898+549829381+548655220+548530011+549642027+551430182
2958+552621164+552632113+551966433+551039080+549724052+547807201+545151759
2948+541985389+539370378+538701517+540316570+542783190+543946280+542994705
2938+541006105+539225290+537906163+536980523+536397112+535627326+534243851
2928+533006137+533093667+534410898+535600963+535539000+534195040+532243874
2918+530385254+529009425+528221472+527979129+528022496+527634453+525960802
2908+523155684+520728456+519982953+520583001+521173079+520947678+520302489
2898+520243708+521357008+523106750+524266293+524198887+523201804+521633544
2888+519568975+517285244+515308633+513959290+513300154+513430807+514392963
2878+515728422+516509647+516071141+514469728+512113821+509477218+507293985
2868+506263382+506317882+506771007+507105713+506976161+505900754+503992772
2858+502528068+502649484+503868695+504784671+504913702+504777820+504666955
2848+504437487+504054948+503470406+502441792+500999383+499574651+498446884
2838+497460108+496368461+495275285+494612969+494576085+494705575+494380809
2828+493529824+492462552+491389866+490494596+489912286+489290799+488054278
2818+486274778+484660489+483805222+483892293+484684100+485412843+485271058
2808+484301714+483234381+482474442+481833198+481065063+480172974+479338105
2798+478757723+478411426+478094825+477806576+477736999+477734888+477310237
2788+476353768+475258941+474247361+473175196+472077004+471331470+471111850
2778+471094693+470839198+470201135+469333787+468464696+467689160+466968857
2768+466345749+465955535+465694780+465156266+464117497+462860791+461873250
2758+461384648+461186406+460830537+460065246+459019535+457938654+456984479
2748+456351921+456212430+456457740+456809358+457101278+457202845+456886184
2738+456058044+454936242+453782969+452655876+451588726+450778324+450346975
2728+450077290+449601472+448794924+447851484+446985635+446185021+445361438
2718+444636915+444203088+443935666+443513400+442862491+442086252+441190064
2708+440286689+439680585+439361202+438877891+438055715+437295868+436892594
2698+436562323+435888477+434880200+433911254+433309371+433093146+432994269
2688+432734157+432328406+432002141+431779463+431381204+430588052+429495029
2678+428402158+427640232+427431591+427675831+427931601+427819298+427359781
2668+426812306+426349609+425992944+425724329+425531225+425351027+425017422
2658+424338041+423312331+422235976+421510872+421365784+421720155+422180712
2648+422243989+421729636+420940979+420216548+419528114+418730741+417915660
2638+417241295+416711405+416374253+416449610+417005098+417693716+417984596
2628+417570526+416538792+415251319+414102847+413365969+413134543+413236968
2618+413247274+412819442+412044334+411347336+411095297+411361557+411862729
2608+412060237+411622129+410837356+410280247+410163908+410327591+410611069
2598+410826713+410631866+409914775+409110092+408748534+408868177+409099664
2588+409145325+408994120+408782421+408588460+408395448+408199071+407997190
2578+407699643+407283004+406969554+406937227+406970135+406771923+406438166
2568+406226161+406087067+405778052+405258438+404776290+404649949+404933886
2558+405250028+405155984+404720322+404434274+404511039+404602667+404334266
2548+403874168+403727887+404052929+404474278+404622852+404572481+404609181
2538+404804121+404941716+404759744+404255881+403754587+403572829+403676477
2528+403782877+403714186+403572126+403653600+404149297+404827639+405181827
2518+404993585+404530184+404119417+403811656+403546925+403363179+403299443
2508+403311126+403416700+403733270+404240161+404672979+404764668+404488193
2498+404061278+403816885+403960842+404375554+404802714+405143383+405348476
2488+405251251+404853421+404518348+404565172+404915750+405297707+405533109
2478+405579748+405506654+405391538+405175007+404793019+404427791+404360048
2468+404616919+404990129+405281835+405357070+405183937+404980129+405068087
2458+405487906+405974734+406295739+406393361+406303751+406139120+406048654
2448+406099484+406241178+406324579+406138050+405629355+405091330+404873453
2438+404966274+405109436+405201308+405337527+405514514+405569870+405449126
2428+405335172+405450166+405834876+406312682+406589585+406488904+406146216
2418+405831451+405652782+405651253+405980178+406663933+407373837+407728239
2408+407679489+407487027+407436258+407617649+407933301+408320916+408839673
2398+409441709+409857400+409870184+409596553+409392592+409478104+409677539
2388+409638698+409258545+408684095+407930273+406746876+404881344+402323432
2378+399307564+396153030+393086026+390177933+387395692+384710278+382219711
2368+380081467+378337963+377071715+376542712+376729547+377159887+377773606
2358+379330825+382385352+386643093+391623645+396875412+401375895+403712137
2348+403047221+399864948+396046416+393575453+392838605+393075688+393699836
2338+394247220+394198255+393583588+393132482+393433607+394227279+394798579
2328+394945808+395099704+395565399+396292521+397316762+398750333+400394685
2318+401852080+402881795+403486767+403951575+404716224+405871637+407034207
2308+407949633+408777833+409648759+410455430+411149277+411845021+412650957
2298+413602134+414652341+415641564+416366056+416702199+416696725+416633386
2288+416868268+417405589+417812441+417767820+417498135+417438527+417637504
2278+417747818+417545111+417188140+416876005+416533134+416078785+415749585
2268+415800934+416079611+416246628+416263051+416329478+416516986+416758014
2258+417061922+417501927+418076744+418724869+419398103+420039898+420522414
2248+420665881+420398092+419905178+419494747+419243045+418926842+418388420
2238+417787852+417375373+417184256+417063268+416882397+416631918+416403093
2228+416269932+416165673+415975046+415727748+415549997+415488402+415529017
2218+415687592+415980337+416423675+417052747+417807364+418506167+419057862
2208+419539736+419992463+420347537+420590523+420801152+421060836+421473102
2198+422166307+423122775+424131816+425037730+425869111+426598956+427003055
2188+426982442+426862769+427121780+427884533+428841245+429608035+430057490
2178+430301974+430449723+430478074+430347268+430138261+430045654+430258668
2168+430793696+431421024+431873415+432155823+432515087+433097275+433796780
2158+434453836+435021924+435490127+435829481+436173117+436910302+438321241
2148+440108417+441575722+442389793+442934577+443793912+445115791+446622028
2138+448035444+449343286+450701254+452169170+453662348+455218099+457100115
2128+459446481+462035802+464611421+467157374+469640998+471823191+473573668
2118+475117492+476758908+478471706+479862184+480576247+480809416+481319610
2108+482845053+485626316+489476655+494076075+499122443+504316346+509299497
2098+513689727+517217960+519716815+520968720+520786809+519232740+516512032
2088+512679676+507703804+501784124+495405448+489108246+483271448+478060511
2078+473534705+469751680+466745200+464486762+462914710+461911327+461258400
2068+460756280+460341079+459949855+459402471+458635070+457916083+457570887
2058+457559235+457526511+457251443+456930316+457000107+457672761+458660240
2048+459503641+460181891+461146801+462745981+464937349+467585145+470679828
2038+474288802+478649671+484198526+491101800+498860373+506660570+513912803
2028+520257287+525484617+529752849+533444031+536590033+538855597+540107379
2018+540466735+539857573+538140371+535675831+533156057+530885172+528581807
2008+525775833+522243134+518251132+514432539+511200169+508364193+505546566
1998+502812861+500730003+499910610+500437074+501573435+502272818+502154123
1988+501675645+501448868+501781035+502645080+503770614+504885566+505921337
1978+506959952+508194485+509871990+511926191+513906319+515662973+517612549
1968+519874809+521808848+522977505+523910423+525350111+527382995+529693150
1958+532126066+534589628+536834884+538771798+540668402+542741351+544905990
1948+547183053+550016980+553769452+557861340+560876505+562134832+562711453
1938+564101106+566596474+569469976+572062172+574200141+575974290+577581207
1928+579309847+581563606+584597488+587924055+590519492+592099435+593292681
1918+594236976+594367201+593886918+593940806+595169467+597121061+598988978
1908+600380833+601327269+601950500+602353529+602686950+603124600+603813891
1898+604904620+606320085+607504339+608085609+608670243+609917010+611041565
1888+610605322+608757161+607075865+606513923+606658094+606603717+605964338
1878+605070260+604409718+604173919+604625821+606466213+609942516+613396493
1868+613832430+610350378+605313277+601204752+598536587+596549883+594674993
1858+593036880+591819168+590651062+589021513+587201978+586141159+586376285
1848+587722448+589793562+591583247+590989988+587261249+582792573+580115417
1838+579344590+578836599+577545975+576422399+576933816+578649366+579251311
1828+577667636+575210253+572654513+569349722+565524645+562747909+561836765
1818+562023814+562198507+562214594+562678301+563795699+564803976+564753635
1808+563733248+562807913+563027870+564855784+567925571+570925812+572413026
1798+572366478+572397979+574265101+578229088+582038568+582674154+580564321
1788+578843877+579201337+581016773+583247533+585760395+588468991+590716878
1778+592501608+595176073+600195130+607293558+613412641+615099015+612881406
1768+609628852+607128590+606395932+608015389+610946633+612910705+613375330
1758+613748570+614662038+616128211+619218795+625037304+632217329+637145614
1748+638231327+637551946+637554270+639099776+641848315+644556054+645666908
1738+645774562+648067100+654234751+660454393+661343455+658772362+656817098
1728+656033733+655853229+656470281+658154881+661307060+667165450+676713922
1718+687932374+694827912+693893586+688635305+683769289+681802709+683677966
1708+689056746+695947267+701772444+706643415+713329027+722479975+729856590
1698+732254214+731621013+729203388+725560894+723193855+723773595+726605259
1688+730914963+738035655+748979529+758925403+761002389+757468038+754312250
1678+754711120+759067616+765028461+769657700+773478740+778292154+782257242
1668+782021688+779446925+779116317+782030679+785023580+785313450+784681595
1658+786647319+792899807+802951867+812630440+814803030+812486943+814125545
1648+820048955+823956730+820641602+813844360+809179338+808136074+810226762
1638+814670787+819415755+820096666+815294813+809812111+807247318+806769971
1628+806027098+805035703+805487238+806263936+804198633+800302480+799157067
1618+802117855+804360848+800336305+792529747+786419288+783556062+782315534
1608+780736814+778637074+777166865+776832037+776794052+776056195+774687278
1598+773441000+772701614+772310512+771980761+771444999+770587255+769638433
1588+768857881+768158497+767399538+766758324+766688533+767985884+771665873
1578+777654794+782707676+782261952+778010908+775605639+776630186+777952065
1568+776401421+773277929+771274833+771478213+775123276+784457785+797969143
1558+803609289+795682660+784893967+777946071+775096729+774178185+772958026
1548+771666118+773163730+779860475+791287446+804699835+815771732+818144644
1538+811853681+805457694+803635958+804520433+803906439+801449055+800632721
1528+803298683+808383556+814642161+822516615+831769344+839426410+843577630
1518+845857446+847128190+846928969+846755621+849235147+855582384+866056006
1508+879828914+890194332+888281090+879661072+874523045+875930987+882207576
1498+888893127+891451374+890139098+889720165+893737674+901778624+909344551
1488+911405145+908811481+906635833+908022244+912478319+917573468+921936325
1478+927006517+935125639+946102604+955862346+959407156+956525091+951847040
1468+949134101+949001124+949766506+949476513+948967910+951367124+958874453
1458+969480930+974395024+968183762+958100507+951269868+949206155+951040981
1448+955255876+959817709+962944626+964442361+965613158+968154402+973141346
1438+979980120+985472425+986441677+984420904+982840043+982618558+982846710
1428+983438562+985719295+990050652+994484401+997268111+999674542+1003503228
1418+1006775111+1006557479+1003892862+1001008227+998752878+997411670+997335089
1408+998395235+999695400+1000469774+1001053062+1002744574+1006560843+1011756672
1398+1016066987+1017693784+1016608682+1014039118+1011272903+1008988561
1390+1007161014+1005310468+1003394963+1002478620+1003404688+1005670007
1381+1008785547+1013015122+1018192050+1023648206+1029310006+1034838644
1372+1037970638+1036863271+1033283535+1030690055+1031068556+1034224773
1364+1038310849+1040362512+1038855358+1036651022+1037922928+1042512042
1355+1046221330+1047406257+1049762287+1055662454+1061030468+1060440329
1347+1055034514+1050760287+1051324247+1056127200+1062418102+1067620232
1338+1070923860+1072889400+1073741823+1073415314+1072050434+1070572272
1330+1069873623+1068875990+1065536150+1060227101+1056128546+1055646183
1321+1058406772+1062703507+1066856011+1069544422+1070868443+1071756587
1312+1071175501+1066906046+1060527798+1057053758+1058612293+1061646786
1304+1061620607+1059496767+1059902060+1064000247+1067932183+1067842512
1295+1063753622+1057740418+1051193716+1045270061+1041245763+1039315211
1287+1038211759+1035954208+1031352371+1024863717+1017487285+1009992066
1278+1003450013+998864875+995865919+992877973+988988671+984902777+981607345
1268+978409107+972889521+963743467+952824243+943001744+935605432+930658675
1258+927543257+924915524+921422339+917017949+912435135+907598173+901944570
1248+895689267+889245510+881921314+872644118+861785511+851163008+842431483
1238+836000020+830960166+825754428+819740613+814377798+811732264+811767864
1228+812278180+811574637+809896582+808044935+806288342+804928478+804657753
1218+805851365+808072950+810531312+812847767+815149725+817609861+820193615
1208+822745318+825058042+827105790+829573388+833590591+839396683+845728506
1198+850972779+854548478+856905609+858742515+860480208+862141931+863611957
1188+865029074+866825303+869382939+872894352+877572403+883517772+890346760
1178+897647528+905792462+915337753+925559551+934706951+941708001+946619893
1168+949929271+952250620+954094009+955167245+954443150+952129754+950961525
1158+953799429+960236152+967073398+972102363+975698921+978807365+981081676
1148+981344755+979479713+977263572+976575382+977061048+977296174+977320580
1138+977862213+978419811+978431922+979165192+981795067+985259442+987317772
1128+986471466+983544748+981082899+980825325+982933996+986917495+991317603
1118+993516250+992787752+992916875+998200663+1007680077+1015180800+1015644629
1108+1010438891+1004018132+998777100+995578312+995741933+999532818+1004014278
1098+1004886642+1001675436+998823220+999614904+1002631721+1004786328+1005014603
1088+1003498396+999519912+992932962+985771716+980473554+977942158+977811261
1078+978761796+978821373+976176818+970422657+963994741+960721818+961331103
1068+962040945+959298218+953700644+947759984+943846888+943820525+947091858
1058+949529973+947220369+941321793+936371488+935365903+938327180+942941800
1048+945775177+945282477+943379328+942746127+943568028+944463879+945575895
1038+948446094+952941806+956416519+956600938+954146612+951887227+951050401
1028+949207318+944655516+940771535+942154031+948462610+955110176+959084011
1018+960998477+962092387+962308123+960768794+956672564+950153510+943052879
1008+937815273+934863844+932426829+928728001+922904476+914424653+903394105
998+891685705+882594885+878352160+877826001+876779556+871709181+863733496
988+857030696+853959501+852951837+850954245+847435003+844766471+844370109
978+844454825+842523111+838627264+834568957+831210033+828122936+824851726
968+821381539+817658917+813712423+810294657+808332848+807550523+806604392
958+805054787+804224079+805781145+810221012+816419796+822168819+825603284
948+826834270+828041951+831395369+837066343+843511141+849493456+855213058
938+861244795+867552517+874313915+882536837+892609571+902601320+909638092
928+913614435+916686424+919159772+919210663+916629355+913665754+911428633
918+908549625+904291058+900647646+900219600+903158979+906804042+908468457
908+907919667+906555459+905560334+904961142+903625744+901131294+899700537
898+902323683+908603452+914806335+918333162+919400709+918758761+917415229
888+917653229+921129165+926567399+930827863+932128457+931343378+930280235
878+930159614+931753687+935073463+938613808+940388507+939915013+938206191
868+936561901+936148595+937261467+938297208+936859294+932653881+928746534
858+929047720+934289180+941131808+945934517+948837747+952709311+958599446
848+964066796+966703460+967542120+968650772+969728473+968621045+964456796
838+959493891+957245271+959599832+965096420+969924146+971670219+971159413
828+970605424+971871152+975555117+980185824+983316167+983542974+981228293
818+978395528+978272827+983284299+992476534+1001887258+1007983159+1009660908
808+1006866617+999329927+988308310+979171309+977236597+981703377+987411174
798+991246221+992901889+992250461+989168563+983580531+975332102+965464400
788+956573351+949856666+944120488+938611606+934084087+931297931+929577243
778+927701741+925572213+924293762+924317555+924399152+923500181+922427679
768+922246136+922225400+921977613+923929512+930655433+941193281+951437160
758+957308456+957467551+954633930+954006357+958267187+964290789+966411693
748+963748789+960954192+959955274+958369030+955694198+955134459+958310310
738+961653269+961120810+958607887+958906260+963087023+967577046+968926757
728+967816943+966584306+965883822+965780450+966843471+968372951+968256979
718+965259552+960588413+957190587+956527537+956759299+955863203+954516428
708+954291823+955153971+956314554+957963493+960011608+960413231+956217237
698+947296645+939262545+937962747+941396845+941469939+936162052+933623011
688+939286033+947692945+950096257+945601218+940399578+937725969+935270788
678+931237070+928024152+929209874+934234008+937631344+932609657+916897695
668+898257791+889988199+896163495+909709535+922361741+928200925+927754589
658+927436032+930197904+931784698+929180208+926370931+926588196+926219359
648+919675043+909902027+906468358+911441050+915399715+911133319+903616508
638+899316653+898413278+899740479+903320154+907275884+907927863+903771322
628+897419009+892549689+889396103+883666041+872304641+858818301+849149881
618+846086944+850551705+863578621+882478973+900088886+907877339+898999869
608+878840456+861410374+855267680+859535606+868144675+875606741+880920500
##END=
