##TITLE=<SNM>
##JCAMP-DX=4.24
##DATA TYPE=INFRARED SPECTRUM
##DATE=29/4/2025
##SAMPLING PROCEDURE=Instrument type and / or accessory
##ORIGIN=Admin
##XUNITS=1/CM
##YUNITS=ABSORBANCE
##RESOLUTION=4
##FIRSTX=4497.3318
##LASTX=599.83466
##DELTAX=-1.4281778
##MAXY=2.1044703
##MINY=0.38053963
##XFACTOR=1
##YFACTOR=1.9599407e-09
##NPOINTS=2730
##FIRSTY=0.39369762
##XYDATA=(X++(Y..Y))
4497+200872214+200360937+200376827+200443474+200426398+200499476+200646500
4487+200510805+200001838+199731496+200290823+201422829+202482850+203265155
4477+203776721+203755281+202995694+201845426+200984843+200719518+200657494
4467+200257432+199489983+198701749+198157080+198130424+198937392+200335726
4457+201473935+201751622+201355893+200786865+200312279+199999968+199919606
4447+200059194+200150657+199936515+199611097+199635973+200193096+201199411
4437+202541028+203797218+204210692+203449965+201971710+200464929+199402292
4427+199058962+199478701+200278233+200670769+199946718+198136339+196103501
4417+194860934+194806422+195538228+196387376+197183822+198233869+199461351
4407+200194510+200082809+199542397+199100945+198975695+199216250+199621574
4397+199702818+199211764+198408932+197586637+196849585+196434301+196647501
4387+197419739+198307023+198828230+198539139+197183472+195284216+194158749
4377+194715948+196455103+198035753+198637565+198438948+197928583+197235248
4367+196378724+195890180+196519377+198133754+199510116+199611066+198609769
4357+197443536+196936896+197417625+198604539+199786677+200359112+200162822
4347+199376047+198433322+197999898+198483258+199481164+200092130+199817712
4337+198879717+197789390+197023158+196973268+197707386+198775071+199530415
4327+199629998+199166998+198502888+198066225+198158296+198748993+199443013
4317+199825923+199870917+199817925+199680253+199361100+199298665+200212590
4307+202050841+203799317+204461176+203894900+202760355+201923325+201808674
4297+202102053+202129804+201631634+201052128+200999365+201600264+202531311
4287+203441769+203981162+203649327+202300944+200713284+199982330+200382894
4277+201223786+201656891+201341569+200568936+200035306+200318437+201386411
4267+202691473+203728580+204383430+204752290+204834751+204578717+204086127
4257+203622900+203529658+204013520+204790821+205227210+205127233+204899360
4247+204736248+204330164+203613792+203140088+203435292+204308313+205067870
4237+205379906+205656392+206336940+207040782+206945366+205889861+204606680
4227+203989084+204415316+205463796+206146853+205814821+204859947+204220774
4217+204322272+204834568+205306873+205675506+206174695+206913526+207579628
4207+207639265+206919365+205851390+205070561+204980634+205583800+206407829
4197+206769923+206441814+205905249+205825039+206431291+207339925+207888198
4187+207831891+207632969+207801829+208173183+208243890+208056464+208247053
4177+209203006+210574532+211782399+212700795+213565590+214403958+214852907
4167+214616732+213895707+213150945+212581734+212069438+211528160+211032468
4157+210681505+210567766+210733873+211032544+211259779+211446915+211739747
4147+212060634+212216128+212234070+212279505+212334230+212242084+212068510
4137+212100670+212311498+212158057+211297093+210300084+210186817+211226630
4127+212513323+212964493+212553254+212095014+212042098+212140601+212135370
4117+212179299+212565874+213347677+214109529+214251779+213819054+213617214
4107+214129084+214892457+215324908+215601242+216286320+217452068+218492535
4097+218758103+218279168+217714032+217580069+217815652+218048710+218035283
4087+217873829+217862683+218045045+218049926+217636908+217195745+217360818
4077+218270896+219442269+220204380+220177010+219544832+218898923+218638920
4067+218647253+218630070+218544675+218581382+218864664+219292706+219644688
4057+219790267+219711258+219383955+218907073+218664648+218942761+219479690
4047+219854192+220090003+220380113+220552242+220373559+220034988+219832554
4037+219722207+219564964+219484571+219714984+220316629+221080580+221582490
4027+221555972+221335063+221557234+222396772+223507383+224521818+225119282
4017+224993454+224291391+223656035+223431613+223250452+222664423+221809421
4007+221196812+221155863+221753737+222971412+224565155+225895017+226320975
3997+225789322+224768379+223726620+222946292+222669457+223054496+223954097
3987+224916361+225496581+225564536+225286073+224840089+224296743+223867577
3977+224033699+224992466+226102119+226456686+225992744+225410775+225089342
3967+224861195+224746407+225055478+225791724+226573892+227127639+227527656
3957+227977365+228448591+228598793+228268160+227959772+228261895+228871857
3947+228963092+228571164+228668511+229633756+230449132+230018339+228688598
3937+227735503+228013388+229477060+231460511+233047882+233613976+233435461
3927+233425243+234018464+234547000+234163389+233270464+233125082+234154099
3917+235308305+235166663+233435948+231116694+229446102+228966787+229702744
3907+232050463+236705544+243198161+249113903+251978632+251271839+247707647
3897+242520792+237805769+235803312+237214616+239948986+240756410+239640477
3887+239589690+241918964+244720756+246316476+247378185+247753630+245931360
3878+242871816+241638692+243359737+246730467+250518882+253603060+253733008
3868+250827361+248263508+248072631+248478547+247103509+244494677+242642681
3858+243044416+247144017+255811996+264607596+264635970+256695753+247848620
3848+242060286+240318957+242004664+245733640+250242533+254807886+258490606
3838+259602966+257722595+254971530+253205993+252072679+250446244+248475947
3828+247106808+246722149+247827560+251771226+258247315+262765605+262198279
3818+259586118+257471184+254385014+249486505+245208906+244299588+247801497
3808+253981546+258609667+260082676+261362299+264081417+265448595+263417475
3798+259949687+256651808+253486934+250820609+249335040+248829374+248943934
3788+250166687+252814795+255768599+257783479+259382088+261496049+263187990
3778+262878584+261185761+260309150+261879993+266177709+271827793+276396080
3768+278781736+279874481+280612232+281704247+284321456+288926420+294016902
3758+297718584+300459507+304443590+311596486+321844963+331234500+335346554
3748+336309533+339092880+344512262+348151966+347831034+347577189+351509877
3738+360339234+370948574+378245224+379809955+377815693+375876902+376232564
3728+379718872+386065621+393348222+398807959+401331137+402146133+403127724
3718+405263824+408879047+414605615+422936985+432138122+438245107+439873154
3708+439927590+441601954+445909250+451474789+455545757+457026126+457886709
3698+460029044+463309437+467029791+471519465+477414877+483506443+486269567
3688+483980771+479616910+476542737+475603571+476285821+478397532+482771915
3678+490117346+498178388+502245190+502681716+504066502+506271150+504788865
3668+499431705+494660209+492562609+492438074+493425473+495402400+498657034
3658+503257922+508071751+511649780+515217226+522121843+533145326+542311521
3648+542434444+535944214+529556531+526466362+526649683+528502348+530175465
3638+531005880+531705039+533236317+536324357+541769163+549647128+557095197
3628+559310733+556226829+552503676+551458799+553955823+559113241+564104551
3618+566153979+565792387+565360666+565956426+567198247+568514273+569825919
3608+571166881+572137189+572199411+571599089+571353668+572153976+574115150
3598+577522753+582012700+585334665+585651552+584714089+585959925+590425968
3588+595365883+597081332+595799490+595011894+596612996+599163301+600025769
3578+598337630+595854534+595229397+597419994+601121494+605374475+610945245
3568+617090670+619485937+615881937+609934247+605833445+604761745+606336572
3558+609558179+612291804+612364244+609802200+606683019+605026264+605853760
3548+609159850+613005317+614462816+612806061+610003707+608418175+609799828
3538+614886022+621423572+624572253+622638936+619245078+617867987+618434431
3528+619637934+621159662+622311526+621313057+618054713+615337815+615794838
3518+619276889+623554077+626221040+626082668+624114621+622524832+622203930
3508+622411215+622730109+623747312+625933774+628718185+631050744+632409953
3498+632509338+630698823+627337140+625270743+627469734+633002551+637016133
3488+636537883+634392111+634131303+634646229+632544555+627890142+624270389
3478+623988718+626845387+631984315+637542312+639941837+637389464+632990265
3468+631074404+632065696+633194447+633221574+633916415+636427854+638589257
3458+637651976+634440770+631941009+630833667+629919924+629422332+630345259
3448+631528204+630241130+626192210+621862714+619200860+618628334+619835608
3438+622036971+624321541+626385566+628464250+630316733+631111689+630688848
3428+629749134+628608887+627223219+626057122+625727523+626373219+628019148
3418+630461552+632477041+632423578+630248003+627589556+625755258+625024410
3408+625424017+626769298+628469602+629996926+631066923+631311370+630428343
3398+628844819+627665584+627697273+628789105+630300068+631915950+633307700
3388+633596913+632524726+631440680+631448161+631694859+630865903+629050765
3378+627235931+626306740+626873062+629018042+632060039+634654015+635455600
3368+634539059+633724884+634457253+635830512+636178541+635751929+636287110
3358+638612369+641734896+644126270+645043845+644330635+642187905+639886123
3348+638991479+639632674+640769271+641448663+641141325+639820981+638639436
3338+639106556+640905393+641936281+640917558+638907665+638061801+639916960
3328+644347605+649298164+652716898+654348594+654569016+653410340+651268765
3318+648867842+646458525+644299920+643250603+643943132+645754134+647108782
3308+646828814+645146270+643445114+643108581+644649651+647375004+649642421
3298+650150171+649382768+648927083+649202915+649258507+648681967+648508682
3288+650031749+653125628+656227048+657555664+656098286+652424826+648816081
3278+647695906+649570529+652872848+656018973+658628094+660469994+660567797
3268+658485950+655821785+654574551+654089549+651796282+647343255+643514453
3258+642789261+644669540+646532424+646776385+646595072+648180725+651737770
3248+655052254+656252290+656147127+656802920+658522748+659310709+657321982
3238+653380232+650469126+650634808+652840976+653892057+652075398+649323527
3228+648400600+649064056+648680081+646121079+643211919+642214849+643394449
3218+645231179+646462782+647320628+648451630+649333988+648787738+647057569
3208+646072117+646727179+647333097+646058006+643341594+640440219+637779765
3198+635862323+635374219+635765188+635781671+635367771+635270516+635467643
3188+635232136+633946523+631393299+628015073+625140521+624361015+626132847
3178+629315223+632102859+633092143+631880794+629150940+626257169+624169058
3168+622835090+622035268+622042141+622837888+623461566+623242603+622630116
3158+621794410+620197079+617964756+615977368+614148119+611619467+609171832
3148+608948308+611116887+612972412+612363453+610346626+609124268+609148476
3138+609378873+608962236+607800397+606275445+605220593+605664235+607556679
3128+609106021+608417019+605518686+601968575+599217737+597945444+598030717
3118+598792889+599743794+600708628+601046195+599999737+598243293+597622048
3108+598789118+600241630+600046571+597838091+594633150+591320977+588261768
3098+586175116+586067277+587711685+589210483+588866104+587112336+585887120
3088+586169155+586775864+586054869+584335710+583539295+584361255+585320615
3078+584732397+582509319+579916378+578362292+578452857+579703984+581066843
3068+581691616+581174135+579600403+577696403+576403308+576117258+576780653
3058+578321297+580050371+580153709+577347218+572767618+568964301+567519575
3048+568126770+569379661+570085389+569933575+569293536+568762247+568797525
3038+569373031+569912044+569822452+569015028+567841875+566781610+566114444
3028+565669585+564981739+563982479+563209603+562955180+562711767+561814386
3018+560171620+558142325+556273115+555368617+556073859+557978772+559529817
3008+559396493+557813333+555884092+554083004+552222492+550482166+549484123
2998+549420989+549789271+549884216+549387232+548581937+547919271+547421314
2988+546920924+546724040+547161843+547765815+547863314+547531221+547172548
2978+546741679+545957002+544836949+543702358+542806862+542056125+541231062
2968+540436107+539814740+538966686+537420629+535368221+533328889+531764159
2958+531412907+532848389+535291888+536883502+536624457+535260686+533902875
2948+532755269+531579744+530430617+529405386+528484406+527905311+527903486
2938+528048975+527664574+526725772+525677854+524809060+524195843+523789060
2928+523305274+522356680+520918948+519606086+519086354+518986422+518128758
2918+516422919+515370135+515887738+516878908+516808110+515656915+514524393
2908+514025037+513656267+512582804+510797530+509095036+507938154+507113882
2898+506429259+505993463+505902533+506138039+506525268+506602908+506098595
2888+505454055+505194828+505102742+504624096+503658958+502485988+501379376
2878+500572348+500153491+499880457+499472852+499032007+498797778+498666553
2868+498326036+497677025+496830857+495904676+495027062+494369384+494058184
2858+494106629+494290862+494044255+492835735+490898829+489311534+489063285
2848+490040405+490980028+490645684+489094882+487424868+486386864+485760753
2838+485034984+484250307+483997892+484622057+485510953+485527072+484316513
2828+482676971+481470032+480777958+480238398+479629774+478935906+478244258
2818+477735231+477531170+477475517+477224349+476620864+475788807+474814485
2808+473653710+472430622+471474669+470847219+470134071+469042604+467989729
2798+467657727+468038113+468351868+467907101+466611908+464816020+463210447
2788+462541517+462768690+462921630+462336757+461452209+460949508+460853803
2778+460798332+460531989+459981298+459225057+458499348+457956078+457429960
2768+456751876+456194707+456169892+456484924+456337215+455147611+453152619
2758+451213463+450226459+450502170+451472295+452137059+451913140+450926805
2748+449624617+448376774+447357625+446584627+446016450+445636732+445348341
2738+444836425+443896042+442896843+442404117+442311301+441937270+441008961
2728+439940637+439179408+438844790+438861121+438950896+438679687+437880778
2718+436853570+435915681+435021067+434057085+433186222+432502451+431703117
2708+430630657+429756175+429542748+429714390+429678444+429341150+429045673
2698+428903195+428536676+427545354+426129822+424958312+424347316+424005126
2688+423622489+423164189+422572990+421796798+421138269+421096818+421789804
2678+422676054+422847879+421798562+420022412+418566159+417990318+418058410
2668+418273206+418312376+418007288+417325554+416501039+415914493+415663204
2658+415399171+414813386+414123806+413792960+413924003+414200747+414256005
2648+413917495+413237525+412351609+411330119+410319485+409689269+409705843
2638+410135587+410438820+410272652+409650038+408767680+407832771+407014794
2628+406469334+406269562+406288873+406347202+406486639+406841692+407291691
2618+407509041+407253433+406488798+405449030+404615179+404328885+404455883
2608+404648175+404752760+404726941+404390043+403599831+402606867+401961110
2598+401972971+402345876+402431028+401881919+401028300+400529795+400644994
2588+400962824+400912402+400365543+399626575+399056512+398852755+399003323
2578+399334777+399665927+399916943+400035670+399908520+399493707+398947974
2568+398419636+397886523+397445253+397490322+398198879+399036380+399256376
2558+398757111+398048403+397588186+397453433+397465172+397447016+397378469
2548+397273428+397027703+396605866+396242328+396210578+396536862+397080558
2538+397654118+397974077+397824757+397394617+397176415+397408090+397822020
2528+398065312+398145294+398244983+398323444+398202832+397890020+397539771
2518+397213639+396862995+396482669+396215991+396270671+396626637+396953347
2508+397051485+397163338+397514408+397844646+397791000+397469126+397309344
2498+397510090+397905347+398242124+398409235+398415165+398236680+397795593
2488+397162943+396697922+396817834+397521464+398217339+398267974+397734405
2478+397290762+397383487+397818067+398177804+398292242+398218220+398011818
2468+397682553+397364389+397360283+397806845+398403639+398702310+398552351
2458+398124462+397720780+397645360+397987823+398488761+398810240+398865467
2448+398744764+398484138+398089550+397692650+397508600+397610965+397850576
2438+398057861+398229655+398467260+398821584+399209543+399425434+399292110
2428+398844696+398316054+397976419+397999076+398352031+398804219+399148537
2418+399393532+399672922+400046496+400439321+400730237+400876638+400916690
2408+400897257+400927090+401188325+401660675+401983311+401892228+401612808
2398+401549795+401817659+402290710+402893191+403596091+404210524+404422826
2388+404120111+403513949+402802261+401866226+400482931+398658244+396518555
2378+394036372+391134511+387989206+385005691+382518581+380621788+379148901
2368+377713967+375990094+374101481+372595689+372007197+372553417+374183866
2358+376816129+380373266+384629319+389295804+394007451+397925814+399913629
2348+399366831+396696857+393187010+390281561+388725133+388363328+388489201
2338+388491452+388386836+388506931+388989074+389825541+390900069+391836316
2328+392226890+392024472+391606071+391605159+392475413+393944164+395219925
2318+395936601+396504596+397493728+399039360+400822536+402397515+403518237
2308+404197660+404547969+404735790+405040726+405709444+406733063+407881430
2298+408893249+409601623+410031367+410405276+410924825+411574870+412217160
2288+412750212+413117339+413308749+413388275+413391620+413237616+412863495
2278+412368366+411919189+411586883+411312876+410965698+410453174+409863222
2268+409430376+409315755+409502025+409886274+410362639+410833196+411251231
2258+411638704+412023652+412435727+412932498+413516611+414084119+414514198
2248+414684046+414424484+413722740+412940132+412507742+412426725+412347777
2238+412090527+411805267+411649622+411539258+411253026+410711550+410144437
2228+409921035+410153530+410573147+410858772+410926620+410839400+410629925
2218+410307838+409931283+409651498+409700521+410202280+410979688+411714063
2208+412285951+412795860+413337396+413981298+414876277+416072907+417287692
2198+418103479+418423651+418546453+418804251+419295244+419940301+420642562
2188+421333115+421900958+422181351+422156201+422141391+422523876+423253416
2178+423858361+424050713+424032162+424112904+424336185+424604901+424931824
2168+425416096+426084722+426814810+427368937+427575370+427557306+427687801
2158+428223195+429077605+430028571+430989938+431945374+432784274+433431156
2148+434013961+434692897+435473498+436385112+437631830+439337304+441341054
2138+443442698+445647893+447981182+450246197+452211020+453974093+455951750
2128+458471339+461501019+464764442+467950164+470825627+473315565+475453125
2118+477229398+478658158+479938146+481274121+482661491+484185896+486375156
2108+489928947+495223976+502225849+510636836+519926501+529330817+537973023
2098+545047274+550011883+552776710+553623000+552705182+549712695+544315879
2088+536845427+528188685+519118286+510003122+501045976+492536851+484858354
2078+478315299+473029424+469002886+466130373+464076505+462344329+460635874
2068+459021817+457670423+456610493+455820069+455265972+454737360+453939120
2058+452941837+452281209+452364963+452951387+453445907+453628406+453868809
2048+454669269+456214110+458359243+460874635+463718319+467268308+472233404
2038+479110559+487773414+497754605+508755492+520574265+532625777+543818165
2028+553049440+559978203+565216272+569446444+572574931+574152617+574175669
2018+572881236+570278623+566448727+561827524+556845763+551659028+546258745
2008+540568519+534590904+528641572+523172133+518292189+513806135+509718167
1998+506329236+503875883+502361058+501602901+501196026+500644210+499783718
1988+498889651+498336832+498385186+499142462+500425521+501751673+502729493
1978+503442489+504316758+505621075+507205816+508866676+510809512+513311523
1968+515969484+517899213+518823417+519379946+520292472+521758852+523577335
1958+525493135+527445733+529625869+532259684+535312324+538455713+541365481
1948+544084508+547032656+550426513+553669408+555732886+556487333+557124027
1938+558789906+561403041+564133807+566617267+569107235+571559432+573422438
1928+574646438+576153812+578688364+581709377+584215828+586258748+588384387
1918+590067600+590372809+589847421+589965904+591230716+592989897+594501164
1908+595544703+596283518+596904399+597376445+597613046+597830549+598443097
1898+599577383+600860746+601743530+602170993+602730017+603695641+604407087
1888+604323881+604018793+604183502+604594300+604679391+604293835+603613956
1878+602782933+601774306+600638013+600087505+601286872+604330085+607063831
1868+606536010+602514947+597703794+594340044+592650323+591764255+590879646
1858+589641900+588071757+586448333+585074708+584086093+583450736+583114751
1848+583307498+584434000+585975495+585933832+583141756+579156335+576003093
1838+574147082+572881661+571684971+571133368+572156896+574243973+575231676
1828+574002932+571704373+569186974+566042430+562460021+559630965+558125963
1818+557377416+556785244+556618042+557516457+559377577+561049781+561404379
1808+560611370+559849137+560121867+561709710+564094454+566018344+566389607
1798+565733449+566040909+568902809+573798992+577546961+577095594+573890592
1788+571836359+572715736+575672399+579190092+582608461+585655932+587878948
1778+589412233+591416165+595220334+600963050+606367166+608232300+606448973
1768+603397670+601005566+600557909+602539884+605448192+606765434+606460711
1758+606573599+607709588+609306676+612002408+617034166+623685333+628967316
1748+630975202+630836951+630568297+631267152+633084966+635342043+636802219
1738+637515428+639740391+645240424+651543076+653524200+650989770+647150933
1728+644123411+643340073+645256846+648497248+651710218+656079553+664001615
1718+674911602+682840051+682863650+678163134+674132157+673128275+675284933
1708+680084165+686307322+691841172+696110332+701389031+709208789+716768529
1698+720660404+721192118+718783287+714622696+712336424+714065680+718786693
1688+725042816+733613129+744663800+752312402+750918523+745149653+741176579
1678+741077133+744631867+750037078+755239687+760544235+766929485+772050408
1668+772557367+770758043+771348086+774632341+776801286+775682327+773722187
1658+773944130+778029787+787541881+801275268+809473041+807951556+806489312
1648+809857867+813724197+811571674+804993129+799733043+798243125+800617833
1638+806079791+811880472+812848834+807676697+801375079+797389475+795623482
1628+795174548+795913182+797740362+798959193+797406749+794249067+793019897
1618+794659013+795612108+792108587+786014557+780910299+777708338+775699965
1608+774119604+772616244+771199618+769978415+768797904+767457245+766351667
1598+766212139+766940919+767392225+766851935+766101259+766285005+767261760
1588+767679674+766639299+764732987+763128844+762370382+762696940+764695703
1578+768395073+771527453+770898423+767808497+766504028+768369467+770983940
1568+771178938+769122819+767095166+767046386+771101145+781370789+795232816
1558+800316395+792691270+783062822+776798549+773955686+773204766+772822859
1548+772569775+774405046+780156460+789905825+802802957+815499374+818941099
1538+810935771+802352259+799655737+801057948+801761912+800560538+800600560
1528+804174088+810868865+819332860+829035452+838558981+843926542+843586602
1518+841052416+839182537+838701793+840515593+845631408+854113466+865642813
1508+878864862+887217793+884350297+877227753+874159602+876260182+881453424
1498+886672090+888876130+887984588+887856191+892144631+900889932+909876881
1488+913530513+911094556+907181332+906470008+910016774+915526721+920588951
1478+925082365+929851489+934919254+940037562+944534017+947044422+947748143
1468+948412998+950147972+952354140+953671382+954607021+957548173+963486800
1458+968487599+965478264+956628652+950093718+948163442+948971596+950098462
1448+950590276+950804737+950419546+948955174+947502966+948010959+951881242
1438+959419937+968667331+975364237+977794173+978522710+979758753+981322692
1428+982870696+985278736+988659820+991294425+992581316+994974394+999646019
1418+1002357747+999400233+994123420+991212193+991644461+993360215+993520118
1408+991395331+989610543+991315166+996472705+1002029912+1005177741+1005373469
1398+1004321719+1004284252+1005374564+1005338860+1002969139+999612262+996641306
1388+994365435+993178537+993487395+994529839+995230215+996091650+998674738
1378+1003174052+1008047791+1012024575+1014800898+1016441352+1017541456
1370+1018951270+1020677364+1022227861+1023726051+1025672871+1028267698
1361+1031633273+1035871778+1040311850+1043801260+1045648452+1046517246
1352+1047971644+1050213941+1051430642+1049671401+1045420731+1041874877
1344+1041947013+1045404065+1049128860+1050371107+1050087064+1051818328
1335+1056917963+1062811460+1066825893+1069635304+1072448606+1073741823
1327+1071508892+1066584062+1062084626+1060290350+1061358887+1064251016
1318+1067200198+1068643647+1068822710+1069081693+1069860348+1070112034
1310+1069122323+1068253285+1069266473+1071372771+1072288642+1071875411
1301+1071554510+1071131790+1068654717+1063613592+1058657985+1056386006
1293+1055497992+1052196403+1045348595+1038098018+1033760371+1032271670
1284+1030758031+1026942123+1021257128+1015279392+1009935187+1005007011
1275+999448709+992776862+986238643+981675647+979233425+977035529+972788752
1265+965595774+956731139+948156204+940367101+932721600+925630683+920457148
1255+916954235+913022216+907674544+902095624+897106747+891840821+885409103
1245+877868644+869359215+860072651+850850986+842534853+835181850+828630432
1235+823269987+819692931+817834426+816758165+815428272+813512472+811254483
1225+809067534+807493194+806949559+807270461+807973391+808977212+810500279
1215+812388100+814173131+815794974+817888255+821181937+825502431+829648546
1205+832755502+835266272+837907142+840609868+843323543+846606764+850556178
1195+854566658+858290662+861615364+864248691+866340574+868591508+871241501
1185+874137219+877616046+881985381+886792398+891767286+897439874+903870254
1175+910356226+917013659+924686104+933059411+940628213+946517696+950697202
1165+952936337+953129875+952106165+951252272+951610337+953450960+956447096
1155+960141236+963808432+966117452+966349126+965860232+966582382+968488146
1145+970174522+971171896+972000365+972718258+973174855+974194856+976227435
1135+977088019+974276237+970107374+969987553+975632709+983460374+988985466
1125+990844153+990419609+989367677+987844976+985390771+983747884+985743605
1115+991919563+1000356978+1008647079+1014957821+1018001764+1016820462
1107+1011999273+1007262385+1006568639+1009717380+1012128157+1010615795
1098+1008055090+1008527380+1011068804+1011685670+1008684303+1003824917
1090+1000290742+1000343049+1003102950+1004094850+999236985+989280275+978662846
1080+971355399+967902118+965805674+963002224+960831819+961974378+965221348
1070+965355341+960605193+955387683+953110108+953385818+954938566+956131790
1060+954685239+950200036+945344787+942838031+942401870+941575044+939309573
1050+937377472+937463597+938586206+938811372+938617834+940280550+944231302
1040+947864923+948454175+946796508+946097592+947625646+949464322+949496072
1030+948235274+947704959+948659331+950148337+951159396+951778086+952618781
1020+953693704+954529654+955385189+957113289+959614023+961328560+960512317
1010+956237622+948259359+937757555+927578111+919563720+912811100+905852412
1000+898887277+892376184+885609940+878044422+870225029+863047378+857525145
990+854637273+854082386+853803452+851662486+847366928+842529987+839162587
980+838055002+838147270+837550902+835284093+831699434+827597537+823758456
970+820968448+819492398+818322834+815709578+811111123+806009176+802344961
960+801109587+802537648+806278621+811034060+815194712+818180691+820577540
950+823372656+827835416+834946587+843502667+850006521+852397470+852761555
940+854693838+859571227+866047711+872125501+877590257+884209979+893188170
930+903043853+910810209+915235379+917384557+918132070+917336993+915333000
920+912984202+910453421+907499070+904588390+902580687+901622239+901248118
910+901036758+899894869+896521570+892062277+889952574+892245415+897503130
900+902335084+904611807+905255739+906919854+911107207+916403301+919626124
890+919506242+918415018+919182360+921728711+924010787+925201943+926175900
880+927612415+929637940+932060273+933848892+933818541+932272241+930228530
870+927598365+924527903+923442153+927093048+934876191+942419570+945836601
860+945583942+944996150+946853620+951213102+955330448+956537722+954857003
850+952117843+950022494+949819224+951846695+954247253+954261607+952248552
840+952126784+956386151+962597934+966659749+968041098+969202937+970718157
830+970842905+970223485+971700569+975158290+977352903+976968928+976345067
820+978192989+984309340+993529789+999698326+998869371+995944519+996785457
810+1000361053+1002599518+1002472885+1001379411+1000690226+1000672466+999505335
800+995727685+990976504+986586550+981779046+977383192+975754963+976994291
790+978207039+977073665+974477865+972092086+968675542+961244503+949974626
780+938940378+931377049+926928401+923633624+920530987+917812507+915832964
770+914728116+913984617+912602599+911483883+914412871+924033899+937971043
760+950670684+958026363+959237833+956683150+954232595+953746681+954673622
750+957034645+961710710+967482439+970785367+969161699+963877344+959907798
740+961994753+969476214+976447371+978525447+978409883+981304871+986752475
730+988664321+983837658+975865235+968456214+962554689+958174710+956050652
720+956713318+957873941+957783984+959085898+964497373+971366530+975271664
710+976887364+977822030+976290630+972256369+968847610+967088976+965148360
700+963069920+962826446+965180657+969335409+973217979+973288959+967895549
690+961360127+958868517+960075973+960915086+958186753+951313947+942921359
680+936519139+934310599+937381851+944418332+951724076+954281618+947543291
670+931768140+916745430+916523669+930463793+946020286+952637027+946558508
660+934807522+927099496+927062090+932297604+935492327+930246899+920943609
650+917449211+921136844+924642250+922269123+916740868+914930657+919503019
640+925376930+924739019+916530542+906282247+898052908+893422399+894297823
630+897941906+898398078+896679040+896370303+893458467+883453464+871688489
620+866205973+870708936+883011281+895804893+902067646+901699484+899532486
610+897972804+897810285+897582747+893925587+887714777+881415349+875480736
600+870861784
##END=
