##TITLE=<SNM>
##JCAMP-DX=4.24
##DATA TYPE=INFRARED SPECTRUM
##DATE=29/4/2025
##SAMPLING PROCEDURE=Instrument type and / or accessory
##ORIGIN=Admin
##XUNITS=1/CM
##YUNITS=ABSORBANCE
##RESOLUTION=4
##FIRSTX=4497.3318
##LASTX=599.83466
##DELTAX=-1.4281778
##MAXY=2.2125378
##MINY=0.67331254
##XFACTOR=1
##YFACTOR=2.0605864e-09
##NPOINTS=2730
##FIRSTY=0.69512665
##XYDATA=(X++(Y..Y))
4497+337344099+334305995+333036922+333495053+334622330+335499050+335643681
4487+334932476+333799297+333212388+333961254+335664450+336756437+336016191
4477+333842802+331772275+331283048+332978029+335967971+338235803+338512567
4467+337286507+335709516+334729357+335191942+337162096+339218161+339669725
4457+338431979+337075376+336890886+337165596+336328852+334683393+334111670
4447+335295989+337113934+338445951+338897226+338077809+335905635+333349352
4437+331803717+331936835+333381345+335158793+336367150+336699077+336218615
4427+335009477+333635518+333187251+333980345+334960650+335290465+335532778
4417+336288211+336872344+336324369+335103544+334816714+336210227+337938443
4407+338062102+336696184+335938177+337125910+339368837+340782048+340479713
4397+339118829+337736308+336445887+334819924+333452647+333616890+335225497
4387+336567753+336210863+334252077+331957459+330976056+332316895+335336457
4377+338154116+339393742+339045501+337644872+335644896+333878121+333458722
4367+334598466+336281992+337471923+338094846+338532150+338683289+337992650
4357+336414358+334875665+334357570+334872309+335670640+336072134+335680822
4347+334250110+331995613+329748550+328335598+327995862+328619884+330177726
4337+332384495+334183435+334355025+332821163+330866947+329983892+330683411
4327+332371333+334196452+335630577+336092555+334957757+332660478+330785896
4317+330362824+331044958+332032494+332864986+333435697+333864468+334475444
4307+335494017+336628237+337244941+336951196+335874424+334393034+332831952
4297+331524639+330814793+330707188+330711585+330398171+330167283+330987626
4287+332963652+334676769+334714981+333316087+331574623+329963008+328496977
4277+327357174+326757740+326844402+327809202+329528162+331350041+332657325
4267+333323319+333449986+333139262+332620879+332160029+331868743+331679972
4257+331583359+331891884+332921681+334239205+334865425+334536102+333935134
4247+333578939+333459300+333749602+334698435+335722128+335728029+334650013
4237+333718536+333904588+334880553+335676685+335708417+334878442+333366130
4227+331923384+331770713+333289996+335188442+335825973+335007076+333734705
4217+332773463+332254761+332066019+331918959+331671294+331735770+332417442
4207+333216726+333689002+334374463+335784146+337080525+336855422+335036262
4197+333049707+331974728+331527329+331174720+331169311+331770684+332391958
4187+332400375+332096941+332173711+332672512+333057199+333088381+333113374
4177+333335844+333356642+332996802+333014418+334195584+336070311+337248180
4167+336979197+335949169+335466306+336043931+336926031+337013301+335979802
4157+334280106+332554146+331357764+331022135+331465948+332272898+333059455
4147+333622357+333887580+333911328+333791719+333632915+333643444+333952576
4137+334449353+334955009+335356734+335582849+335566737+335251443+334528263
4127+333341224+332058845+331445295+331960815+333261301+334473159+334804275
4117+334141926+333327340+333312182+333828570+333738321+332910284+332603060
4107+333654725+335326362+336407097+336698903+336723953+336611489+336115985
4097+335390867+334868549+334457134+333806963+333269285+333562364+334637632
4087+335700376+336178263+336170800+336107221+336183528+336071468+335252687
4077+333835195+332756571+332755732+333326645+333185631+331952050+330720002
4067+330590269+331399244+332314060+332990814+333518946+333753073+333437230
4057+332784311+332395111+332605606+333195553+333723135+333956337+334031342
4047+334327690+335024113+335638098+335298853+333787206+332017626+331127657
4037+331294040+331811354+332166392+332466182+332860126+333270269+333735284
4027+334330409+334783998+334773064+334528205+334697104+335602750+336822360
4017+337605967+337704894+337444588+336919117+335817440+334267639+333106547
4007+332973776+333640638+334424013+334985208+335554588+336213119+336305393
3997+335301746+333930593+333462280+334112885+335054688+335705727+336172883
3987+336540013+336443804+335702690+335009650+335289336+336404031+337254197
3977+337137365+336281500+335263101+334635463+334771676+335501798+336154688
3967+336253442+335997417+335977285+336485747+337130885+337416906+337657311
3957+338569320+339995288+340955894+341074577+340938741+340852396+340385125
3947+339501086+339037922+339543203+340379571+340384720+339250645+337841222
3937+337076851+337234874+338368544+340501986+342789777+343604132+342576852
3927+341115363+340254263+339576063+338607329+337883107+337978534+338674090
3917+339353593+339480173+338818171+337707034+336887762+336905002+338000403
3907+340505399+344570668+349126117+352198585+353236019+353188898+351949272
3897+348756616+344773555+342391870+342414317+343057574+342330287+341150826
3887+341733108+344216468+346638389+348106965+349528103+350213708+348273695
3878+344834849+342966747+343719200+346227119+350077958+354638470+357126834
3868+355956110+353661752+352910861+352965357+351535311+348510802+345900167
3858+345869795+350078566+358441871+365145687+362568809+353998365+346391679
3848+342658597+343013289+346183729+350126380+353485506+356440100+359187469
3838+360260857+358318414+354813299+352022917+350184117+348271121+346416295
3828+345748334+346555950+348682334+352791541+358294550+361123027+359439096
3818+357065684+356250374+354723917+350880830+346844372+345231541+346844574
3808+350295048+353030239+354579981+356730749+359627492+361013513+360159211
3798+358307914+355481173+351541241+348231203+347263481+348248240+349743226
3788+351204512+352976668+354996921+356857619+358926527+361975941+365591756
3778+368203114+369139277+369608284+371767470+377152519+385013320+392257968
3768+396442180+397705873+397285780+396853480+398330531+401980653+405377209
3758+406308801+406309235+408848394+415719432+425191097+432010791+433495074
3748+434076806+438058507+444235060+447159832+445262253+442802179+443641729
3738+449803355+460564920+470739401+474588679+472482341+469287689+468620567
3728+471163052+475416832+478932071+480343171+480112081+479338656+478943555
3718+479319941+480267212+481867343+484439217+486405813+484496259+478741593
3708+472938360+469940550+470300506+473108243+476382326+478255057+478555020
3698+478104786+477808323+479090644+483515724+491032536+498513452+500815619
3688+496348047+489428586+484449949+483031849+485220365+490043034+495866428
3678+501394603+505265836+505614279+503735126+503387146+504503634+502467239
3668+495588969+488428439+484958961+485075475+486561956+488133740+489812725
3658+491186423+491433047+491173175+492353474+496274806+502665672+508450537
3648+508662970+502549679+493920861+486286869+481340513+479375681+479632429
3638+480928201+482489340+484169829+486138074+488795742+492275258+494826941
3628+493750198+490165680+487583914+487926167+491553321+497387650+502159061
3618+502616961+499848158+497552470+497325632+498386814+500075575+502229120
3608+503602529+502790806+500554070+498830192+498571015+499523261+501266114
3598+503666456+506504623+509290608+511594568+513325157+514835328+516688852
3588+518592881+518930448+516743233+513394521+511160272+511056428+512143932
3578+512608716+511534171+509820186+509488404+511955566+517003047+522840789
3568+526619805+526216402+522625984+518915118+516727324+515328286+513527234
3558+511655429+511255671+513027739+515785376+517695132+518218462+518259827
3548+518601501+518842860+518133651+516896599+516569272+517489526+518177445
3538+517306887+515322964+513191113+511383177+510608595+511539551+513402852
3528+514568746+514814502+515129738+515612109+515409164+514122417+512030310
3518+509768177+508225550+507784312+507798717+507514490+507058962+506983349
3508+507430546+508267030+509251268+509891113+510105339+510514296+511028312
3498+510398649+508262055+506268991+505986152+507078516+508203913+508329857
3488+507193237+505500657+504733828+505782571+507617698+508376081+507614516
3478+506458110+505873051+505911465+505865415+504648206+501978562+499071436
3468+497576884+497877715+498959202+499829183+500284710+500382365+499867192
3458+498415566+496446454+494925116+493954300+492653784+490745359+489054225
3448+488200733+488077566+488613450+489544059+489808733+488856487+487799702
3438+487609022+487581137+486929259+486244406+486057601+485676298+484783813
3428+484427589+485377723+487015459+488245453+488519614+488154220+487951795
3418+488067847+487535607+485794779+483956730+483177896+482957711+482481068
3408+482163344+482449972+482837842+483137458+483872064+484844240+485066247
3398+484404679+483810596+483838944+484123778+484246222+484187271+483969660
3388+483559778+483049349+482459604+481678369+481103666+481520288+482697058
3378+483291431+482643198+481561537+480995830+481200569+482355847+484747916
3368+488015259+490893460+492323564+492855515+493993003+496098589+498019742
3358+498726174+498369227+497708035+497295144+497394303+498178893+499518459
3348+500681055+500669600+499356010+497969237+497729035+498584668+499845266
3338+501197675+502350378+502475744+501147806+498927962+496460801+494229271
3328+493111684+493709875+495288428+496498115+496758045+496169226+494957918
3318+493605799+492730670+492441872+492325069+492050676+491638537+491329607
3308+491240573+491156166+491049082+491451328+492495964+493129097+492273349
3298+490383725+489141929+489669309+491256598+492233373+492184951+492317721
3288+493487723+495244460+496844939+497946733+498401045+498289911+497953212
3278+497694671+497707745+498076900+498593461+498881449+498925533+499063568
3268+499186041+498587503+497170241+496153259+496520331+497329161+496963247
3258+495579308+494730733+495159938+496084820+496148978+494778230+492915854
3248+492050618+492433541+492894565+492672181+492620809+493823612+495715434
3238+496592762+495883147+494802528+494434588+494283999+493311042+491519304
3228+489735781+488381868+487303505+486651800+487042823+488575210+490285087
3218+490911857+489955851+487959200+486017741+484917538+484584513+484436701
3208+484202776+484216082+484772764+485342491+485022135+483926358+483149896
3198+482957653+482345578+480898031+479577441+479303279+479991517+481045033
3188+481753490+481337736+479596387+477439747+476164918+476102640+476246258
3178+475573987+474454317+474016608+474442544+474748293+474164131+472937377
3168+471641258+470327031+468648510+466619376+464864403+463981001+463927054
3158+464175644+464247786+463984443+463511936+463118802+463022594+463105264
3148+463033123+462673572+462004715+460623177+458107478+455079122+453040008
3138+452774149+453600711+454430860+454803919+454659636+454167257+454070672
3128+455031162+456392683+456575525+455034894+452930465+451617714+451350697
3118+451587168+451876833+452017964+451682913+450630814+449328390+448526039
3108+448114652+447260523+445808985+444654256+444538957+445282010+446318199
3098+447354678+448206058+448454013+447839392+446847893+446333819+446522244
3088+446784574+446514607+445888387+445500604+445522617+445568609+445271539
3078+444619632+443742218+442749938+441813312+441100285+440695205+440694424
3068+441052441+441321945+441080384+440536776+440139737+439748628+438915731
3058+437930510+437718597+438511403+439365300+439341378+438512242+437453432
3048+436494794+435814858+435553366+435461468+435021358+434115336+433201619
3038+432857486+433263492+433952742+434090083+433256839+431858149+430545658
3028+429522051+428663873+427984024+427610588+427512818+427502000+427441342
3018+427408916+427686577+428484444+429538423+430113560+429686235+428635843
3008+427927357+427980176+428190093+427734912+426506162+425026507+423866457
2998+423371821+423546419+423986297+424189040+424020112+423712946+423456372
2988+423103821+422277201+420869486+419427464+418693899+418771131+419117521
2978+419402385+419793668+420249108+420317287+419857392+419272883+418907286
2968+418737780+418616782+418416006+418076009+417705235+417380193+416897851
2958+416166397+415665485+415929117+416692476+417146441+417030911+416877718
2948+417042018+417095069+416534279+415594876+414901750+414631957+414398784
2938+413762179+412696138+411707445+411385151+411678288+411888985+411581935
2928+411116891+411008997+411145238+410995401+410387202+409686989+409280578
2918+409209767+409298743+409365794+409338227+409328219+409483899+409725808
2908+409778019+409478692+408959904+408385143+407644838+406601186+405540207
2898+405015604+405209669+405718247+405980722+405755793+405264513+404962177
2888+405049852+405247041+405198330+404967587+404861052+404872912+404650991
2878+404075709+403540086+403450502+403697038+403826627+403595161+403203357
2868+403047272+403257738+403494411+403359500+403010449+403017305+403513040
2858+403940162+403802474+403210502+402452755+401572014+400661219+400022069
2848+399713197+399384250+398770786+398017522+397438856+397208489+397288152
2838+397527891+397807201+398027155+398039477+397804279+397546606+397476373
2828+397426939+397037623+396276144+395598002+395499335+395962702+396434977
2818+396352075+395621635+394630223+393884972+393647373+393828595+394139290
2808+394235035+393818789+392939755+392176194+392081779+392494554+392867526
2798+393161271+393796979+394755878+395327919+394962178+393978114+393133617
2788+392741553+392486744+391984414+391253510+390628476+390378005+390430853
2778+390413700+390033554+389437301+389036848+389022443+389223479+389340341
2768+389146189+388603420+387906968+387295962+386813476+386361737+385937421
2758+385682264+385694645+385801729+385623226+385050664+384551805+384691691
2748+385411690+386075254+386214301+385957496+385670029+385429364+385014795
2738+384278569+383371824+382638896+382340234+382403756+382429384+382087912
2728+381520932+381175989+381251804+381464787+381425274+381095951+380743863
2718+380591509+380672415+380843137+380773281+380188251+379301436+378680451
2708+378532176+378470072+378126749+377647183+377385663+377392084+377459685
2698+377481611+377484735+377444788+377257376+376837659+376253150+375839276
2688+375999757+376693260+377338079+377423498+376970747+376299634+375657070
2678+375166427+374905485+374869009+374857554+374603525+374165382+373957028
2668+374181003+374525252+374593315+374342931+374004987+373814336+373826051
2658+373867531+373738376+373466847+373250914+373201711+373272261+373359531
2648+373340672+373043312+372354524+371462271+370835646+370795323+371209255
2638+371716849+372087797+372240990+372130608+371809528+371443035+371139659
2628+370918288+370858411+371033992+371245239+371121146+370633221+370207777
2618+370204450+370539183+370835704+370787889+370437074+370116631+370028927
2608+370029592+369954703+369898702+370025311+370355676+370795410+371159502
2598+371221896+370907643+370367159+369841573+369573949+369768303+370401408
2588+371091294+371337253+370917536+370046688+369223163+368873128+369020854
2578+369342801+369559631+369640016+369685054+369832577+370145354+370396780
2568+370229905+369680079+369175608+368968960+368984349+369144773+369397240
2558+369523675+369305168+368806859+368334062+368213354+368588670+369222873
2548+369564259+369252465+368526478+367954176+367834249+368025884+368255268
2538+368363509+368311645+368170977+368099009+368154952+368197502+368113906
2528+368033434+368152667+368466197+368811198+369053887+369107343+368933931
2518+368691357+368706861+369120880+369674612+369981806+369884644+369489282
2508+369013478+368649183+368470738+368457287+368568566+368686526+368599835
2498+368274764+368045149+368298310+368999535+369689566+369956004+369787510
2488+369428769+369041305+368666423+368380170+368244825+368220325+368309851
2478+368617856+369113533+369542304+369685256+369570304+369429724+369498741
2468+369740505+369820630+369540973+369135459+368923836+368917385+368959097
2458+368976105+368937055+368801884+368618463+368491478+368414853+368294463
2448+368163138+368187320+368395848+368605447+368721614+368888662+369205981
2438+369529287+369681583+369661624+369580284+369559833+369678951+369889677
2428+370053948+370112986+370126523+370161784+370259323+370439301+370629548
2418+370679272+370541092+370383184+370464611+370872035+371363026+371574331
2408+371453044+371336356+371531896+372001829+372516828+372953438+373361643
2398+373808956+374245768+374636964+375217134+376428037+378620487+382061213
2388+387196370+394616743+404730306+417583283+432923640+450368657+469580623
2378+490245343+511821349+533453471+554254895+573712414+591969444+609539422
2368+626126493+639773808+647962081+649665363+646044572+639622698+632309322
2358+623521817+611169695+594170023+573222233+551215692+533048738+522936939
2348+522522602+530904854+544316364+556716098+563899480+566519544+567961682
2338+570663955+574345490+577714971+581013525+584940296+588103129+588135931
2328+584944461+580681917+576936397+573318673+568559410+562332671+555423450
2318+548499940+541781226+535509478+529707084+523794944+517193670+509888625
2308+502030398+493685750+485246023+477401189+470514038+464378734+458513252
2298+452471813+446121531+439797455+434009987+429013560+424784657+421191085
2288+418031550+415191300+412822805+411078651+409723118+408340712+406867190
2278+405599592+404713037+404033159+403327942+402631431+402100841+401642912
2268+400978423+400105550+399372621+399008905+398867138+398679264+398321738
2258+397811916+397244676+396748160+396386584+396113088+395844105+395541423
2248+395236108+395009733+394908058+394858507+394759204+394629528+394527101
2238+394380070+394120922+393921100+394039582+394482642+394987402+395247273
2228+395072560+394498407+393804239+393286202+393042356+393051496+393243218
2218+393377377+393130175+392466033+391725121+391278068+391241708+391477022
2208+391725150+391792866+391659459+391373409+390959101+390523127+390274450
2198+390304302+390499610+390754217+391101330+391582891+392125139+392591340
2188+392893010+393059364+393241049+393587062+394064429+394465547+394675550
2178+394864350+395297778+395998396+396683799+397027557+396966610+396774020
2168+396790334+397066694+397364459+397492254+397486642+397490605+397644376
2158+398024349+398484128+398675098+398447161+398097358+398038580+398353238
2148+398788778+399092328+399272103+399530529+399939948+400308553+400500015
2138+400689104+401068527+401527121+401870560+402136448+402472309+402899489
2128+403318309+403596867+403666579+403637017+403710691+403951935+404314928
2118+404824200+405463437+406000305+406229428+406287714+406486523+406952956
2108+407588895+408212483+408637609+408831761+409057587+409615455+410428277
2098+411142288+411610051+411969544+412304653+412568863+412784218+413002378
2088+413149699+413196559+413369710+413906520+414672482+415280942+415551429
2078+415634129+415713618+415800222+415831665+415816913+415832562+415978870
2068+416361041+417016621+417830716+418594740+419159174+419478547+419591908
2058+419665004+419918802+420382978+420887102+421380407+421990891+422687575
2048+423228811+423552320+423898709+424476883+425256354+426102788+426922408
2038+427673502+428361914+429046246+429806886+430681003+431616009+432535973
2028+433484401+434603203+435889487+437104005+438113264+439229666+440856670
2018+442777678+444268267+445085313+445837390+447149679+448966322+450841627
2008+452499554+453922397+455185627+456401216+457722501+459276640+461035605
1998+462817334+464570051+466559586+468970804+471397787+473131818+473943830
1988+474197222+474378965+474864257+475801230+476974876+478069178+479084830
1978+480232413+481614992+483299877+485407748+487911935+490621381+493373175
1968+495938570+497940889+499268306+500332554+501621846+503260565+505158636
1958+507329247+509855939+512629890+515304451+517616511+519735461+522152175
1948+525157940+528575438+532066929+535442369+538469481+540749780+542173000
1938+543179396+544307802+545772097+547567248+549701181+552158855+554757746
1928+557304280+559985726+563216015+566871459+570269866+573203142+575975011
1918+578205210+579161447+579479750+580668264+583056920+585648463+587652692
1908+589193063+590579720+591784201+592769076+593781083+595040987+596425156
1898+597677076+598669472+599393606+600159742+601646657+603959701+605944896
1888+606464293+605905962+605341094+605225505+605573370+606321976+607192651
1878+607819826+608093582+608233179+608757146+610266334+612863258+615638424
1868+616931361+615748864+612847117+609883469+607978340+607224932+607129129
1858+607182064+607022450+606468169+605665239+605087470+605114776+605623817
1848+606374795+607576037+609045018+609067233+606267133+602122722+599047998
1838+597740251+597190713+596377371+595640219+596021985+597419056+598153604
1828+597208243+595537647+593954524+591874219+588902587+585955658+584122556
1818+583439670+583030829+582207014+581169205+580496790+580265208+579979881
1808+579331591+578733110+578999462+580513799+582626500+584054059+584157152
1798+583588234+583601482+585213589+588485184+591557190+591733118+589189823
1788+586737009+586149579+587074113+588449490+589889082+591410592+592867251
1778+594388646+596684450+600422449+605237307+609071919+609755442+607727494
1768+604912872+602739137+602426388+604689332+608349404+610896459+611732596
1758+612357919+613304496+614204791+615901882+619812454+625398829+629671323
1748+630622644+629650381+629186754+630248340+632357976+634348262+635276326
1738+635936534+638806404+644952498+650694957+650959168+647282955+643525402
1728+640806641+639435893+639938628+642044908+645045756+649347003+656222496
1718+665300361+672271079+672541306+667283590+660901112+656749355+656270166
1708+659063845+663088212+666197995+668983690+674179678+682277529+689041656
1698+690932264+689195022+684855188+679141944+675229868+674819118+676941712
1688+680441765+686092702+694076179+699434558+697411701+691918527+688246479
1678+688271992+691596059+695841421+698376848+699728910+701903918+704052662
1668+703535464+701315099+700866861+703173425+705670612+705744200+704580562
1658+705244299+709725872+718649966+729258714+733209494+729921179+728079515
1648+730130372+731756885+728664862+723276574+719866134+719889159+723529850
1638+730545866+738768099+743014271+740894569+737282167+737140834+741476504
1628+748224896+754665514+760111655+764948034+768496163+770552227+772878229
1618+777152980+782777190+787263390+789645220+790916347+791664375+791788062
1608+791378932+791023720+791601027+793714249+796884314+799653868+800929854
1598+801057881+801383126+802757114+804616076+805888128+806531559+807397779
1588+808993225+811100199+813336357+815230262+816082597+815999984+816673672
1578+819838126+824741382+828125095+829204094+830650918+833508871+835958677
1568+836793020+837757820+840349074+844282497+849911335+859314445+872137194
1558+879392370+875606990+868041148+862048363+859070483+859263998+861344360
1548+863681239+866429735+870990681+878275651+888751628+900279415+903433571
1538+894130429+882915622+876654172+873909494+870853802+866984421+864813116
1528+865747890+869364805+874895236+882086949+889739222+894440517+894100635
1518+890693956+887167811+885852196+888237150+893756184+900219018+906256581
1508+911575794+913892598+910748393+905382435+901623667+900376260+901937457
1498+906551569+912500386+916405810+917773144+919373334+922700120+925813027
1488+926486252+925864458+925511502+924892600+923865320+924173556+926980772
1478+930799417+933323678+934461919+936321807+940020698+944098231+947227915
1468+950118612+953881776+956905302+955068439+948325948+942051596+940523086
1458+943639116+947167633+947393661+945222992+942391651+939944506+939097725
1448+940074211+940780990+938579081+933667436+929134722+927777454+929791633
1438+932887416+934022995+932746488+932035138+933500475+935197682+934748518
1428+933287810+933824331+936569472+939184272+940965365+943737465+947433695
1418+947975769+943431601+937327219+932890135+930526008+929578332+929445272
1408+929663722+930016157+930182077+930197755+931281325+934218535+937181952
1398+937442865+935393685+933351390+931594189+929617903+928827643+930783276
1388+934484308+936887022+936734466+936304104+938089363+942190210+947188980
1378+952105427+956677480+960214790+961740640+961718077+962016363+963211356
1368+964188652+964567757+965926993+970016501+976129330+981439460+984271437
1358+985128805+984801710+983762223+982600089+982047254+983286563+987448328
1348+993669745+998844849+1001087776+1002166949+1004639433+1008215620+1010850205
1338+1011972652+1012804681+1014563501+1017982677+1022580532+1025487717
1330+1024251996+1021164081+1021054046+1025089694+1030480239+1035140575
1321+1039438987+1043465379+1045641081+1045838357+1046564748+1050178539
1312+1056572818+1063074586+1066981109+1068113737+1067980793+1067754939
1304+1067598391+1067258105+1066657137+1065659535+1064276522+1063268854
1295+1062985263+1062804417+1063145629+1065636625+1070169686+1073741823
1287+1072737742+1066915504+1059306562+1052751107+1047868619+1043407758
1278+1039344804+1037167250+1036164904+1033863663+1030154763+1027208355
1270+1025843970+1024891956+1023131516+1020108395+1016792081+1015251363
1261+1015829537+1016995142+1017934313+1018796772+1019230895+1018231788
1253+1014826034+1008309803+1000301912+994754010+993414270+993080348+988887921
1243+979568985+967589952+955973420+946539822+939534335+933860430+927971837
1233+921008061+913357755+906211456+900435500+895766892+891144971+886004463
1223+881366805+878911156+878159889+876298844+872186079+868134116+866339312
1213+865989076+865341595+864523045+864442746+864907588+865330487+865902471
1203+867118002+868801094+870208693+871255759+873155102+876987284+882168578
1193+887444749+892826963+898938982+904703251+907580122+907043254+906185654
1183+908300149+913148215+917835220+921159807+925179662+931674662+938893623
1173+943596479+945719594+948086498+952445424+958302083+964658122+970838985
1163+975754448+978867818+981444320+984402877+986464264+986792517+987027512
1153+988217183+988851936+988360193+989755587+996038905+1005329262+1011984801
1143+1013230704+1011866667+1011926023+1013668413+1014065742+1011710235
1134+1009128757+1008494930+1009753097+1011586200+1013148554+1014666941
1125+1016054929+1016922016+1017219839+1016875388+1016202683+1016508258
1117+1017864543+1017886874+1015905670+1015647997+1020035849+1026466806
1108+1030546885+1031981270+1032713562+1033135652+1034108840+1037621736
1100+1042543679+1043246466+1036867345+1029095722+1028216486+1036824418
1091+1049453073+1057521246+1058467822+1056498304+1054528208+1050716448
1083+1043024314+1034110228+1028799519+1028361347+1029497216+1028465134
1074+1025120472+1021336712+1018712655+1019028875+1022413802+1025044801
1065+1022499424+1016027854+1011455107+1012232061+1016438836+1019094364
1057+1017439909+1014255612+1014848481+1020614139+1026180554+1025152985
1048+1018173473+1011592216+1009319785+1009466151+1008323109+1004569432
1040+999765276+996477193+995574121+995802174+995589510+994476667+993506140
1030+994528849+997901281+1001190405+1002309149+1001975111+1001327168+999218921
1020+995277109+992224831+993559711+1000183315+1008355043+1012161134+1009409687
1010+1003326884+998220509+995312861+993125588+989719255+984501110+978632707
1000+972979397+966405777+957625734+948309113+942084630+941208112+943487891
990+942518637+934668856+923937172+916468753+913873854+913323506+911623290
980+908313686+904742764+901424425+898014563+895109519+893524023+892239822
970+890022061+887872508+886900997+885518042+881750596+876377234+871638162
960+868729878+867578042+868198737+870802545+874661224+878004324+879649523
950+880131200+880669514+881624074+882571055+883742213+885982768+889218032
940+892893782+898025034+906273184+916005531+922327842+922801130+920544145
930+920449036+924536867+931715852+940000334+947510638+952358704+954431082
920+956396897+959871033+961946478+958742511+951349416+944327094+940426646
910+939817521+942071845+946918522+953297528+958407027+958836000+953664079
900+946230776+941673764+942420982+946138039+948366676+948049993+948409718
890+951101635+953472646+952983159+951015609+950497948+952221305+954643226
880+955997833+955973188+955170490+954109482+954884527+960629995+970246348
870+977464441+979567481+982081040+989321349+997165980+998807129+993815648
860+987015132+981893715+979647433+981042016+984852967+987145877+986847129
850+988446625+994892623+1002743735+1006894971+1006233374+1002726495+998414776
840+994272680+990419266+987186490+986255186+989787405+997346132+1004222088
830+1004368106+997414629+990392307+989678296+994761068+1000690100+1004460438
820+1007910045+1013978963+1020899234+1023238195+1019615148+1015475945
811+1015638856+1018739730+1021056013+1023748914+1031043256+1041144930
803+1045618982+1041411860+1036068754+1035107483+1034359918+1029219294
794+1023666069+1023068688+1026059527+1027814066+1025740068+1020042444
785+1013207332+1009422530+1010289387+1011951825+1009046376+1000966170+992096862
776+986400974+985322494+988280473+992212450+993720308+991144732+984548896
766+975171183+965809032+961377097+965914323+978115393+991148550+998584514
756+999868137+997500366+992494653+986056869+981441080+981510734+986472595
746+993915733+1000178224+1002842662+1003319247+1004605994+1006203754+1005499578
736+1002370820+999460627+998791625+1000697274+1005972114+1013479700+1016314222
726+1008258546+992863981+979063936+971916423+970985929+973773476+980507231
716+993295674+1009693047+1020447177+1019548965+1012279152+1007140611+1007213042
706+1008786736+1005506405+998437339+995075320+995780885+993331542+986234244
696+982665231+987688068+995660205+998876205+998149004+997746353+997234362
686+994892392+990602195+986623936+987631604+995628387+1002764446+995081684
676+973882122+957189413+954727459+958093931+954203087+945459260+946575111
666+958198007+969260605+976816613+984815594+992558522+992530984+983659130
656+974845823+971053732+969122570+966086433+959405670+951269464+945967896
646+941446752+942189400+951434516+961422395+961241723+950886367+943510685
636+948740458+961684755+969734356+968186639+960582614+950293672+939792240
626+934168204+937648414+945858555+951141321+949870600+940295553+929077333
616+922637235+920565898+920667312+920243719+920591642+920016707+907734240
606+885561026+870184916+871788056+885382090+895188024
##END=
