##TITLE=<SNM>
##JCAMP-DX=4.24
##DATA TYPE=INFRARED SPECTRUM
##DATE=29/4/2025
##SAMPLING PROCEDURE=Instrument type and / or accessory
##ORIGIN=Admin
##XUNITS=1/CM
##YUNITS=ABSORBANCE
##RESOLUTION=4
##FIRSTX=4497.3318
##LASTX=599.83466
##DELTAX=-1.4281778
##MAXY=2.074198
##MINY=0.41320243
##XFACTOR=1
##YFACTOR=1.9317474e-09
##NPOINTS=2730
##FIRSTY=0.4296076
##XYDATA=(X++(Y..Y))
4497+222393256+222177747+222048586+221439055+220261293+218965031+218304404
4487+218774546+220055442+221322700+222179475+222804850+223262002+223345697
4477+223003589+222408483+221845790+221709039+222172933+222840333+223216475
4467+223415322+223845784+224364061+224295454+223351822+222014630+220871302
4457+220176333+220151371+220878014+221772154+222165991+222346433+222959065
4447+223734289+223869682+223213312+222168058+221018482+220024556+219605016
4437+219919185+220511453+220672810+220188351+219533895+219238255+219374111
4427+219819245+220527189+221342957+221991766+222307385+222248837+221886272
4417+221514790+221444100+221575251+221564019+221390535+221276078+221114226
4407+220539284+219503657+218416054+217728567+217614371+217948488+218323889
4397+218265218+217688640+217032672+216856920+217386613+218373257+219330157
4387+219942388+220153130+219864170+219014508+218081675+217787146+218109892
4377+218365898+218331603+218395026+218560935+218310760+217584889+217031839
4367+217120995+217640938+218117884+218276140+218075674+217603989+217047482
4357+216670539+216604092+216618748+216384788+215981123+215866789+216408037
4347+217642805+219244380+220504124+220697510+219781987+218575961+218054044
4337+218442049+219045980+219105947+218697578+218439041+218494550+218458526
4327+218200175+218097504+218286554+218331140+217805412+216727282+215389920
4317+214252980+213900859+214565575+215717233+216574162+217043687+217721578
4307+218851036+219783699+219848542+219317738+218984887+219204175+219816314
4297+220545347+221121477+221384133+221429567+221484906+221655644+221833324
4287+221747979+221262702+220644207+220227306+219890258+219246354+218329443
4277+217831809+218508141+220209518+221702051+221840406+220754129+219470780
4267+218777863+218883681+219653907+220712891+221542050+221765751+221422733
4257+220949937+220782732+220968080+221323765+221905233+222964264+224229532
4247+224551306+222954128+220126162+217961509+217459138+217966369+218536173
4237+219006794+219529406+219998622+220254089+220289094+220206078+220275965
4227+220885064+222010403+222885212+222718825+221730993+220906586+220680262
4217+220516636+220050598+219925294+220842376+222226020+222629792+221452215
4207+219646363+218673480+219183363+220670296+222159989+223179989+223889645
4197+224385258+224477114+224131828+223611978+223268574+223442166+224162406
4187+224761909+224350083+222840781+221119472+220261463+220737452+222080043
4177+223315999+223968156+224356285+224835823+225349671+225827065+226416401
4167+227150541+227739816+227829574+227336105+226561066+226024400+226088070
4157+226598648+226870344+226224003+224716937+223242687+222744667+223386410
4147+224613510+225863597+226860825+227339653+227117634+226502209+226042836
4137+225914539+225922377+225839978+225488952+224861695+224351117+224482406
4127+225324987+226322477+226641074+225906208+224744599+224177371+224402491
4117+224680034+224447185+223961893+223765175+223919821+223894196+223244615
4107+222443565+222619178+224245345+226506822+228146457+228567185+228017544
4097+227167419+226596488+226333230+225942741+225226590+224549547+224394114
4087+224957146+226157155+227551691+228319756+227943214+226917830+226308022
4077+226609617+227363242+227868343+227976537+228033188+228265281+228537055
4067+228665181+228678465+228745112+229058679+229655791+230135298+229872673
4057+228820430+227696587+227077491+226766855+226372046+226035600+226192731
4047+226954533+228005171+228787893+228752332+227872663+226888811+226600607
4037+227043350+227676686+228083544+228181540+228064753+227851805+227557013
4027+227149168+226694114+226236900+225769828+225593089+226237332+227644627
4017+228910975+229181591+228452928+227436292+226952342+227293262+227990654
4007+228414605+228479618+228448623+228360778+228043401+227494053+227020810
3997+227030282+227637468+228474280+229045411+229258729+229380037+229502980
3987+229346466+228733217+228084454+228123177+229058571+230332478+231273334
3977+231683832+231662851+231277082+230644456+230038474+229662409+229463423
3967+229301310+229193146+229344846+229954578+230955616+231972005+232597026
3957+232695485+232413452+232020803+231864814+232328122+233466189+234570546
3947+234630035+233620434+232715988+232886927+233787084+234402169+234334688
3937+233854564+233322789+233132072+233672102+234775379+235575426+235547595
3927+235192743+235094716+234935287+234211082+233418378+233530306+234641128
3917+235807149+236152497+235679038+234922806+234290164+233903887+233973620
3907+235086092+237739077+241464962+244772542+246450531+246398879+244889962
3897+242318944+239881808+239226796+240949524+243418118+244050667+242850087
3887+242214731+243133478+243946237+243510406+243095942+243404588+243187598
3878+242082392+241613993+242605590+244406136+246639859+249116475+250311223
3868+249382525+248044238+247672431+247324013+245781495+243604623+242114019
3858+242398520+245737279+252794226+259744197+259722660+253770549+247526856
3848+243795540+243020116+244618112+247303217+249785124+251842386+253854722
3838+255341578+255426013+254429495+253166294+251824860+250448544+249418872
3828+248915468+248680212+249102729+251642521+256507908+260237758+259949014
3818+257880213+256424953+254531225+250993881+247412892+246057480+247824332
3808+251569934+254538754+255769988+257335416+260026122+261213002+259553542
3798+257351122+256152871+255326489+254402929+253879283+253997814+254686504
3788+256329179+259277603+262702109+265300527+267323924+270181341+273975525
3778+277253993+279531731+282052331+286247449+292717249+300595811+307658249
3768+312691489+316694717+320548637+324033311+327492745+332009097+337577244
3758+342919932+347942156+354540007+364599698+377683487+389879815+397514835
3748+402531537+408877916+417001839+423109090+424905701+425314688+428355817
3738+436078590+447254812+457165503+461218747+459573142+456054959+453754635
3728+453294860+453790982+454240976+454096079+452810833+449867392+445768820
3718+442057175+440017300+440212583+442889712+447289802+450908511+452084314
3708+451929235+452267440+454068772+457163744+460037175+461275552+461862728
3698+463585256+466350045+468947722+471304450+474667616+479393722+483501519
3688+484612834+482694653+479144195+475421041+473329638+474309602+478360008
3678+484318505+489501856+489949320+485899994+482056719+480769961+480064609
3668+477420248+473385023+469741382+467408105+466428726+466533850+467578889
3658+469375839+471343945+473278572+476328248+482144256+490473706+496357194
3648+494234566+486664681+480060351+477273562+477189234+477659161+478119244
3638+479252189+481125784+483191547+485861980+490641404+497806776+503783046
3628+504115821+500749045+498313543+498304966+500385045+504340046+509356624
3618+513364481+515233078+515861878+516594228+518360262+521362298+524250847
3608+524967061+523421580+521821116+521970024+523568698+525017231+525465127
3598+525788922+527442396+530815250+534800521+538395966+542223442+546943624
3588+550538205+549813475+545177775+540128923+537414952+537760717+540003959
3578+541795726+541343511+538977033+536742800+536758105+540246481+546886356
3568+553600223+555292512+550649222+544299140+540577867+539775012+540060424
3558+540711039+542500461+545659118+548916512+550748144+551131120+551226154
3548+551520822+551523044+550836699+549275421+546733808+544014962+542455104
3538+542546374+543960780+546483880+549667036+551997907+551836410+549187668
3528+545684234+542981495+541784988+542017390+543195199+544659098+545917747
3518+546751519+546883888+546050795+544512905+543018953+542264850+542486082
3508+543109421+543210750+542822405+542987913+544009100+544735742+544229036
3498+542622216+540688885+539745083+540913017+543616929+545775751+546018891
3488+544883601+543684379+543057769+542880783+543124602+544131719+545705092
3478+546788422+546708630+545982666+545253185+544140358+542111807+539755820
3468+538332218+538370356+539304037+540399524+541558695+542878623+543716345
3458+542997169+540667594+537903515+535538518+533529776+532171217+532211514
3448+533377166+534363548+534502829+533896029+532525004+530857090+530123968
3438+530803155+532044896+532839358+532623741+531373670+529927729+529190410
3428+528841807+528082890+527349460+527738052+529196396+530435113+530377661
3418+529149311+527668997+526663793+526219169+526175231+526693415+527912199
3408+529216144+529599984+528749612+527256277+525904445+525172433+525364477
3398+526550616+528046913+528777135+528468273+527922319+528142503+529266500
3388+530300522+530154330+528866800+527369146+526351723+526097784+527064974
3378+529584124+532904956+535348634+535766971+534541645+532906561+531791389
3368+531669017+532520006+533518854+533732249+533458130+533862767+535226324
3358+536759894+538290626+540811565+544823124+548979025+551136736+550563321
3348+548280707+545823700+544658357+545620178+547904273+549648461+549977749
3338+549307880+547905137+545765939+543515847+541992953+541319382+541222434
3328+541650459+542437886+542811421+541971663+540126084+538531544+538557030
3318+540567623+543364903+544954444+544436878+542773839+541478163+541266619
3308+541849661+542318415+542012207+541311976+541130424+541701432+542485959
3298+542985630+543118184+543200012+543842049+545119520+546041230+545878746
3288+545537424+546317261+547911616+549112566+549879382+550920131+551861465
3278+551922620+551749892+552385758+553165718+552706838+551484722+551331803
3268+552565953+553295804+551992476+549829088+549338797+551071508+552767808
3258+552339475+550549930+549453456+549311089+548687936+546958743+545061266
3248+543915238+543361077+542965820+543118678+544522779+546767996+548371731
3238+548606663+548246211+547967403+547282970+545623819+543472094+542033990
3228+542347789+544532714+547369982+549026850+548746376+547414476+546116517
3218+544900633+543423960+541939758+540921101+540268820+539723175+539596113
3208+540150460+540776637+540777007+540409335+540269006+540249382+539810496
3198+538861449+537864205+537240311+536895966+536269233+535024284+533569826
3188+532660459+532688291+533430361+534271167+534561331+533988409+532791409
3178+531520603+530514782+529595726+528244572+526236756+524199072+523180600
3168+523451942+524047881+523744882+522278145+520382395+518891714+518062262
3158+517590515+517013521+516077587+514890368+513740514+512825778+512194849
3148+511705453+511034690+509958426+508633715+507563345+507320082+508131823
3138+509455917+510266825+510237389+510119059+510349363+510066975+508393630
3128+506001635+504342546+503825226+503603037+502875777+501710342+500397449
3118+498877146+497336480+496554915+497005310+498082592+498748449+498709170
3108+498568809+498913710+499534210+499649578+498805593+497384244+496190359
3098+495735830+495825434+495781527+495193672+494214787+493154815+492260289
3088+491892247+492298673+493177741+493763899+493253460+491261812+488282424
3078+485584128+484323103+484787969+486326198+487760229+488200627+487740111
3068+487013037+486125978+484690466+482820573+481337513+480906742+481338964
3058+481839066+481916513+481967887+482699836+483922323+484488549+483653790
3048+481859523+479971457+478445014+477441260+477053656+477098859+477135731
3038+476919775+476557873+476213189+475950240+475819413+475885567+476071193
3028+476040522+475513020+474652744+473776330+472816545+471594490+470424580
3018+469795595+469559089+469092002+468313029+467902715+468281248+468871510
3008+468788879+467950109+466896092+465796532+464436523+463044764+462328551
2998+462632692+463535178+464224732+464071721+463054422+461782967+460875667
2988+460320642+459650403+458687749+457877859+457788471+458416161+459103894
2978+459127622+458324459+457113111+455916758+454765639+453528064+452247693
2968+451118450+450333831+449984210+449936816+449921419+449836351+449804848
2958+449936230+450239661+450702644+451221106+451573350+451573998+451096358
2948+450039657+448544532+447099147+446161886+445834696+446006653+446513420
2938+446973380+446810156+445819732+444542754+443739097+443605185+443759246
2928+443854187+443900069+443960268+443776494+442894927+441266323+439618989
2918+438885250+439155573+439481683+438947177+437728979+436768762+436624729
2908+436988729+437212307+437000362+436474495+435773215+434944967+434242762
2898+434062906+434303300+434217553+433379986+432373301+431962308+432050369
2888+432083631+432040372+432227602+432389963+431854346+430517015+429071537
2878+428247485+428232674+428740213+429198291+428932688+427746826+426354882
2868+425693067+425893225+426336739+426493453+426356857+426284779+426568154
2858+426909938+426598762+425620002+424978088+425339064+426021984+425872429
2848+424668640+423234671+422431600+422336689+422341595+421923352+421116578
2838+420243219+419544315+419099444+418818969+418516279+418044933+417269755
2828+416126968+414979582+414518203+414885752+415243179+414715122+413524200
2818+412616591+412389805+412416279+412314888+412196836+412150028+411949098
2808+411455907+410783817+410002870+409157064+408495095+408241618+408282378
2798+408360133+408327242+408035999+407319384+406265830+405275930+404773267
2788+404904618+405403579+405766900+405697568+405272012+404648611+403919840
2778+403255063+402813184+402517590+402150289+401560428+400676763+399565201
2768+398547007+397988711+397903087+397935393+397795742+397561766+397468552
2758+397497371+397321681+396692418+395776849+394984948+394494719+394159815
2748+393876749+393719819+393649715+393436752+392963277+392338396+391720981
2738+391259664+391075735+391093014+391067189+390901897+390732254+390627161
2728+390408736+389886295+389170359+388596327+388290829+387979128+387352951
2718+386483850+385720274+385294008+385177220+385211994+385209464+385009398
2708+384607601+384125734+383554880+382793278+382059292+381818189+382105977
2698+382379725+382199160+381648979+381031317+380524426+380132934+379718363
2688+379135815+378457337+377982042+377961863+378314076+378627412+378508557
2678+377892439+376993871+376153187+375756203+375960588+376405676+376491824
2668+376008167+375270540+374727271+374633841+374922740+375184516+374957729
2658+374199306+373353717+372873084+372758055+372662465+372384490+372071895
2648+371903548+371792099+371530477+371061754+370528328+370167136+370087591
2638+370054761+369702239+369041473+368461270+368219457+368253984+368395270
2628+368480246+368405576+368207701+367947714+367617007+367298087+367154949
2618+367172567+367206169+367198794+367054237+366586748+365877663+365341367
2608+365258706+365490953+365680004+365617275+365474600+365589258+365903304
2598+365925766+365469602+364990912+364909979+365044076+365006525+364770729
2588+364501085+364134092+363512635+362769979+362254757+362155372+362410700
2578+362865353+363307293+363465889+363203804+362722277+362433872+362556429
2568+362888124+363043388+362840637+362378950+361873694+361512348+361342921
2558+361263037+361184171+361147669+361251528+361577699+362117698+362620824
2548+362715643+362349113+361862062+361546936+361406576+361342644+361304630
2538+361247794+361115425+360880832+360579654+360317908+360210655+360289490
2528+360490297+360729117+360976792+361224838+361372758+361279020+360983580
2518+360721341+360670708+360840597+361181887+361643452+362133280+362503883
2508+362588519+362322824+361859130+361471310+361330949+361409106+361531632
2498+361540303+361483652+361581988+361948888+362454699+362849524+362911790
2488+362568247+361987365+361475260+361210583+361130205+361092284+361105582
2478+361302377+361647741+361854996+361731976+361425120+361184047+361098732
2468+361162572+361373221+361689951+362011154+362200699+362133897+361830990
2458+361517655+361384607+361328296+361108668+360723748+360453826+360540622
2448+360935940+361361373+361576681+361576558+361492539+361371586+361188737
2438+361025544+361045908+361282414+361567486+361700658+361659805+361616669
2428+361699331+361833860+361952807+362168023+362508048+362740049+362704843
2418+362558713+362496508+362516935+362574572+362709163+362926878+363123673
2408+363234660+363395879+363824891+364513889+365170891+365532546+365633937
2398+365707804+365901051+366167332+366449566+366894160+367778720+369328334
2388+371786360+375585820+381283313+389382705+400255279+414070184+430820816
2378+450579100+473519459+499292027+526551789+553757214+580337265+606276945
2368+630733163+651787030+667250904+675326229+675114747+667535266+655440297
2358+641104000+623665449+600603951+571966161+542368215+518547245+505350650
2348+504803339+516835116+538161959+561311024+579109841+589735913+594919665
2338+597139950+598339049+598845940+597961442+595211000+590552405+584194609
2328+576851974+569433928+561926402+553386457+543466108+533130447+523353575
2318+513987326+504388366+494384831+484273179+474383099+464934127+456103587
2308+447965101+440362015+433120770+426441740+420770474+416203458+412337196
2298+408798556+405629717+403039353+400992968+399191852+397387650+395581936
2288+393875669+392280049+390825314+389698386+389048419+388776028+388693028
2278+388754954+388978902+389265177+389468915+389583388+389713320+389857136
2268+389822918+389461201+388927404+388571643+388577721+388822435+389092110
2258+389343704+389698941+390199846+390663879+390877243+390880452+390919392
2248+391129084+391405795+391583768+391622615+391606292+391597869+391520576
2238+391229889+390698931+390027180+389268633+388443470+387708898+387254368
2228+387010365+386682990+386080201+385270527+384488808+384004873+383995894
2218+384423395+385011250+385392961+385417120+385359328+385667758+386443059
2208+387359554+388111775+388692256+389220221+389772994+390420523+391243095
2198+392287207+393547739+394937338+396279451+397442603+398489801+399616760
2188+400931381+402310983+403479905+404270017+404801931+405312309+405838669
2178+406249199+406538807+406832302+407109383+407213828+407135764+407015521
2168+406885806+406651213+406285145+405850919+405374698+404841642+404276373
2158+403698453+403045740+402281516+401519174+400880068+400305419+399678501
2148+398998790+398313895+397719159+397490922+397901668+398899066+400274471
2138+402017055+404164060+406478392+408629007+410598223+412673056+415078443
2128+417774980+420670842+423904663+427706684+431994089+436333702+440332518
2118+443950764+447520815+451554590+456405599+462041165+468200098+474734387
2108+481764828+489654806+498905718+509965307+523015710+537719000+552924307
2098+566919962+578613318+588313175+596774377+603941754+609268613+612633692
2088+614226936+614012307+611701306+606972053+599773203+590564809+580085918
2078+569045583+558115093+547666749+537523686+527526569+518101571+509838862
2068+502907959+497110249+492082439+487428966+482985433+478819227+474938217
2058+471328455+468124503+465392513+462990829+460884214+459273136+458245778
2048+457616330+457251188+457329159+458122665+459681660+461999788+465439506
2038+470676390+478253403+488437996+501265902+516262811+532250330+547911493
2028+562649280+576691588+590330679+603171606+614281982+623131282+630026145
2018+635485620+639640471+642379249+643767553+644100605+643536323+641901979
2008+639038299+635032479+629973691+623861935+616908200+609542176+601901725
1998+593671074+584754880+575803758+567586621+560106001+552897462+545923671
1988+539450476+533418142+527672268+522481358+518296762+515272387+513277376
1978+512055167+511222660+510419126+509596462+509046312+509139742+510035749
1968+511487460+512883570+513689572+513970294+514346019+515393988+517178998
1958+519341337+521525214+523641023+525761584+527919604+530088300+532249652
1948+534415077+536761622+539699108+543309610+546731401+548915154+550045137
1938+551245655+553140294+555461661+557706940+559673718+561544105+563744396
1928+566637821+570201608+573902392+576948860+579047637+580857115+583100789
1918+585442645+586970476+587669040+588474178+590006575+591938055+593504455
1908+594392286+594963171+595666363+596565980+597491947+598349910+599192074
1898+600119338+601147004+602117527+602851821+603399626+603956441+604591937
1888+605216386+605698099+605884712+605656136+605079944+604477155+604342256
1878+605008915+606101625+606717990+606711326+607185510+608947779+610899377
1868+610907461+608579984+605610655+603404748+602018296+600871220+599543578
1858+597904544+595944060+593730872+591507562+589740541+588794085+588530334
1848+588664185+589369660+590661942+591265780+589725237+586512336+583133496
1838+580413354+578408500+577051793+576547124+577079563+578068166+578220283
1828+577073206+575415968+573585940+571077775+567975151+565227363+563454541
1818+562463716+561773483+561226110+561067884+561483320+562129985+562376025
1808+562055500+561631980+561731458+562780353+564694184+566602461+567358415
1798+566833011+566355865+567622167+571067716+574629343+575214977+572903668
1788+570670547+570428333+571817562+573660302+575473236+577270742+578989567
1778+580959431+584084394+588887022+594467449+598482526+599363321+598289372
1768+597096753+596523276+597011098+598864329+601237225+602589366+602922603
1758+603574514+604938195+606526379+608559496+611746664+615689477+618631592
1748+619561570+619435557+619665059+620827687+622787924+625015553+626766653
1738+628227898+631077200+636317541+641432423+642610109+640858823+639131420
1728+638197122+637842286+638086290+639005099+640967681+644900065+651249777
1718+658293919+662262959+661695407+659147808+657192817+656835944+658408330
1708+661977610+666756540+671018644+674212106+677929244+683099049+687674273
1698+689785084+690294505+689384088+686940781+684885262+685000168+687161211
1688+690791337+696671740+705231802+712418742+713217709+709954144+707311079
1678+707355140+710185003+714491169+718524882+722101752+725995876+729486227
1668+730924516+731082495+732332011+735190323+737689355+738196308+737949897
1658+739168620+743068051+750060602+758360801+761858990+759551322+757930061
1648+759254124+759810630+755271445+747970588+742758449+741240306+742810594
1638+746467688+750438394+751263033+747501340+742461312+739440085+739380349
1628+741412294+743777352+745402933+746017015+745171580+743198507+741879443
1618+742584240+744420377+744951767+743713852+742250571+741642104+741948929
1608+742661069+743461024+744559226+745967708+746864487+746424922+745193796
1598+744848340+746550935+750002347+753951270+757260007+759425926+760435696
1588+760499629+760042538+759926214+761181346+764036448+767675090+771413580
1578+775237415+778342754+778681237+776286681+773635717+772118747+771160196
1568+769713515+767903234+766509747+766311595+768742375+775632672+785330369
1558+788531606+782065076+774384945+769929872+768130391+767391283+766955113
1548+767252187+769161267+773017870+778524986+785245393+791361839+792430914
1538+788244960+784904257+785800172+789327056+791539381+791404790+791741792
1528+794430893+798716632+803354492+808459254+814014566+818440265+821184473
1518+824152383+828392271+833026058+837388319+841859930+847140445+854291530
1508+863921222+872149652+872335586+867189539+863827484+864803622+869520348
1498+876040197+881510965+884205681+886198131+891230569+900455871+910211391
1488+914724719+913082909+909239820+906522887+905989646+907726861+911795626
1478+918180698+926580127+936218459+945119842+950441394+951978729+952836506
1468+955035501+957949044+959291743+957278928+953587524+952144915+955230322
1458+960789706+961991767+955807254+948079791+943743573+943278892+944713725
1448+945688012+945590324+945817419+947338524+949151149+950101862+951546014
1438+956131667+962846520+965719581+962692182+958325849+956010961+955096348
1428+953835230+952790717+953863309+957200679+960510774+961619590+960560019
1418+958892290+957793842+956944457+955215820+952422983+950021022+949622988
1408+951243200+953387335+954533979+954157915+952846750+951423395+950344817
1398+949925555+950476261+951854197+953104762+953349198+952841751+952449272
1388+952438349+952437485+952582814+953806658+956872688+961487344+966208082
1378+969620616+972025108+974826584+977763638+978984274+977941982+976095786
1368+975471521+977877556+983666751+990370743+994741458+996720332+998471864
1358+1000499859+1002176598+1003628093+1005296871+1007241186+1009347863
1350+1011674414+1014651889+1018588901+1022771090+1025946656+1027677268
1341+1028246240+1027871039+1027312744+1028397184+1032559008+1039154637
1332+1045591423+1049251725+1049270856+1046233830+1042014923+1039892079
1324+1042164016+1047691434+1053290807+1057245469+1059638483+1060294960
1315+1059134184+1058013519+1060031456+1065481736+1070318736+1070667648
1307+1067125953+1063243616+1061942880+1064088558+1068467788+1072376044
1298+1073741823+1073216419+1072182396+1069906386+1064982621+1058280356
1290+1052195691+1048012330+1045312738+1043152743+1040857850+1037975965
1281+1034491476+1031097269+1028611567+1027006597+1025056542+1021115025
1273+1014964823+1008623072+1004630581+1003607234+1003125768+999680589+992630955
1263+984892570+979064189+974844542+971132958+968002749+965274092+961465931
1253+955624776+948943555+943388984+939228270+934711610+928196266+919996656
1243+911442888+902905967+894081413+885277224+877047560+869388658+862574018
1233+857776575+855613865+854893641+853624562+850871159+847380190+844744469
1223+843796718+843739080+843273967+842400145+842009270+842199586+842457844
1213+842899260+844102802+846187324+848852729+852015273+856047691+861285995
1203+866963246+871081318+872535899+873071053+875488380+880092546+884369955
1193+886485764+887712263+890186611+893953549+897715057+900640386+902143780
1183+902192222+902602228+905452208+910430279+915969792+921796939+928072105
1173+934073954+939834638+946764924+955532333+965033482+973387925+978982361
1163+981603765+983296425+986316912+989988508+992019095+992429038+993210603
1153+995012182+996377776+995804485+993383516+990892938+990637827+993210048
1143+996800123+999899662+1002850601+1005048732+1004430022+1001360352+999723972
1133+1002714714+1010074197+1018745955+1025001435+1027283740+1027323420
1124+1027714109+1029128455+1029783142+1027390931+1022711355+1020389678
1115+1023528773+1028577317+1029010155+1023977039+1019238282+1019692719
1107+1024540333+1029133391+1030654434+1031128557+1033571679+1036783469
1098+1036771374+1033609076+1032207752+1035516057+1040125962+1040671977
1090+1037631620+1035043539+1033668627+1030440484+1022879886+1012830130
1081+1005305140+1004404350+1008961184+1012113362+1008267187+999655411+992712475
1071+990651094+991440003+991369899+989493280+987590496+986210832+984125260
1061+981166916+978351678+976801261+977711061+981209496+984763163+985353980
1051+983596832+982485486+982373667+981217951+978467818+975590438+974340058
1041+975534590+979381196+985592862+992380596+996854922+997488382+994298746
1031+987723729+979957635+974437067+973516345+977078650+982579718+986638610
1021+987891582+988151198+990087862+994376378+999185917+1001616697+998798745
1011+989067909+974709642+960722010+949539432+940734687+934309195+931089815
1001+931060193+932277620+931425335+926192338+917631659+909038335+902496949
991+898019352+894965850+892420966+888903647+883413317+877151481+872653334
981+870911737+870625092+869975156+868419185+866591995+865031828+863609029
971+861871752+859669239+857498569+855499947+852557092+847777915+842282278
961+838153222+836301225+836402369+838096386+841088116+844480965+847101197
951+848688702+850219310+852936119+857465924+863690919+870672485+876766345
941+880902004+883937302+887932384+893833645+900299126+905459058+909839770
931+916142705+925330056+934411696+939632968+940945676+941229483+942181924
921+943082652+942663082+940452670+936729793+932575621+929759704+929232819
911+929864983+929716445+928252608+926363894+925074883+925116537+926767296
901+929284224+931370968+933029625+935438499+938921075+942152735+943645700
891+943839718+944777781+947307545+950056814+951441168+951372175+951085221
881+951904491+953701503+954692514+953963218+953605852+956430778+962230895
871+967766213+970768063+972511758+974845961+976576943+975811732+973934249
861+973510852+974288591+974189113+972760328+971462616+971082170+971559255
851+973285238+976279313+979458396+981664180+982615264+982675493+982944922
841+985182239+989894893+995515000+1000874751+1006882216+1013777882+1018668878
831+1018698561+1015115644+1011958962+1012162298+1016160713+1021721146
823+1024518179+1022156700+1017067427+1013313756+1011532233+1008869235
814+1004549987+1002183262+1004438785+1009873822+1016492963+1023951367
805+1031103317+1035524203+1036305582+1033339154+1026636334+1018973112
797+1014613752+1014656208+1016911854+1019674144+1022406196+1023818011
788+1022048027+1017161350+1012156312+1008738532+1004629409+997470054+988142559
778+979096834+971850158+965845162+959879845+955098323+954598282+959105439
768+964850757+967343742+966801799+967326710+970945234+975890475+979928754
758+982431304+983570420+983531789+981988654+978257138+974375418+976057649
748+986040264+998719138+1006677830+1010477043+1014109391+1016135658+1013114616
738+1005659791+997047028+990122666+986955061+988984168+995498832+1002836531
728+1006692024+1006221295+1004510369+1003775704+1003166004+1001268835+998894458
718+999428378+1003766756+1007461555+1005359754+997799712+989464400+983045201
708+979059376+977021075+974451075+969910841+966466958+970064809+982273078
698+995780479+999676516+992349864+982638961+978166979+979655315+983254585
688+985473328+985129662+983101605+980654101+976988800+969866718+960092623
678+953939583+956469779+965071002+972137915+973383050+970618908+965288347
668+955799108+947105936+946381762+951254308+957141437+960839630+961634401
658+961017110+960134278+959025524+957895047+959053910+963565387+968935320
648+971744448+971629358+969140014+962844360+951725345+938887010+928958330
638+922230950+919517535+924011794+933308372+941136238+944079772+941733720
628+935052314+926871340+922418612+925461129+933953557+942268875+944633193
618+934394787+912519800+891921666+881254310+881310220+889230220+902876470
608+919739569+930925541+929744215+920723545+911023318+905437768+909184712
##END=
