##TITLE=<SNM>
##JCAMP-DX=4.24
##DATA TYPE=INFRARED SPECTRUM
##DATE=29/4/2025
##SAMPLING PROCEDURE=Instrument type and / or accessory
##ORIGIN=Admin
##XUNITS=1/CM
##YUNITS=ABSORBANCE
##RESOLUTION=4
##FIRSTX=4497.3318
##LASTX=599.83466
##DELTAX=-1.4281778
##MAXY=2.2047989
##MINY=0.64892793
##XFACTOR=1
##YFACTOR=2.053379e-09
##NPOINTS=2730
##FIRSTY=0.65681261
##XYDATA=(X++(Y..Y))
4497+319869152+320440444+321136874+321781287+322398239+323092637+323520243
4487+323115453+321925496+320675016+319860793+319455422+319495219+320006453
4477+320330488+319597338+317996496+316769325+316975944+318682824+320969414
4467+322465467+322511244+321738500+321056410+320799400+321172985+322419720
4457+324252028+325675657+325398937+322962710+320013971+319287207+321370314
4447+323692434+323853480+322512376+321733217+322247296+323388980+324325033
4437+324416586+323302623+321569705+320521083+320663696+321256497+321725728
4427+322512347+323665700+324047355+323220475+322576904+323263552+324247268
4417+323703958+321615510+319768601+319595829+320884451+322163958+322135278
4407+321175394+321078993+322942594+325825121+327728605+327327385+324641143
4397+320941345+318241837+318079485+320370604+323492521+325633451+326134613
4387+325325323+323595744+321554088+320319806+320218616+320054581+319140995
4377+318834551+320303957+322127122+322068283+320477106+319881199+321620387
4367+324429851+325997051+325201405+322874205+320503492+318729762+317516670
4357+317126916+317996031+319758993+321250227+321685931+321410082+321294175
4347+321620184+321856701+321413594+320374436+319560531+319614958+320035016
4337+319747527+318614957+317674667+317802388+318703114+319330139+319031677
4327+318231068+317837424+318054957+318426510+318879108+319543202+319871097
4317+319515364+319599515+321218645+323407064+324237224+323069560+320741606
4307+318346162+316623287+316029296+316610893+317929761+319523724+321213652
4297+322621345+323050315+322515017+322074146+322394872+322819720+322374640
4287+320992520+319403637+318210806+317364391+316632983+316281139+316701459
4277+317675131+318830284+320451794+322771476+324786833+324968691+323189038
4267+321047208+320219225+320880212+321687905+321320329+320025176+319287991
4257+319946801+321239487+321966019+321788863+320900445+319508398+318320298
4247+318307062+319285872+319965234+319918703+320071475+320741838+320916932
4237+320071794+319102998+318785204+318756177+318623608+318847352+319974784
4227+321799487+323458791+323973305+323068138+321531766+320297164+319517019
4217+318968688+318818963+319310546+320119254+320583231+320362534+319630488
4207+318909529+318823695+319653158+321005031+322127905+322591592+322590489
4197+322575975+322690402+322698820+322500387+322397572+322650431+323008544
4187+322890896+321970663+320596207+319659399+319823811+320789646+321605264
4177+321774988+321688776+321900126+322435133+322965206+323338965+323627703
4167+323709009+323254060+322382042+321886338+322376556+323393741+323764365
4157+322995598+321906831+321491940+321699429+321879807+321972666+322347905
4147+322712782+322254379+320836149+319333187+318778934+319439515+320648427
4137+321437397+321359313+320727527+320086105+319654813+319423056+319401982
4127+319393564+318971823+318308600+318453564+319933245+321707992+322478443
4117+322349792+322292637+322733508+323372202+323715395+323337950+322126744
4107+320508979+319190313+318668455+319001315+319845234+320665757+320963522
4097+320446889+319254232+318005726+317305871+317179949+317249383+317316263
4087+317482301+317888948+318602040+319529385+320359080+320820271+320996613
4077+321094639+320995945+320345495+319093245+317774464+317126074+317327177
4067+317786307+317929210+318055712+319053245+321228834+323684045+324978937
4057+324526194+323193189+322282332+322190837+322427615+322564219+322525729
4047+322205699+321568195+320915452+320457368+320063231+319807585+320105611
4037+320981025+321791360+321932230+321436497+320808427+320512404+320685815
4027+321242622+321987963+322491679+322295133+321583028+321134930+321349153
4017+321848341+321957601+321217107+319841373+318680182+318264304+318250777
4007+318238499+318418179+319052839+320102418+321318819+322113885+321920097
3997+321160271+320978384+321674262+322308631+322132927+321569676+321469124
3987+321998704+322565845+322555482+321864103+320751069+319557977+318773158
3977+318950052+320090778+321346367+321914001+322080126+322645177+323533537
3967+323837514+323208080+322376585+322115133+322277223+322117136+321373014
3957+320666947+320680909+321405989+322532202+323834292+324776267+324712203
3947+323976992+323908980+325173712+326659693+326685005+325058066+322989531
3937+321620126+321664799+323522013+326771391+329760043+330709825+329544281
3927+327758242+326756964+326759925+327078938+327346602+327909243+328936036
3917+329736850+329231799+327208953+324845207+323601433+323813044+324888429
3907+326760302+330020014+334303441+337736882+338904982+338068784+335729363
3897+332045327+328097749+325850084+326435542+328771392+330357430+330549651
3887+330755834+331369129+331596357+331973919+333696880+335205502+333381931
3878+328991044+326003611+326471971+329530231+333790465+337995721+339912442
3868+338806201+337222688+337360801+338165446+337210496+334387969+331697808
3858+331125791+334159377+341311021+348667947+349021416+342714563+335250960
3848+330114353+328377517+329593134+332467997+335765416+338862688+341181151
3838+341697523+340148727+337837057+335933485+334444457+333087853+332177983
3828+332155893+332835429+334134558+336885881+341039380+343705942+342960833
3818+340954417+339380686+337031396+333139464+329540333+328467792+330640885
3808+334473078+336903965+337256011+337983094+340374532+342486348+342600978
3798+341596971+340081615+337696505+335037839+333538825+333767563+335166954
3788+337107245+339249162+341058103+342303822+343814621+346375813+349284232
3778+351427919+353215700+355801187+359796196+365309436+371653938+377111415
3768+380553971+382372521+383133421+383476005+384880679+388350056+392531190
3758+394934530+395444603+396537143+400600512+407970443+415702784+420272394
3748+422918317+427049494+432969526+436630921+435768221+434113504+436067147
3738+443629067+455446837+466204579+470356685+467692939+462382022+458420830
3728+457786664+460530381+464889106+468158687+468653143+466706407+463830992
3718+461339467+460256593+462214388+468761503+477869751+482502090+478769229
3708+471080604+465153054+463371950+465298598+468708121+471020256+471531664
3698+471435612+472000169+473814306+476763655+480092452+482874601+484555153
3688+484839363+483430392+480857038+478850274+479038750+481661567+486280118
3678+492941776+500025320+502549386+499509384+496373359+495919948+494929991
3668+490465316+484854370+481168475+479218402+477015440+474397935+473465075
3658+475179184+477551841+478624759+479677125+483081452+488990134+494275884
3648+495175739+492152051+488467463+485961018+484406387+482677852+480291146
3638+478403539+478722466+481360957+484771989+488210859+492566565+497346306
3628+499285639+497490573+494446508+492157218+491641688+493023053+494810398
3618+495363257+495275304+495709963+496303519+496790370+498523897+502142709
3608+505135163+504527267+501409298+499564014+500924944+503943465+505918095
3598+506054119+505320882+504582362+504187877+504797166+507497080+512587823
3588+518045648+520662312+519764953+517049131+513809304+511105848+510479317
3578+512441930+515149508+516021148+514569769+512701205+512468752+514269914
3568+516305270+515790147+512465849+509210985+508187066+508691508+508702480
3558+507368720+505664104+505264800+507080418+510312118+512981379+513957983
3548+513879551+513712468+513517925+512918215+511817315+510430608+509057603
3538+507746601+506318502+505118966+505314902+507430259+509801406+509969360
3528+507763031+505252783+503838617+503283261+503082680+503176381+503514901
3518+503797514+503915714+504117862+504417950+504594728+504664626+504631651
3508+504068109+502877223+502205583+503186599+504895221+505470026+505134525
3498+505601230+506919199+507262421+505831651+504119082+503757398+504434553
3488+504554437+503356236+501408717+499309442+497222010+495537481+494707002
3478+494476639+494294287+494134055+494051617+493514722+492204881+490969757
3468+490916579+492004243+493343634+494405811+495174404+495652256+496035362
3458+496711589+497290167+496361052+493156115+488832282+485432803+484345893
3448+485785894+488534691+490214634+489108450+485899131+482915124+481736981
3438+481898490+481865138+481038025+480257793+480294919+480884992+481456719
3428+481658055+481046879+479369171+477233582+475636717+474966121+475044902
3418+475772072+477175179+478829897+479798751+479695906+479280927+479232277
3408+479143975+478588474+478048590+478110012+478824527+480012539+481213671
3398+481536052+480525137+478820492+477329548+476350969+475723799+475145308
3388+474412188+473974161+474844176+477258488+479868591+481081828+480957967
3378+480860899+481452859+482000958+481706066+481007982+481254455+483254775
3368+486324124+488911759+490120758+490271179+490088306+489906361+489541252
3358+488593965+487372600+487118841+488444009+490302703+491191006+490661310
3348+489465896+488738813+489037565+489928596+490702065+491329525+492027232
3338+492371093+491922153+491172544+490852428+490737362+490124532+489169350
3328+488673617+488731788+488751063+488676984+489043893+490127783+491595360
3318+492553503+492116928+490487841+488924880+488276461+488327027+488579858
3308+488794604+488866708+488781309+488530511+487989901+487142121+486294399
3298+485845517+486040640+486815387+487652078+488113210+488470192+489330047
3288+490805751+492332835+493180266+493071529+492588974+492639134+493355883
3278+494164940+494787176+495286334+495288482+494235187+492437566+491107813
3268+491308277+493088191+495248018+495954491+494409411+491831064+490052544
3258+489620032+489905664+490416433+491176840+492101601+492756928+492982240
3248+493288830+493952226+494119193+492849294+490468103+488029901+486229697
3238+485355038+485406155+485977418+486763979+487894749+489095678+489341135
3228+488103341+486136664+484466387+483343135+482506938+482110334+482857243
3218+484865981+486654138+486128420+483113295+479809171+478186616+478068532
3208+478231580+478243568+478215731+477755353+476576572+475410795+475020954
3198+475005134+474641883+474232420+474586092+475669779+476570476+476498343
3188+475277819+473223653+471167368+470156569+470421794+471001098+470814508
3178+469687077+468170530+466817380+465685420+464561211+463713169+463851515
3168+464978540+466088700+466417322+465977060+464737872+462552966+460026811
3158+458365736+458148871+458833719+459500744+459744459+459639786+458996447
3148+457324603+454792527+452470406+451260566+451130580+451514644+451937024
3138+452245907+452642453+453301060+453798274+453374064+452018853+450636617
3128+449834933+449251885+448333133+447171681+446289213+446051477+446507152
3118+447448953+448349795+448366863+446883582+444316121+442005031+440975190
3108+441034755+441275916+441149617+440754929+440374929+440163927+440244566
3098+440774349+441690024+442491853+442597397+441938587+440966076+440110662
3088+439464769+438971967+438709761+438781024+438933680+438636728+437789151
3078+436976495+436651125+436488106+435980529+435290950+435030950+435388105
3068+435776175+435363954+433948569+432252632+431225897+431072922+431215360
3058+431207319+431221253+431463807+431654954+431444910+430993444+430733473
3048+430716027+430559336+430089089+429645896+429478088+429284212+428818755
3038+428435881+428465576+428574314+428284792+427616984+426802266+425928013
3028+425265546+425337999+426151207+426837158+426559857+425385401+423851699
3018+422275007+420869201+420006008+419956312+420552104+421207895+421324180
3008+420842931+420293265+420114716+420165717+420075500+419757415+419363656
2998+418961247+418392654+417559475+416782813+416516572+416653931+416515817
2988+415738807+414785018+414268211+414185076+414164176+414089343+414030446
2978+413916455+413733987+413632420+413464930+412829197+411855322+411228703
2968+411274189+411681504+412048849+412112622+411722317+411065539+410601330
2958+410478340+410309399+409705045+408818107+408218077+408273172+408757149
2948+409117033+408997497+408394623+407513259+406637148+405949397+405444520
2938+405194970+405494506+406414303+407440254+407911546+407614246+406718715
2928+405546639+404571719+404105274+403831341+403152995+402081413+401299671
2918+401322980+401964548+402590092+402659178+402074069+401210179+400649540
2908+400721006+401176913+401457203+401288379+400845331+400420454+400162747
2898+400096013+400158857+400257493+400364924+400399438+400116100+399459525
2888+398797957+398428610+398170264+397794096+397498972+397598014+397987826
2878+398221440+398011686+397488261+396979698+396677027+396561381+396537927
2868+396530380+396489364+396356940+396051657+395552730+394953775+394359116
2858+393843412+393510988+393375516+393244979+392989478+392752584+392630523
2848+392467736+392203643+391992206+391822162+391453918+390888577+390605384
2838+391095137+392194964+393144340+393440451+393283934+392927301+392160334
2828+390888722+389633395+388900129+388477516+387855339+387077109+386744395
2818+387266398+388373511+389351247+389622655+389126167+388250317+387510753
2808+387214642+387249765+387192407+386757225+386067733+385385846+384840011
2798+384581375+384826513+385485672+386027269+385913161+385027791+383719314
2788+382615946+382229502+382534088+383070228+383470025+383610083+383330663
2778+382489995+381358006+380516032+380243434+380325640+380488485+380662825
2768+380794465+380761867+380539196+380180270+379677338+379036031+378388281
2758+377885262+377589180+377517105+377639920+377802214+377783288+377504652
2748+377106422+376739514+376348889+375821864+375324883+375237191+375636436
2738+376050718+375947583+375410398+375028686+375064738+375108250+374786189
2728+374414288+374493127+374875449+374943722+374449875+373751007+373266972
2718+373025753+372750891+372225869+371534141+370950251+370629554+370526651
2708+370599279+370877218+371257595+371413822+371058814+370241078+369335795
2698+368753385+368598784+368599481+368438726+368117942+367873414+367838697
2688+367923776+367927898+367726418+367435881+367334749+367528653+367797100
2678+367852020+367609814+367151265+366618464+366241308+366244066+366572252
2668+366879596+366908449+366682847+366281860+365742353+365210306+364820234
2658+364477215+364109145+363925865+364101569+364503049+364950161+365362759
2648+365558260+365344878+364829697+364284936+363838782+363541888+363478288
2638+363596401+363672628+363630219+363670712+363906735+364052773+363715792
2628+362956807+362322555+362242497+362569667+362820117+362748912+362549231
2618+362523890+362735617+363016169+363169464+363082120+362716604+362094282
2608+361325689+360666937+360452017+360778867+361307460+361606647+361642670
2598+361640609+361600987+361337852+360898403+360583338+360581596+360829346
2588+361178229+361522380+361823861+362106618+362330102+362284877+361824935
2578+361197358+360874107+360994136+361197823+361119709+360844238+360704644
2568+360822380+361042554+361186560+361192278+361115616+361118026+361319303
2558+361594194+361693062+361563890+361321596+360969608+360455703+359959012
2548+359809491+360082437+360483686+360674949+360570885+360286821+359939999
2538+359589578+359310158+359219737+359407749+359852336+360387401+360761683
2528+360844092+360782728+360789637+360797997+360579680+360178606+359923715
2518+359986211+360194339+360354020+360529172+360839825+361118345+361019593
2508+360495935+359918083+359617909+359562031+359601102+359767633+360144615
2498+360640086+361052046+361249463+361231291+361107721+361038316+361091059
2488+361160958+361089346+360842931+360557213+360436748+360589898+360897851
2478+361039651+360754804+360177009+359801973+359981567+360539245+361028272
2468+361250101+361320987+361338200+361225602+360915065+360537996+360341857
2458+360427634+360677997+360942119+361104847+361017300+360666618+360345050
2448+360299128+360333468+360132017+359807691+359767691+360172481+360793555
2438+361276633+361365805+361002380+360390391+359904440+359822002+360158606
2428+360728040+361242438+361444702+361362728+361352278+361701248+362289347
2418+362756314+362882961+362756343+362682758+362908477+363358840+363750190
2408+363928535+363941598+363874224+363805952+363839856+364032657+364343572
2398+364687781+365016025+365400060+366066359+367275416+369223168+372204185
2388+376810631+383742710+393391046+405787568+420979767+439172664+460302515
2378+483664761+508265092+533445888+558774667+583331311+605548797+623907528
2368+637600133+646778018+652523101+656102841+657629112+655743828+649358861
2358+638392644+622454697+600852074+574801728+548680090+528135232+516917288
2348+516200945+525438337+541804963+559487642+572644514+579461469+582137464
2338+584091021+587060892+590249631+592064378+592057411+590710125+588401386
2328+585365333+581657290+576968289+571231973+565147152+559311387+553181166
2318+545796199+537285425+528794217+521043792+513626488+505699285+496949499
2308+487795997+478871841+470493057+462639439+455273572+448456094+442174872
2298+436307583+430828248+425858841+421410014+417234279+413094713+409110763
2288+405685362+403099381+401294736+400015722+398996302+397979321+396736214
2278+395216301+393625472+392270494+391324194+390740101+390363642+390085006
2268+389852118+389596791+389268663+388910028+388568199+388183438+387698880
2258+387201493+386788517+386382740+385848981+385219692+384661259+384301549
2248+384238966+384591303+385300563+385958705+386098241+385712522+385280069
2238+385192464+385355744+385458821+385417776+385365556+385370142+385357254
2228+385205614+384792377+384070809+383187645+382394437+381811301+381374378
2218+380977484+380562302+380134116+379788020+379652752+379724189+379818470
2208+379759689+379545553+379297338+379154551+379231619+379554058+379997628
2198+380366772+380568282+380680648+380841925+381106395+381461229+381916991
2188+382436410+382845816+383045351+383242449+383730460+384485729+385178124
2178+385546368+385641724+385696499+385808894+385849794+385732493+385629271
2168+385774699+386188952+386740563+387330607+387864918+388180158+388167241
2158+387927357+387696645+387621899+387676471+387781377+387909156+388049040
2148+388168227+388270085+388441842+388789302+389314672+389886022+390362975
2138+390729419+391045094+391286429+391377721+391422075+391700856+392322453
2128+393068665+393748172+394500480+395564167+396902223+398209509+399204401
2118+399855925+400366172+400911311+401418858+401703531+401785970+401900193
2108+402173953+402448234+402483793+402290702+402151282+402296188+402660426
2098+403026029+403294679+403502952+403657872+403714592+403676827+403591573
2088+403467364+403291950+403104896+402991021+403025332+403231689+403555695
2078+403912996+404275695+404634970+404914651+405051864+405142924+405405420
2068+405959121+406620805+406988033+406908962+406784666+407133200+407955552
2058+408779819+409229573+409330444+409353201+409564000+410117237+411031228
2048+412148965+413171694+413885047+414356426+414820867+415442870+416242610
2038+417121507+417929345+418641798+419432713+420445369+421576691+422617939
2028+423548999+424567374+425801250+427115039+428340554+429584009+431048451
2018+432632922+434003692+435051240+436014520+437160704+438563201+440185959
2008+441996120+443916614+445785991+447477400+448968634+450228054+451232989
1998+452204920+453577780+455570292+457895808+459945882+461244605+461772269
1988+461924228+462242283+463120861+464576102+466288613+468014100+469817817
1978+471705394+473368704+474679183+476072914+478049954+480657590+483658143
1968+486661918+489056375+490497246+491490977+492883430+494926044+497263577
1958+499574174+501833217+504124423+506466369+508767270+510956588+513224456
1948+515939290+519225446+522755491+525911893+528171401+529704696+531423826
1938+533931752+536770070+539133670+540934600+542661045+544624355+546802992
1928+549073530+551347783+553644911+556107960+558981982+562445438+566098211
1918+568805557+569865760+570128576+570913656+572518592+574424834+576177984
1908+577673892+579023733+580383211+581738277+582861296+583600919+584212241
1898+585272793+587052939+589008179+590410095+591417527+592646845+593914829
1888+594442724+594125453+593530968+593051838+592851548+593077673+593698109
1878+594474423+595190301+595798313+596588328+598158256+600698635+603140958
1868+603681394+601848533+599024788+596653175+595228908+594630939+594537529
1858+594605627+594615613+594450330+593919647+592919473+591782810+591186061
1848+591747280+593546643+595386818+594931317+591387048+586928352+583914766
1838+582870818+582864722+582831050+582696594+582992385+583471689+583073720
1828+581694620+580317783+578998769+576819842+573820770+571131421+569360855
1818+568159461+567062276+566156557+565889561+566358241+566891303+566640563
1808+565641433+564820998+565091709+566709068+569025586+570635804+570469825
1798+569080216+568222392+569249911+572025297+574567824+574530494+572156095
1788+569785760+569057168+570122364+572373686+575079870+577390873+578611831
1778+579124923+580452587+583999062+589618513+594745714+596295149+594499735
1768+591936889+590367483+590385596+591926961+594110881+595720577+596728299
1758+597986355+599530390+600971668+602958432+606572367+611432863+615299977
1748+616442909+615490282+614337712+614614403+616712575+619411271+620974987
1738+621646279+623828689+628894642+634171045+635286169+632893193+630210057
1728+628639199+628532959+629866892+631862597+633945907+637167389+642993111
1718+650111837+653629168+651335350+646960776+644155608+643790847+645418772
1708+648401299+651744407+654274219+656447050+660419186+666740292+672006651
1698+673250193+671606419+668112542+663723106+660923918+661017502+662944644
1688+665563804+669685779+675877945+680644043+680212461+677120674+675121370
1678+675534549+678207119+681849269+684907964+687543379+690439636+691873076
1668+689694730+686283581+685884858+689375716+693580769+695132700+694862802
1658+695872962+700304430+708909485+718994657+722396342+718697588+716605280
1648+718978982+722026705+720634774+715801273+711840401+710888470+713546875
1638+719808242+727557854+731243835+728210162+723542758+722212249+725191176
1628+730754082+736524418+741831881+747444424+753349390+758780626+764204141
1618+770615117+776691172+779432131+779359446+779641536+781506501+783862206
1608+785397475+785949870+785994747+786111786+787027723+789076374+791533676
1598+793121427+793200556+792389525+792226332+793935186+797150572+800264014
1588+802371997+804162419+806383436+808530200+809752494+810411769+812221117
1578+816712381+822628437+825236507+823135839+821088755+822906811+827708555
1568+831986351+834956744+838449460+843299680+849756577+858816437+868813945
1558+871511653+865450983+859516582+857792924+858824274+859527845+858696320
1548+858310660+860826423+865831360+870711362+874640711+878300510+878303703
1538+871810057+864080184+860165581+859873273+859677569+858006567+857091153
1528+858660849+861788746+864589095+866346948+867289126+867987065+869375687
1518+871589970+873231248+873233105+872803497+874244485+878767622+886096740
1508+894788181+901129897+901307487+897723857+894575409+893424058+894470213
1498+897527341+901814774+905472308+907368564+908851700+912153763+917535768
1488+922029878+922849094+920721198+917972924+916184302+915769439+916462096
1478+918161719+921397947+926864133+934133164+940259843+941845098+939736708
1468+937311685+935950175+934565210+932311276+930683409+931451769+934205384
1458+936385763+935383208+931983729+928463785+925374727+922921954+921914406
1448+922265117+921877715+919319920+916077248+914207929+914125259+915279396
1438+916942096+917207989+914299192+910500816+910160612+914854025+921909413
1428+926893915+928196963+927461636+927048458+928468546+931545935+934289971
1418+934602598+932864948+930484396+927062623+921782795+916293678+913891586
1408+915760789+919584710+921903259+921635451+920797482+921483578+923615249
1398+925639633+926278530+925034814+922393419+920477424+921593129+925419604
1388+928483756+927710519+924886251+924480735+928056354+933270754+937274065
1378+940404807+945218800+951944319+956912507+956773871+953070531+950089862
1368+950456190+954073551+959642262+965792802+970601977+972208596+971085286
1358+969916055+971018929+974494402+978649644+981860676+983381838+983201286
1348+982554087+983569936+987144974+991761058+994993454+995936735+995909565
1338+997631946+1002610062+1009363272+1015335177+1018978371+1020020694
1330+1018698081+1015490532+1012188586+1011878107+1016253377+1023529433
1321+1030216345+1034987436+1039396030+1044707498+1049773626+1052469592
1312+1053684571+1057240335+1063968466+1069516219+1070259093+1067795463
1304+1064989888+1063373981+1064626579+1068588497+1071855378+1072861126
1295+1073546177+1073741823+1070687656+1064797377+1059309305+1054859143
1287+1049769678+1044201722+1040102794+1038140180+1037291530+1036736638
1278+1036521602+1036312371+1034690309+1030538435+1024564325+1019339939
1270+1017163102+1017854307+1018820926+1016511375+1009033171+998819058+991521987
1260+990670549+993569593+993615456+987813189+979907816+975144388+974704098
1250+975622879+974651848+970805402+964572830+956971781+949403650+942731426
1240+936242366+928458444+919286480+910432949+903249433+896992188+889821154
1230+881389800+873545965+868011913+864398907+861176031+857791124+854813067
1220+852474140+850363835+848476809+847343688+846998840+846742817+846067171
1210+845223687+844878897+845759943+848588507+853419453+858886916+863164305
1200+865863813+868140737+870984164+874222308+877030379+878778594+879569015
1190+880421382+882501441+885734301+888785566+890866089+892992476+896845715
1180+902321653+906765197+907875502+907073644+908260873+913845955+922560328
1170+931113946+938144022+944988321+952594827+959777008+965407141+969978522
1160+974152341+977912111+980883839+981781488+979465087+975268742+972349496
1150+973370164+978704216+986098588+992458765+996646285+999346896+1000092441
1140+998084312+994678795+992341494+992256965+993485529+994162336+993149273
1130+991875659+993851277+1000023703+1006994273+1012184406+1016950504+1022161421
1120+1024680667+1021213960+1014628993+1010809311+1012179181+1017598400
1111+1024454136+1030152368+1034226448+1038115681+1041584014+1041246365
1103+1035728336+1028603108+1023767808+1022866907+1026155153+1032674169
1094+1038928337+1039847119+1034894199+1030255939+1030245372+1031313588
1085+1028723862+1024135413+1020349983+1015595612+1009303011+1005915956
1077+1007664926+1010258832+1009538831+1006991602+1006425564+1008490703
1068+1009059528+1005035839+998668579+993373366+990531914+989845005+990476413
1058+991196297+991679200+993499230+996434035+996791075+992999955+988692842
1048+987723552+989551594+990594033+989846166+989701144+990449824+988882914
1038+984905205+983907469+989410055+998233049+1005114678+1007709164+1004826725
1028+996256387+985396585+978062706+977392052+981498063+985885177+987102362
1018+984692375+981071241+979118033+978789324+977472633+974978582+974910658
1008+978994491+983786598+983993275+977882619+968827230+960740433+953961969
998+946633721+938288637+930311739+924314291+920570545+918105289+915570949
988+911887638+906767751+901234918+897140287+894771751+892596192+890187018
978+888453374+886935521+883881935+878952992+873867532+870403380+869111013
968+869123263+868345614+865094698+859674434+853801514+849288769+847262295
958+847423746+848101308+847941947+847725749+849287433+852460091+854646913
948+854329468+853833212+856563547+862358499+868136267+872623352+877214762
938+882450468+887391661+892218194+898055004+904555965+910352601+915141514
928+919376640+923215248+926943088+930813394+934055544+935735080+936243702
918+936231104+935665937+935172932+935791278+937790466+941010961+944661471
908+946288351+943480280+937343325+931484222+927658444+924513885+920862504
898+918501748+920474754+927441085+936693397+944458394+948387394+948199005
888+945327538+941960511+939558478+938523471+939224487+942193080+947028671
878+952154827+955683363+956430475+955193725+954886555+957748269+962097183
868+963906879+962209404+959836514+959228270+960383800+962284004+964651901
858+967831525+971553907+975000063+978061545+980955247+982860618+982404421
848+979612663+976594839+975737480+976582995+976168946+973824794+972392805
838+974375737+978898468+982797222+984826367+987097253+991127560+995824340
828+999782194+1002120192+1001878682+999138478+995399608+992162800+990363205
818+990890346+994702482+999204661+998542483+991796239+986404887+988952813
808+997402628+1004793865+1008081995+1009898657+1011230095+1011410414+1013029573
798+1018363219+1025477765+1030250597+1030292513+1026485951+1022424411
790+1022331639+1025626270+1023851988+1011155204+993598737+979792054+972628160
780+970808247+972902239+977692430+982007207+982048775+976888017+969182876
770+963056371+961577937+965323890+971246853+974344620+972721629+969127317
760+966510131+966355937+969751584+976465027+983472404+985882971+982051329
750+977138816+977330746+982552577+987983059+991705209+996219347+1001942659
740+1005597349+1005559613+1005057320+1008676131+1016190794+1021127110
731+1016423363+1001541150+984502651+974957566+975813184+982828572+988935512
721+990903699+991276878+992841697+995692322+999510379+1006953518+1019721129
711+1031188769+1031341686+1020416282+1007316827+998493369+994294121+993995834
701+997766286+1004663009+1011561009+1012927512+1004079670+987689996+972022703
691+963415500+965421829+976803025+989503408+994488374+987914902+972749728
681+957025482+948244694+947578511+951371430+957838023+968230655+979924187
671+982808136+968882730+946956044+937815662+945287189+955082317+958052188
661+959634308+968114544+977828976+976677161+966039652+955639705+947552851
651+942858277+947003126+958243480+964624441+958391114+946405448+940279175
641+940011947+936016532+924827673+916058090+917996610+926927180+935742047
631+943589772+949489281+949508323+943170439+934122365+926250025+917775188
621+908585227+904476894+906824703+909731120+912501107+919216233+926071679
611+925070808+919396611+910077477+893920024+885060629+894612506+913290077
601+919905755+908716780
##END=
