##TITLE=<SNM>
##JCAMP-DX=4.24
##DATA TYPE=INFRARED SPECTRUM
##DATE=29/4/2025
##SAMPLING PROCEDURE=Instrument type and / or accessory
##ORIGIN=Admin
##XUNITS=1/CM
##YUNITS=ABSORBANCE
##RESOLUTION=4
##FIRSTX=4497.3318
##LASTX=599.83466
##DELTAX=-1.4281778
##MAXY=2.0661907
##MINY=0.43834966
##XFACTOR=1
##YFACTOR=1.9242901e-09
##NPOINTS=2730
##FIRSTY=0.45353082
##XYDATA=(X++(Y..Y))
4497+235687346+234550708+234310172+234869594+235688802+236645461+237787660
4487+238673882+238631895+237697956+236689941+236211565+236193646+236377466
4477+236600408+236739950+236902955+237414583+238181846+238482519+237893315
4467+236981074+236727188+237600246+239267500+240866593+241525367+240951093
4457+239697261+238675477+238375842+238711129+239345107+239808848+239648320
4447+238975345+238573477+238918568+239324323+238746270+237339964+236348753
4437+236402603+236841222+236849616+236385659+235869370+235831581+236685636
4427+238056491+238833433+238476789+237488411+236348613+235141631+234295815
4417+234516883+235842468+237472645+238439774+238166420+236859699+235489727
4407+234887095+234994190+235361196+235829955+236292797+236487830+236342914
4397+235883727+234983225+233849096+233183709+233195061+233172682+232509247
4387+231376960+230204406+229170929+228320235+227798123+227871905+228627042
4377+229638092+230340308+230656128+230806031+230842845+230786703+230809531
4367+231050826+231498893+231960558+232042858+231503771+230693964+230303619
4357+230656314+231462110+232130997+232256244+231937621+231606097+231543249
4347+231721540+231967217+232097281+232096444+232165100+232303419+232081933
4337+231289348+230536767+230702575+231937388+233499343+234449977+234500761
4327+234274861+234457922+234716656+234160006+232819739+231674118+231245054
4317+231270577+231590718+232168941+232466811+231910657+230824988+230163752
4307+230397875+231129099+231748333+232085712+232425026+233108270+233997589
4297+234290457+233354628+231786494+230989790+231642941+233093108+234265429
4287+234648402+234407170+233917891+233283773+232381878+231314654+230484884
4277+230238386+230663051+231587125+232582177+233249004+233629050+233896766
4267+233821544+233201767+232493511+232209936+232086842+231664128+231191498
4257+231125103+231390000+231863142+232736200+233805623+234368436+234199778
4247+233741303+233360916+233171397+233194643+233249964+233266923+233635586
4237+234464660+234990102+234588265+233656835+232700114+231481469+229873269
4227+228772747+229283709+231228776+233158108+233961736+233932465+233917055
4217+234054475+233945443+233570539+233305177+233256423+233268797+233329709
4207+233461166+233478729+233235313+232806760+232291029+231921638+232257436
4197+233487309+234738415+234892159+233984162+233068575+232811561+232901125
4187+232855732+232798645+233097661+233668652+234165644+234628780+235403012
4177+236496580+237414815+237626110+237021403+235958283+234974336+234452192
4167+234477189+234885020+235407209+235828762+235990157+235722085+235061205
4157+234397150+233997404+233640650+233140112+232847121+233176538+234036292
4147+235090398+236161665+237100916+237662165+237741011+237490487+237072729
4137+236552521+236121552+236157994+236822870+237685907+238122529+238029186
4127+237722581+237291907+236581142+235745300+235217101+235133469+235330717
4117+235759038+236461610+237269326+237819750+237796147+237080271+235920850
4107+234981460+234893646+235661451+236716781+237596374+238262938+238670459
4097+238457445+237438480+236100752+235103656+234494070+233936739+233531232
4087+233788091+234842445+236190920+237228083+237787133+238042180+237952880
4077+237225698+236103509+235587065+236284945+237574429+238408226+238429583
4067+237911884+237240132+236814119+236894654+237280431+237495969+237360253
4057+237101210+236993355+237150553+237547047+237985651+238134485+237874916
4047+237556943+237573019+237760835+237594500+236900818+236041141+235439176
4037+235208537+235308493+235821731+236755546+237705514+238164144+238135337
4027+238068927+238259128+238573260+238740431+238780311+239046324+239730559
4017+240433410+240527542+239890544+238963481+238218861+237856842+237835717
4007+237884534+237667105+237293347+237426446+238386791+239430567+239599581
3997+238960430+238246274+237789905+237605419+237907238+238721490+239468929
3987+239586711+239252492+239101459+239417728+239786886+239569149+238707598
3977+237851390+237609399+237992543+238674192+239430397+240126278+240573385
3967+240654772+240470951+240266207+240349390+240986404+241977476+242521333
3957+242089001+241254058+241059179+241788452+242877281+243724784+244006377
3947+243475824+242225771+240975935+240517491+240885875+241460691+241821471
3937+242006345+242158416+242424521+242976586+243774236+244457681+244661093
3927+244387151+244107216+244362511+245044035+245425924+245217928+244996969
3917+245232967+245472635+245108076+244363347+243829789+243548181+243151563
3907+242701065+242729562+243515208+244770047+246029702+246943012+247214321
3897+246789795+245992052+245270338+245013014+245326944+245773277+245930521
3887+246150380+246814389+247314664+247038740+246615313+246669070+246620641
3878+245991278+245514389+245895147+246845100+248009957+249403114+250326258
3868+249928851+248909452+248593136+249000069+249085017+248483331+247601259
3858+246755366+246439190+247867008+251400746+254058034+253581284+251642814
3848+250248728+249815560+249833990+249912387+250003392+250307859+251274724
3838+252869079+253941661+253673930+252773165+252259989+252196490+252199944
3828+252281052+252443375+252553445+253155194+254990501+257000771+257175004
3818+255867385+254835379+254652782+254660139+254348144+253791913+253504822
3808+254137670+255507054+256748542+257923419+259574194+260989467+261178755
3798+260718716+260648620+261236802+262364628+263974268+265905211+267861089
3788+269673429+271316925+272720303+273871330+275214121+277538910+281174895
3778+285447756+289406685+292871442+296462917+301011701+306785821+313075176
3768+318929149+323969257+328091765+331489213+335179002+340402667+347123936
3758+353603880+358276037+361545466+365750120+373757125+385524542+396165000
3748+402150028+405743082+410928555+418039519+423418988+425542873+426581708
3738+429685391+436099049+443074931+446826298+447266451+446517200+445632217
3728+444958947+445090404+446090676+446847268+446427807+445028610+443268989
3718+441704541+440888694+441127789+441993010+442282656+441342166+440494322
3708+441379088+443786610+446347830+448424726+450691312+453766312+457097072
3698+459954411+462489395+465309998+468399029+470780223+471377511+470385974
3688+469403266+469436904+470233578+471697729+474151745+477287301+479992213
3678+481387352+481165882+479512567+477241210+474861070+472158543+469143510
3668+466430607+464418324+463275258+463383237+464903050+466971986+468413030
3658+469182724+469925626+470251234+469202486+467252030+466151678+466839351
3648+468236721+469062945+469177799+468703636+467772531+466924191+466788986
3638+467455534+468482785+469490801+470730167+472983558+476799539+481473896
3628+484908885+486082616+486137039+486398777+487361507+488982391+491000374
3618+493043600+494924271+496629592+497908204+498608484+499394596+501133277
3608+503760442+506622738+509387369+511880599+513980355+516102536+518804908
3598+521780881+524021852+524981330+525127159+525475441+526922153+529554646
3588+532369828+534208063+534837597+534591285+533964167+533833887+534860208
3578+536599014+537967174+538227487+537183138+535370179+534340202+535610420
3568+538895429+541968323+542821681+541220589+538139457+535034721+533259427
3558+533054063+533539997+534002948+534570222+535660351+537262310+538941830
3548+540321637+541453954+542670090+543873711+544432560+544230108+544185381
3538+545126335+546520948+546768499+544944637+542179324+540587897+540746302
3528+541148666+540421809+538710819+536628936+534874519+534655279+536424068
3518+538683128+539656420+539265455+538367741+537495551+536907152+536654149
3508+536520524+536607315+537455469+538958184+539940088+539587532+538620744
3498+538496721+539914689+542412564+544931441+546096654+544657685+541041678
3488+537563014+535931196+535665122+535633837+535685379+535948480+535926116
3478+535168532+533958654+532816672+531955013+531398642+531218926+531801254
3468+533774849+536905294+539323998+539134989+536743915+534242693+532735394
3458+531628662+530389357+529722963+530429067+531880921+532533438+531717621
3448+530035128+528053294+525896203+524243074+524176107+525486220+526376004
3438+525851476+525168913+525543462+526035652+525196667+523253303+521044485
3428+518454180+515568220+513808692+514476386+516980798+519206033+519514574
3418+518143564+516470394+515428306+515299668+516347733+518346790+519959621
3408+520160028+519993136+521055016+522649541+522477197+519982294+517251487
3398+516451159+517723080+519467585+519873015+518623334+517260036+517273882
3388+518477628+519968727+521548570+523220532+524446455+524732601+524033251
3378+522781742+522102091+522980786+525037580+527094250+528695465+530101600
3368+531564791+533552016+536482549+539587346+541331232+541363755+540931098
3358+541192836+542058150+542677090+542570722+542024759+541486540+541143338
3348+541162233+541770579+542713207+543222681+543112349+543291260+544302404
3338+545153717+544835171+543775893+542687621+541518692+540261421+539180956
3328+538036310+536527276+535285865+535130062+535836103+536794899+537943943
3318+539039710+539239127+538238204+536851397+535813801+534876997+533708934
3308+532809114+532793751+533425948+534104360+534583479+534618666+534012674
3298+533512554+534459703+536940047+539347972+540343938+540182683+539757770
3288+539634676+540190117+541576615+543301667+544557141+545074545+545041898
3278+544480075+543414478+542291515+541769154+542170527+543385238+545005781
3268+546186667+545973622+544277004+542149278+540883707+540926638+541652937
3258+542036901+541501284+540320026+539428755+539819162+541633732+543741139
3248+544810515+544766655+544317086+543461684+541808183+539942070+539043303
3238+539275057+539744017+539978497+540351682+541080087+541592288+541223873
3228+540242217+539441207+538944803+538251462+537211263+536148392+535312380
3218+534910388+535071643+535382073+535232464+534818640+534968744+535761825
3208+536033165+534648278+531949252+529512892+528469596+528358148+527810637
3198+526359092+525050651+524811277+525180312+525590110+526574801+528412354
3188+530031473+530595154+530595216+530398464+529447659+527568289+525663148
3178+524620782+524366416+524258004+523923661+523297659+522098993+520044368
3168+517660851+515979256+515276313+514963528+514516623+513805997+512962551
3158+512366626+512239660+512287578+512155191+511785599+511056884+509755630
3148+508177150+507047217+506606321+506317945+505585854+504405897+503205311
3138+502352015+502023898+502257108+502793407+503041113+502496977+501129220
3128+499280670+497385503+495777195+494689264+494352660+494769768+495374831
3118+495474663+495117027+494998610+495355999+495614391+495307833+494520885
3108+493410343+492095521+490982284+490560282+490827007+491159584+490811644
3098+489644108+488403006+487982646+488306922+488338176+487471468+486422535
3088+486161138+486405777+486035380+484852449+483841182+483576284+483449473
3078+482739963+481675480+481043438+481161638+481620964+481928762+482006354
3068+481917549+481582029+481127844+480965877+481089467+480883546+480079004
3058+479336505+479262723+479390680+478966015+478254987+477972744+477823754
3048+476885680+475269071+474156422+474252351+475056366+475535888+475101868
3038+473998419+472874434+472115581+471754042+471774175+472056171+472192027
3028+471793504+470925929+470019046+469404226+469006694+468431181+467374101
3018+465992901+464757437+463923562+463353377+462922021+462783408+463027335
3008+463387759+463474024+463132092+462548154+461998133+461461462+460675630
2998+459691465+458978454+458729757+458636864+458561873+458727527+459057595
2988+458996110+458233571+457178907+456438639+456082520+455680374+454956398
2978+454061162+453180237+452324215+451676592+451636480+452157570+452503374
2968+452109218+451283149+450618057+450269094+450202064+450420220+450606255
2958+450287741+449530188+448828050+448426646+448260776+448229367+448108163
2948+447560899+446556848+445561006+445050013+444871009+444367482+443368108
2938+442640137+442817623+443339054+443184180+442320136+441586712+441404549
2928+441393088+441121346+440613575+440166793+440077678+440391764+440611221
2918+439978807+438408659+436749397+435812221+435557701+435476361+435355714
2908+435312813+435319721+435168068+434826972+434499506+434344972+434326078
2898+434292687+434141653+433879854+433429696+432526499+431213413+430216176
2888+430170922+430703009+430853454+430182011+429011811+427884790+427242712
2878+427416667+428390672+429534172+429994241+429562359+428815555+428287774
2868+428058312+428127850+428394575+428319461+427430358+426089796+425087109
2858+424620906+424227804+423588451+422918929+422504207+422249377+421911998
2848+421471597+421066446+420869632+421086456+421671261+422088772+421798692
2838+420884376+419843744+418991346+418356857+417897623+417557891+417204313
2828+416669253+415963986+415377477+415210956+415456401+415884535+416280177
2818+416369447+415833644+414710618+413494700+412641838+412240124+412155904
2808+412140819+411846155+411091917+410075166+409139601+408511462+408279150
2798+408349587+408427551+408241949+407750254+407099410+406525136+406173323
2788+405856481+405228775+404342584+403663677+403374619+403078190+402443577
2778+401802366+401723070+402186516+402598451+402557254+402159072+401554598
2768+400710873+399704685+398861301+398477120+398552792+398754128+398605821
2758+397930506+397073091+396436371+395955393+395357300+394739320+394469684
2748+394598973+394719837+394451099+393838663+393180076+392664127+392364290
2738+392373676+392637644+392780438+392441015+391690958+390861916+390162286
2728+389652161+389302827+388985830+388657992+388444915+388298714+387896505
2718+387185353+386632513+386591596+386761648+386565205+385823450+384860131
2708+384110136+383727628+383478961+383047265+382531347+382432971+382922560
2698+383386966+383078239+382035315+381000817+380603161+380893117+381423097
2688+381537177+380858456+379689247+378724690+378361169+378497644+378861320
2678+379175033+379120301+378561111+377773792+377149958+376780180+376549293
2668+376395968+376265687+376078444+375918955+375967647+376113167+375968236
2658+375414838+374811045+374481473+374318204+374076228+373737177+373356589
2648+372851544+372169260+371458851+370925898+370644336+370570864+370627052
2638+370666576+370448946+369858720+369184955+368922721+369192946+369611819
2628+369782801+369662185+369442975+369317558+369337475+369369627+369207195
2618+368729872+367974735+367138785+366490017+366177852+366147156+366214402
2608+366171254+365927761+365612529+365419339+365407321+365555660+365815941
2598+365971652+365740239+365174390+364666526+364435639+364286898+363972843
2588+363572121+363386396+363548023+363837390+363928859+363749236+363464174
2578+363193794+362976691+362935836+363165979+363526124+363809420+363921735
2568+363700481+362976753+362024090+361450002+361489835+361808536+361975088
2558+361828639+361506903+361277627+361222677+361181976+361098251+361071365
2548+361019451+360765085+360434986+360297272+360353801+360488263+360725159
2538+361012389+361097817+360896636+360665997+360635208+360774502+361023726
2528+361379565+361642108+361479769+360922407+360425384+360287855+360321835
2518+360193878+359847919+359538573+359591881+360112693+360843390+361347227
2508+361382415+361099180+360873869+360944647+361204433+361390871+361395207
2498+361289242+361182069+361143753+361162958+361149607+361046771+360913703
2488+360862408+360961993+361190339+361419739+361493800+361365255+361150134
2478+361059904+361234541+361566250+361763034+361679216+361475711+361359741
2468+361313774+361184206+360920022+360647412+360564213+360772705+361169648
2458+361512199+361632568+361555192+361394743+361243647+361175936+361208800
2448+361238103+361144125+360956603+360832518+360920300+361255511+361700960
2438+362049892+362263650+362463871+362665146+362747075+362680510+362537189
2428+362336286+362076469+361810209+361581087+361439873+361544382+362040569
2418+362789355+363380263+363538638+363425765+363415915+363662971+364012460
2408+364275189+364446697+364639206+364883876+365088930+365211746+365365691
2398+365670143+366089357+366510336+366865029+367097992+367167437+367153653
2388+367190978+367203368+366811350+365526295+363001626+359186482+354329559
2378+348805841+342946912+337044371+331367637+326068734+321168353+316649398
2368+312459829+308596612+305324116+303054215+301985365+302192370+304018061
2358+307923961+313829197+321116285+329435362+338479344+346619820+351179136
2348+350522902+345534646+339336698+335000029+333219903+333023553+333608793
2338+334589922+335622314+336352206+336605829+336722852+337460085+339180089
2328+341358552+343210292+344571359+345907553+347672749+349980191+352767930
2318+355823261+358652165+360823256+362499988+364234736+366262073+368337947
2308+370154468+371570918+372567132+373264903+373917606+374726887+375726043
2298+376822089+377835618+378621977+379297911+380157959+381237031+382217541
2288+382867796+383259969+383483948+383501790+383351933+383181169+383035897
2278+382838835+382544635+382174888+381791450+381534204+381544364+381741581
2268+381794362+381430748+380737809+380068814+379672149+379509934+379454860
2258+379535581+379882871+380507046+381248832+381923837+382444432+382840259
2248+383226826+383719822+384307199+384804624+384986509+384806235+384471149
2238+384223474+384052802+383735650+383173177+382522860+381936691+381380847
2228+380812056+380296851+379829811+379272542+378615008+378091068+377911351
2218+378045968+378335088+378651186+378902300+379044877+379164533+379402389
2208+379748564+380062309+380323179+380663469+381123756+381597176+382026116
2198+382457255+382961526+383639814+384566706+385620781+386512950+387054020
2188+387303925+387474658+387744109+388129436+388545646+388960616+389391755
2178+389794336+390097084+390276646+390288664+390070972+389728731+389563852
2168+389801119+390371398+391031472+391617114+392099610+392450153+392579442
2158+392466786+392297230+392358126+392738931+393198877+393434317+393449030
2148+393527738+393870227+394401787+394922536+395310775+395563840+395730485
2138+395878390+396111817+396499560+396956347+397328293+397621408+397990164
2128+398474084+398918202+399227672+399556006+400098283+400787257+401373364
2118+401752125+402032850+402364808+402877039+403652433+404586821+405430453
2108+406073770+406603998+407058337+407366940+407552975+407752330+408013788
2098+408272800+408502944+408708865+408839207+408909613+409088338+409434079
2088+409725987+409773037+409672462+409602676+409624823+409786883+410150807
2078+410647025+411098700+411396895+411522498+411460518+411236291+411025692
2068+411112174+411674678+412632173+413682191+414481033+414875715+415028854
2058+415247568+415673937+416205745+416654726+416908038+417048137+417350669
2048+418020656+418953185+419880697+420648750+421240525+421710073+422225185
2038+423023686+424175054+425447594+426546273+427468767+428479942+429743686
2028+431154777+432527615+433787456+434995104+436296080+437804370+439474505
2018+441120200+442581997+443889601+445275882+446993222+449069313+451265029
2008+453276816+454935149+456243094+457337963+458430416+459655875+460924792
1998+462029758+462974244+464033554+465359805+466705881+467726379+468428146
1988+469148807+470230264+471833337+473908251+476205255+478406206+480410621
1978+482464875+484826833+487333599+489530151+491211498+492620917+494180471
1968+496212330+498771877+501577891+504224973+506515658+508543861+510552923
1958+512773728+515333957+518230355+521284106+524135034+526489682+528450454
1948+530411721+532688684+535446067+538718377+542181678+545241872+547691303
1938+549896032+552199510+554605267+557085363+559728883+562424998+564777973
1928+566616890+568375333+570596170+573171731+575499493+577413616+579410442
1918+581742107+583818415+584982822+585501156+586227083+587613581+589336899
1908+590740246+591548753+592194331+593364933+595133909+596732398+597488309
1898+597764605+598504161+600008425+601643898+602766737+603383075+603720578
1888+603754960+603475938+603155038+603081814+603292691+603644256+604004803
1878+604352837+604726951+605020221+604954741+604457346+603851725+603444468
1868+603028413+602132682+600803674+599579299+598727056+597927099+596786170
1858+595349494+593870134+592440767+591116591+590085004+589415141+588783192
1848+587703284+586056845+584259064+582822882+581790180+580883360+580000204
1838+579087312+577879788+576235518+574574831+573521685+573085125+572474734
1828+571063147+569153050+567275477+565458305+563595352+561907965+560603551
1818+559566636+558717491+558303543+558533438+559222072+559910643+560166000
1808+559869261+559313881+558963741+559107465+559718103+560533548+561292494
1798+561962977+562667531+563472196+564387380+565411038+566421686+567264203
1788+568046194+569076666+570527282+572311620+574297296+576394543+578354261
1778+579824886+580821534+581941833+583942191+586840757+589514013+590996718
1768+591516910+591778214+592253431+593148605+594416159+595765796+597092202
1758+598555579+599967414+600959725+601921061+603682355+606178682+608339861
1748+609680825+610702315+611701130+612618482+613665309+615138660+616831127
1738+618466167+620583424+624014696+628166507+630888641+631631480+631674411
1728+631841180+632251226+632950143+633990589+635305224+636872987+638798633
1718+641036320+643143045+644684293+645659754+646217611+646570353+647242508
1708+648933922+651725873+654610068+656757804+658775507+661494481+664224607
1698+665982121+667566610+669693779+671601150+672830914+673994578+675426051
1688+676744342+677855473+679417412+681869383+684591021+687031408+689265625
1678+691398431+693601860+696179218+699083918+701845947+704080784+705556366
1668+706426760+707435673+709061854+710978332+712535686+713647932+714672209
1658+715641165+716514037+717675162+719506582+721161074+721709515+722143411
1648+723412762+724925451+725093892+723830489+722578670+722257275+722875967
1638+724067632+725182294+725117681+723527431+721571987+720252767+719662572
1628+719415640+719155389+718843782+718650065+718635754+718633400+718620267
1618+719046729+720337948+721870832+722560023+722285648+721526144+720623288
1608+719841235+719679979+720673591+722773502+725100397+726594935+727115560
1598+727635071+729281014+732338606+735987198+738948210+740575444+741351117
1588+742367341+744478403+747786334+751549719+754630480+756343453+756895859
1578+757021740+757341463+757783784+757726543+756996899+755997525+755132583
1568+754223160+752531994+749735582+746613749+744612524+744874571+747090390
1558+748064116+745753638+742731977+741336745+741813324+743307986+745053234
1548+746632272+747823937+748812036+750118184+752060804+754256304+755463456
1538+755157425+754836835+756137532+759346591+763191750+766422925+769327563
1528+772445556+775409665+777845901+780571195+784738121+790055454+795228568
1518+800136165+805358033+810552830+815137049+819388537+823688407+827944912
1508+832442093+837789533+842908131+846407735+849530374+854428864+861936307
1498+870595581+877584318+881419442+883005045+883764797+884433359+885359817
1488+886957935+889748276+894001312+899337230+904644403+908680491+911204572
1478+913028930+914884511+917211777+920678671+925319761+929731264+933105420
1468+936220872+939709635+943288905+946169197+947381863+946151913+942555606
1458+937928331+934193877+931894426+930192728+928552237+926938260+925665626
1448+925165878+925071280+923971610+921305045+918409018+916793369+916765058
1438+918268826+921493744+925177524+926999095+926860513+926747145+928140581
1428+930293768+931386810+930977631+930317247+930720354+932483630+934946814
1418+936497292+936000765+934637065+934088624+933866968+932164217+929411728
1408+928381441+930463758+934009328+936145294+935508264+933246603+932113728
1398+934306811+939395487+944526723+947046406+947094541+946625209+946384287
1388+945434845+943458028+942160429+943229805+946375304+950139495+953554784
1378+956475901+958758254+960159681+961285680+963583396+967598297+972048767
1368+975322812+977540117+980079623+982980173+984443859+983741349+982983394
1358+984439089+987957463+992043917+995602744+997815589+998167464+997672609
1348+998790864+1002926134+1008594536+1012774471+1014114383+1014131914
1340+1015171741+1018443989+1023620510+1029050406+1032516618+1033342160
1331+1033649741+1035936120+1039761270+1042918601+1045344677+1048424447
1322+1051541882+1052285775+1049555154+1045314321+1043331310+1046364865
1314+1053576312+1060774997+1064972712+1067388133+1069899328+1072042417
1305+1073215870+1073741823+1073146114+1070776784+1067689456+1065820184
1297+1065518985+1065067247+1062877447+1059420527+1056195671+1053591799
1288+1051382547+1050212193+1049415519+1045578351+1037381780+1028777455
1280+1023923258+1022553549+1022095741+1021424453+1020766981+1019927995
1271+1017880866+1013582110+1007357895+1001055623+996332884+993099293+990168574
1261+986640102+982161692+976842377+971011605+965288005+960326821+956013880
1251+951827440+947838123+944241693+940402047+935120521+927539111+917782892
1241+907086153+897160563+889167187+883191638+878381178+873533052+867942707
1231+861849144+856019362+851221540+847966143+846114093+844792519+843218190
1221+841484712+840402264+840613574+841697261+842625331+843189383+844099549
1211+845769404+847836544+850053168+852801197+856671012+861918465+867794709
1201+872596620+875494505+877841905+881390511+885928392+889934930+892936768
1191+895754428+898538326+900158560+900304142+900649635+902816452+906660806
1181+911148631+915678149+920447351+926520842+934890440+944750858+954002495
1171+961676892+968155473+973147694+975685156+976111060+976320141+978323472
1161+983207033+990270915+996777249+1000392947+1002158143+1004838646+1008517904
1151+1009837434+1006391603+1000570866+996579692+995962672+997309336+998996909
1141+1000978867+1003681921+1007191188+1011477677+1015887880+1018762163
1133+1019084425+1017725681+1016431303+1016689820+1019153004+1023135319
1124+1027045340+1029890630+1032265288+1035424353+1039518798+1043120309
1115+1044730755+1044388916+1042715529+1039692258+1035773007+1032784613
1107+1032031056+1032104900+1030995999+1029569792+1030121765+1032340681
1098+1033356842+1032162761+1030805690+1031482429+1035191237+1040882065
1090+1044997510+1044236396+1038976986+1032448597+1027622402+1026353609
1081+1028989695+1033816819+1037560505+1036673694+1030128827+1021599709
1073+1016276739+1015293101+1014816645+1011397514+1005919979+1000897465
1064+997061599+993682240+990384407+988423759+989888003+994750873+1000088340
1054+1002896150+1002680069+1001131202+999658904+998171552+996411064+995190778
1044+994745112+993579403+991229897+989655568+989879826+989299791+984855206
1034+978164013+974173954+975154246+979483914+985399248+991676679+996262199
1024+998333427+999787945+1002342939+1004560926+1003533365+998912533+993693453
1014+990684987+989830390+988680665+984730873+977484672+968512180+959856065
1004+952622750+946988792+943169962+941120045+938954095+933673685+924757381
994+915201136+908194000+904099803+901047539+897786566+894812854+892670508
984+890508647+887461339+884314291+882072950+880180261+877453109+873533238
974+868728416+863453085+858440668+854706895+852763965+852073721+851420337
964+849844831+847352035+844980474+843896292+844168561+844836689+845530093
954+847197098+850470090+854254166+857209107+859875425+863709433+868745266
944+873890255+878825048+884010614+889588569+895322886+901002563+906476381
934+911939977+918076968+925054244+931818599+937274390+941251440+943947121
924+945430570+945701043+944542521+941789845+938404353+936092946+934997427
914+933541546+931347781+929949389+930278467+931860663+934132361+936767517
904+939383779+942138808+945515379+948654559+949821816+948973043+947523914
894+946378092+946385154+949517333+957027192+966493919+972684496+972428519
884+967534489+962284805+959904758+961110300+964303190+967422670+970043516
874+973707906+979305995+983764952+982700036+977501461+974723943+978054858
864+984677534+989277798+989452063+986685759+984134358+983559836+983835699
854+982975402+980936946+979719943+981541328+986097608+990230647+992350630
844+995183034+1001238189+1008144161+1010747104+1006676758+999175882+994952457
834+997591207+1002659936+1003256140+1000626993+1000977380+1004528712+1007632766
824+1010073524+1012726584+1014113082+1013634892+1013961243+1016422630
815+1017902424+1016723768+1016583700+1021696908+1031413231+1039746278
807+1041674030+1039186004+1037717609+1039102806+1040674657+1038847635
798+1033166657+1027480227+1026077995+1028959463+1031803514+1031808780
790+1030196538+1026719918+1018478247+1006352574+995523572+988299798+982670796
780+977049351+971910124+968178952+966822129+967966836+970082420+970772231
770+968454071+963687286+959206832+958535049+963817876+974373742+987171569
760+998601174+1005595920+1006193859+1001232799+994543651+990496660+990790363
750+993715507+996759718+998126577+995657755+988590776+979975052+974785398
740+975722697+981217826+987955605+995609373+1007614491+1024657982+1038489875
730+1038119353+1024457761+1007792287+995793425+991835146+996598153+1007008560
720+1016500129+1019616264+1017139823+1013475805+1010217434+1007260510
711+1005989487+1008288628+1013171631+1017281935+1017808756+1015635683
703+1014077151+1012227393+1006624782+999091444+994141225+992712540+993001040
693+993047688+992465794+992942188+994703791+993448813+986320069+976400490
683+970583346+973405095+982312974+991725061+997239271+995641587+987904558
673+979588176+972084017+961306061+949586531+948267435+958501968+971871281
663+983776722+991198117+989365891+977526922+962142011+949606293+942481328
653+940553576+941429793+942658319+946499203+957739862+974440152+988668151
643+997353134+1000900067+996286112+984134173+972066423+966801190+967638007
633+967173198+961299185+952490797+944375194+938612566+936208235+935541655
623+930359497+914196435+890644255+873622880+874245351+890243750+907417708
613+919200736+932617565+940589259+926210041+901702162+892699438+903186354
603+915001844+911779156+902490348
##END=
