##TITLE=<SNM>
##JCAMP-DX=4.24
##DATA TYPE=INFRARED SPECTRUM
##DATE=29/4/2025
##SAMPLING PROCEDURE=Instrument type and / or accessory
##ORIGIN=Admin
##XUNITS=1/CM
##YUNITS=ABSORBANCE
##RESOLUTION=4
##FIRSTX=4497.3318
##LASTX=599.83466
##DELTAX=-1.4281778
##MAXY=2.2322423
##MINY=0.68437755
##XFACTOR=1
##YFACTOR=2.0789377e-09
##NPOINTS=2730
##FIRSTY=0.69635934
##XYDATA=(X++(Y..Y))
4497+334959215+336046466+336196643+335335117+334598279+334230835+333153389
4487+331289735+330523768+332062640+334572418+336039786+335954089+334790746
4477+333068037+331724154+331824444+333069786+333772017+333095876+332237044
4467+332593593+334043071+335665633+337045440+338353628+339877648+341349775
4457+341647320+340219920+338574564+338470145+339165754+338597300+336751680
4447+335693644+336706781+339046456+341104325+342012126+342021129+341522746
4437+340532488+339377602+338607994+337951177+336557034+334453463+332860203
4427+332959289+334547475+335922494+335760819+334731197+334110705+333695209
4417+332573352+331272676+331502386+333865885+336918601+338770156+338809836
4407+337615528+336163930+335463619+336126228+337875744+339835761+341152894
4397+341187786+339815806+337717453+335818104+334691516+334592086+335234941
4387+335769220+335896489+336363994+337513948+338346632+337928985+336747465
4377+335783899+335169027+334459427+333674078+333366786+333759861+334318567
4367+334394574+334194165+334735296+336465202+338252248+338539844+337189051
4357+335218283+333168413+330985281+329275732+329195798+330976507+333444655
4347+335144428+335689745+335858673+336498775+337411192+337416554+335679223
4337+332791077+330401516+329871796+331145607+332819232+333570491+333598072
4327+334314439+336573720+339561152+341506318+341334178+339344574+336316143
4317+332946157+330419263+330040179+331555341+332938932+332829439+332267206
4307+332893575+334540077+335799066+336070492+335850989+335699091+335899786
4297+336477444+336805638+335983419+334219826+332878523+332879441+333889223
4287+334920251+335188093+334565164+333505695+332689612+332665500+333431295
4277+334260853+334340443+333580669+332655608+332494708+333449673+334514302
4267+333984668+331721745+329871566+330403810+332828091+334840604+334724488
4257+332852146+330999329+330481307+331172873+332224859+333139885+333830391
4247+334058008+333474272+332398719+331872181+332495568+333683081+334443715
4237+334441106+333874372+333027640+332388712+332450756+333132660+333944128
4227+334643177+335229436+335609782+335848495+336286555+336908738+336979985
4217+335953687+334653814+334539647+335625666+336235836+335295379+333665907
4207+332575846+332091598+331729745+331620853+332341148+333888535+335474628
4197+336297937+336092683+335056810+333825116+333286278+333763244+334557681
4187+334718954+334052819+333179164+332803320+333039337+333415440+333589901
4177+333831452+334516539+335354240+335494698+334632512+333777838+334277826
4167+336027658+337393302+337181884+335875961+334584804+333792804+333463291
4157+333599678+334188173+334683144+334169996+332631009+331554853+332365518
4147+334629186+336546999+336928463+336115648+335200364+334817381+334648109
4137+334013568+332885060+331969690+331828257+332365604+333194675+333989743
4127+334361230+334005110+333193758+332629633+332680724+333052698+333294220
4117+333416042+333839652+334820534+335955608+336323224+335377492+333600739
4107+331978291+331015758+330625807+330862140+332117774+334257384+336208742
4097+337074770+337002462+336483236+335852996+335708151+336530600+337691993
4087+337901748+336738204+334929311+333407727+332867342+333652088+335330071
4077+336692045+336842250+336228238+335906037+336152777+336471911+336500180
4067+336330851+336119605+335810305+335260487+334567401+334115378+334051729
4057+333893295+333194102+332410244+332415806+333290636+334187112+334441049
4047+334363839+334690341+335564740+336423257+336628367+335880835+334452976
4037+333235760+332977953+333504720+334140207+334569350+334780510+334618033
4027+334065634+333644404+333880020+334445034+334376769+333374211+332370249
4017+332436822+333581988+334981664+335946692+336303728+336168660+335665231
4007+334886190+334117614+333843551+334254460+334955086+335389161+335465855
3997+335619702+336167256+336698782+336476383+335502468+334606249+334386460
3987+334726667+335283309+335801561+335938062+335341883+334182353+333207806
3977+332959317+333237050+333541017+333714791+333944357+334423760+335259827
3967+336420275+337522779+337977726+337544081+336526414+335447219+334748485
3957+334629071+334885703+335136973+335419265+336145007+337256428+338033175
3947+338164802+338423039+339683519+341633214+342855705+342306775+340382196
3937+338332239+337219041+337547407+339074868+340562391+340690033+339846827
3927+339895998+341802400+344330613+345552817+345183596+344384973+343926413
3917+343525740+342592938+341013296+339221146+337889678+337543708+338467852
3907+340956900+345039697+349620075+352718863+353374821+352160989+349708180
3897+346550845+343923345+343109212+344150418+345599550+346047014+346096099
3887+347383615+349793676+351424065+351891570+352627089+353088744+351105705
3878+347445916+345196125+345579624+347672673+350844142+354448310+356111413
3868+354711106+352640850+351927035+351561426+349867704+347295194+345565031
3858+346323601+351207716+360543132+368597570+366901754+358004655+349173299
3848+343739824+342172080+343753729+347215203+351276353+355226204+358446643
3838+359547943+357758144+354618241+351959892+349977312+348342421+347564384
3828+347973400+348714710+349435177+351426875+354944715+357085873+356180796
3818+354565917+353502234+351346769+347711923+344864777+344705053+347294535
3808+350948102+353420579+354645049+356466328+358927738+359649322+357988284
3798+355705865+353264783+350184314+347450819+346683046+347908174+349800614
3788+351530491+353101532+354434950+355800593+358421585+362803159+367006373
3778+368870113+369303672+370610254+373835538+378901225+385054163+390640739
3768+394177874+395736214+396356591+397273911+399587180+403110668+405848521
3758+406468726+406703597+409242017+415059966+422775916+428902563+431268184
3748+432231549+434786741+438682519+440570887+439760538+439883191+443650352
3738+451165923+460059639+466661847+468985809+468078782+466549859+466440509
3728+468084316+470343913+471860279+472357744+472279846+471808872+470998179
3718+470064975+469372921+469844927+472674326+477011891+478783943+475475169
3708+469930051+466352891+466330786+468651394+471028914+472526500+474062878
3698+476138266+478063476+479786816+482782275+488105855+494144999+497021934
3688+494793932+489880229+485635242+484008981+485124788+487419077+489601951
3678+492140112+494976794+496059744+495921494+498193878+502789221+503357074
3668+496580347+487549414+481450750+479310853+479337976+479938054+481465773
3658+484582567+488045360+490309774+492761980+497963996+505088556+508363555
3648+503826987+495351061+488024660+483352479+480812568+479748168+480050300
3638+481743650+484236454+486458894+487977640+489688422+492678205+495790927
3628+495870403+492558476+488621584+486350347+486721919+489130432+491214794
3618+491412794+491221216+492419021+494576837+496947275+500268721+504432971
3608+506495887+504150565+499218111+495295669+494477923+496615383+500073645
3598+503104943+505016134+506102525+506574101+506496976+506938620+509693246
3588+514739924+518821086+519365085+517536867+515618853+514318866+512855168
3578+510927176+509431712+508937715+509012374+509493870+511075175+514010197
3568+516927959+517860904+516670725+515034372+514241569+514230445+514239562
3558+513862944+513238782+512546327+511723534+510855844+510844375+512797941
3548+516355118+519526099+520680669+519684534+516835467+512609173+508546990
3538+506434589+506328278+506918092+507690137+509324770+512010471+514454306
3528+514970436+513095486+509674610+506196049+504574433+506133260+509702363
3518+511778640+510029611+506058773+503210681+502718118+503306154+503565452
3508+503339986+503037625+503136424+504197585+506055562+507413350+507134671
3498+505330021+502870187+500809508+500303355+501898881+504799727+507380264
3488+508369289+507534570+505666959+503836792+502312255+500529739+498269397
3478+496046097+494322872+493371291+493782314+495941506+498928823+500990764
3468+501368816+500796090+499987117+498752498+496986210+495481456+494900415
3458+494541171+493326622+491678112+491056474+491951918+493430983+494198154
3448+493510286+491813151+490787141+491705407+493592743+494168681+492545000
3438+489640083+486362962+483082630+480356503+478871159+478893809+480104229
3428+481634644+482507782+482485419+482174341+481919459+481302121+480321152
3418+480005573+481117367+482955676+483856051+482798159+480531566+478849512
3408+478861267+480302401+482026974+482860833+482493791+481584011+480701297
3398+479910186+479777326+481086173+482932051+483148171+481307683+479301449
3388+478592451+478970388+479639907+480105433+480394119+481031125+482380656
3378+483915514+484712675+484650517+484500741+484803733+485553817+486862865
3368+488806625+490743390+491865447+492432038+493348010+494726842+495785939
3358+495869313+495134081+494465193+494564853+495161662+495636851+496012265
3348+496464231+496567732+496215942+496493876+498227996+500300545+500605831
3338+498481560+495318377+493020820+492490354+493220769+493961793+493931574
3328+493352884+492723275+492126178+491629946+491601562+492052265+492326931
3318+491855527+490620105+488844184+487012239+486074936+486798929+488787817
3308+490659098+491389284+491233774+491142199+491551617+492137245+492524587
3298+492821730+493317504+493816317+493695098+492860608+492187362+492640015
3288+494396154+496749103+498412292+498364813+496975086+495852168+496218809
3278+497844669+499551494+500229901+499489336+497944041+496789070+496743828
3268+497545576+498548592+499353150+499579305+498657197+496544222+494313296
3258+493337402+494108644+495920978+497296370+497039595+495408001+494004856
3248+494221894+495898844+497504290+497431237+495351979+492507671+490537763
3238+490200767+491262903+492951781+494200104+494183761+493011358+491437106
3228+489975989+488779330+488003730+487783596+488069673+488695497+489359511
3218+489599370+489151304+488328512+487695634+487251181+486310552+484413238
3208+482034428+480284941+479858349+480333681+480660613+480300910+479779820
3198+479767406+480002448+479819529+479246029+478802292+478593942+478302532
3188+477855900+477569995+477719513+478229135+478727691+478793576+478168009
3178+476869914+475161999+473355686+471611646+469891517+468141112+466436925
3168+465057232+464414635+464621609+465147230+465139976+464184782+462700241
3158+461496845+460945478+460794842+460712299+460641511+460617514+460535429
3148+460187166+459439835+458365916+457141160+455857486+454567877+453480969
3138+452932183+453049074+453561649+454070440+454419563+454612517+454414632
3128+453517668+452216705+451331296+451263289+451650258+452058873+452484633
3118+452964237+453103032+452370266+450802293+449108541+447943822+447247897
3108+446684145+446427857+446751464+447185596+446979883+446213830+445652543
3098+445614153+445633707+445199460+444441177+444000450+444247076+444658730
3088+444340543+443248589+442264324+441879706+441661694+441297920+441153075
3078+441314176+441115316+440172450+439044802+438431191+438408083+438658407
3068+438963033+439365197+439983854+440665214+440914563+440360674+439214246
3058+438010621+437021137+436139483+435193665+434195580+433427606+433266505
3048+433698257+434139987+434035282+433443805+432780335+432290267+432022482
3038+431897191+431633420+431083201+430701364+431078011+431922393+432132348
3028+431073854+429329069+428055228+427952186+428774806+429541089+429331534
3018+428149268+426907195+426465638+426808310+427134812+426646005+425315684
3008+423925784+423275418+423479152+424088032+424601754+424712308+424409746
2998+424026648+423843241+423699056+423438898+423418628+423901844+424337639
2988+423993046+423012966+422160757+421781243+421636284+421501474+421359411
2978+421139908+420744911+420292745+420027885+419962688+419755255+419022718
2968+417790364+416599526+416072759+416355108+417022390+417471431+417353079
2958+416777715+416192316+415921033+415827079+415554048+414935420+413999866
2948+412839418+411714322+411048645+411104381+411811802+412845783+413640736
2938+413617656+412735659+411556747+410588766+409857720+409200473+408697904
2928+408743576+409671275+411226145+412604347+413078417+412378049+410671596
2918+408666997+407356487+407063414+407191487+407207227+407155849+407036034
2908+406592154+405989696+405890524+406548689+407336990+407471829+406972844
2898+406544933+406552416+406534038+405894968+404714566+403603231+403060724
2888+403146048+403496777+403649133+403506467+403367730+403335704+402984832
2878+401934853+400529042+399552173+399365412+399638414+399919072+400126419
2868+400357390+400549168+400616631+400708578+401019741+401412100+401460869
2858+400915752+400022831+399364838+399331580+399712929+399914169+399624108
2848+399105684+398799796+398846844+398992864+398844493+398265144+397525009
2838+396986000+396743990+396680542+396674406+396652588+396587391+396483689
2828+396354240+396292484+396421129+396583749+396360548+395589162+394598101
2818+393869779+393710857+394121594+394739305+395069190+394895617+394347949
2808+393690472+393171131+392863953+392655316+392520191+392536476+392556660
2798+392341859+392041361+392022983+392227893+392151313+391531739+390740083
2788+390296346+390204342+390087480+389871618+389870041+390149495+390278398
2778+389884319+389126638+388455600+388159087+388243006+388505515+388585650
2768+388195470+387499775+387027970+387072037+387378154+387500091+387254526
2758+386746796+386121344+385394111+384551966+383780609+383418928+383587311
2748+383980845+384149257+383929324+383520078+383197418+383052774+382948585
2738+382651585+382096749+381557768+381380956+381507365+381520381+381213146
2728+380824772+380660260+380702979+380665392+380354056+379917287+379622179
2718+379472059+379297884+379126175+379105991+379159089+379094752+378997358
2708+379133056+379523752+379845811+379706987+378947127+377812569+376888856
2698+376657483+377013602+377344261+377196951+376764797+376542915+376638847
2688+376690110+376419774+375957631+375557043+375283611+375064251+374857162
2678+374710311+374714783+374851457+374880500+374566384+373999850+373457343
2668+373027540+372652498+372385488+372284624+372191273+371931430+371643920
2658+371642572+371979138+372345292+372475629+372463644+372537213+372681513
2648+372682545+372443259+372022201+371473960+370914537+370620862+370791281
2638+371283357+371756739+371995710+371996627+371834265+371562868+371235448
2628+370971649+370928471+371093385+371133552+370621493+369530945+368457542
2618+368192882+368951796+370056508+370561829+370197769+369495737+369024563
2608+368823810+368642181+368453241+368514510+368943596+369446653+369654659
2598+369618333+369692390+369972101+370170302+370079559+369835743+369635880
2588+369467296+369274371+369216427+369499665+369955358+370077696+369652451
2578+369093057+368931784+369220670+369643420+369973477+370165227+370155881
2568+369841019+369227265+368502669+367959703+367814945+368018679+368282249
2558+368389105+368404243+368504504+368742185+369020577+369126430+368820742
2548+368155840+367614852+367618866+368033473+368449543+368730917+368977199
2538+369153667+369078378+368710532+368241995+367884615+367674000+367526546
2528+367447357+367595900+368123040+368953029+369714524+369960260+369560648
2518+368856581+368318345+368081411+367946113+367794216+367765746+367950328
2508+368175422+368256474+368212464+368120804+368015841+367995083+368160083
2498+368422076+368580768+368588366+368587420+368718933+368984510+369283545
2488+369516982+369559902+369226175+368515399+367849292+367752815+368294577
2478+369055097+369582179+369709076+369545882+369321362+369190021+369147474
2468+369126028+369093659+369058021+369054954+369116395+369231422+369375836
2458+369530343+369622863+369534672+369225057+368819080+368524947+368431423
2448+368422965+368378009+368366627+368474687+368549804+368386811+368094914
2438+368027137+368335175+368770597+369014729+369086663+369222448+369438625
2428+369545882+369534557+369569908+369666357+369705206+369676277+369648007
2418+369629744+369603654+369561221+369515979+369603252+370011294+370655640
2408+371139028+371209042+371047053+370966029+371069244+371341014+371809723
2398+372434372+373027225+373510154+374160894+375438346+377656744+381057579
2388+386144395+393609047+403830676+416682155+431865940+449134144+468101203
2378+488194562+508953656+530025777+550729306+570179352+588041040+604394763
2368+618598697+629164948+635624863+639546731+642197683+642296081+637074856
2358+624699712+605888565+583710385+561204499+540574997+524519794+515860605
2348+516180169+525049285+538846038+551199048+558257550+561639204+564110276
2338+566388681+568450794+571189995+575436301+580190480+583102508+582781683
2328+579909507+576120385+572582188+569462527+566047385+561473086+555456478
2318+548253188+540438467+532976166+526730536+521495835+516039740+509363418
2308+501436823+492762554+483974863+475769847+468589752+462317257+456446468
2298+450583764+444787748+439378730+434455365+429820771+425371821+421217261
2288+417451161+414150158+411449433+409372124+407776312+406555971+405674232
2278+405027162+404458421+403802005+402880155+401707093+400650634+400073234
2268+399855595+399531960+398867831+398101635+397575269+397293866+397007675
2258+396626268+396293745+396064781+395775522+395291417+394699940+394200066
2248+393900973+393775911+393760457+393832392+393994640+394233266+394489095
2238+394650397+394631044+394469857+394302047+394267384+394436599+394702147
2228+394788962+394528403+394063278+393656383+393409901+393264483+393113990
2218+392864641+392492495+392036372+391516658+390969076+390526629+390285021
2208+390128909+389880563+389589355+389491502+389672184+389959006+390201905
2198+390464701+390830998+391188780+391362238+391380874+391492603+391890553
2188+392475894+392960286+393208288+393371682+393649043+394034779+394372262
2178+394577630+394740193+395001699+395399563+395900297+396511614+397199253
2168+397736198+397839756+397516924+397144033+397115305+397452358+397848644
2158+398083142+398229822+398402391+398517274+398467101+398353020+398389001
2148+398671351+399093642+399421405+399489097+399397093+399430982+399739134
2138+400191272+400552953+400691834+400671822+400740459+401109796+401693790
2128+402206135+402494907+402606522+402634304+402711256+402997017+403473840
2118+403912359+404182036+404446351+404947630+405697713+406441977+406902600
2108+407046556+407089361+407238363+407545885+408027898+408734631+409610579
2098+410456766+411113469+411540262+411723181+411693736+411635420+411781239
2088+412184636+412664670+412955076+412929157+412739701+412698645+413002899
2078+413617800+414344230+414935047+415262782+415399542+415449343+415420787
2068+415370240+415477268+415875476+416567128+417474786+418379089+418941293
2058+419045626+419004512+419218109+419755742+420423942+421095841+421785974
2048+422496749+423171314+423764454+424271180+424739001+425294094+426058886
2038+426984062+427859321+428551805+429157560+429863749+430746205+431796758
2028+433038888+434409807+435617963+436429144+437101673+438238581+440120814
2018+442354808+444264680+445548755+446419485+447211084+448118312+449254762
2008+450680757+452324020+454006676+455572613+456997864+458407947+459881852
1998+461288466+462576670+464099888+466202570+468553139+470369946+471319147
1988+471752133+472169636+472871180+473965656+475404955+477049737+478802378
1978+480609665+482380255+484029968+485551867+487017916+488654842+490791212
1968+493399847+495873843+497744895+499383312+501461366+504055665+506681559
1958+508932898+510752629+512277682+513708695+515251123+517057206+519213761
1948+521781453+524826398+528358001+532051650+535097111+536863457+537753568
1938+538761574+540346778+542252521+544202646+546267798+548607788+551272215
1928+554302539+557763267+561470620+564811734+567301156+569346582+571730897
1918+574321469+576205651+577244965+578323844+580044374+582131374+583938776
1908+585115938+585892112+586810779+588141273+589707554+591306349+592966326
1898+594777628+596689449+598406538+599579515+600278507+600888735+601430038
1888+601611237+601567027+601787046+602444179+603244780+603745887+603787631
1878+603785338+604341320+605540903+607154148+609346942+612305416+615068872
1868+615755020+613799620+610765340+608331425+606912568+606129571+605671585
1858+605481039+605532704+605685576+605636148+605170936+604528999+604223942
1848+604653201+606023890+607882327+608462450+606288865+602489823+599296076
1838+597566257+596572587+595532929+594963586+595857826+597717237+598461471
1828+597182012+595229765+593580052+591662324+589097614+586647586+585018057
1818+583961827+582905540+581990944+581875516+582509540+582828990+582037792
1808+580566124+579355130+579092048+580169436+582336197+584311667+584728540
1798+583794963+583248729+584682552+588004628+590694515+589869085+586347116
1788+583412439+582640451+583303146+584437073+586104964+588227744+589833992
1778+590576679+591714849+594794085+599928380+604965023+607067161+606106863
1768+604119581+602777333+603095176+605317386+608086061+609414433+609568566
1758+610348582+611921458+613443644+615615050+619745813+624867206+628043005
1748+628469912+628269561+628916258+630095141+631308371+632509846+633476049
1738+634545238+637411737+642931482+647892606+647759402+643953994+640310920
1728+638309933+638061129+639134618+640725098+642814906+646781616+653661098
1718+661527025+665479227+663574803+659153892+655400149+653500599+654015984
1708+657150153+661754384+665539091+668060796+671666827+677807809+683907104
1698+686712305+686225476+682618413+676934098+672610324+671721072+673461213
1688+676719698+682575521+691800727+699005049+697486074+691149099+687024242
1678+687790726+692517438+697703972+700038686+700160192+700432564+700760328
1668+699468884+697249827+696599518+698492589+701350830+702887352+703184782
1658+704532879+709259821+718523675+729662251+733846571+729846546+726340576
1648+726389488+727005851+724533116+720190190+717308094+717122766+719598025
1638+724841269+731949945+736483302+734928489+731108287+730056531+733083471
1628+738731144+745105965+751462206+757189757+761175790+763970612+768282746
1618+775998037+785024096+789927650+789339212+786956560+785682032+785937029
1608+787055761+788903073+791672206+794587617+796321393+796800997+797346658
1598+798858752+800833763+802415068+803744300+805384151+806869122+807258815
1588+806887357+807026983+807984299+809035539+809983221+811499903+814243519
1578+818205010+821872224+823025132+822681714+824049823+828042967+832590774
1568+835490875+837375229+839654552+842620939+847074133+855213694+866940535
1558+874275194+872087217+866538858+862018116+859054596+857793084+858491101
1548+861051512+865403555+871589952+879067161+886469483+890762752+887581563
1538+879094112+872468881+869716377+868151873+865204466+862097018+861287185
1528+863155885+867106137+873191728+880866478+886706475+887001153+884166880
1518+883289097+884351577+884235690+882757427+883024753+887534830+896474992
1508+907505192+914339030+911833095+904888874+899713866+898391171+901451426
1498+907898497+913887753+915801925+915201560+916181468+920543489+926448397
1488+929989517+929678727+928309012+929191841+932340975+934881373+934595756
1478+932544767+932049796+936005208+944078941+950704917+950210806+945127143
1468+941900482+943289120+947137419+949200220+948298526+946987701+947252217
1458+947710547+944722140+938539528+933695724+932460360+933955940+935733697
1448+935385691+932501302+928857540+926090815+924172515+922627163+922165679
1438+923974916+927324631+929540878+930002190+930615055+932522518+934805740
1428+936236753+937629175+939962571+942069238+942713699+942538865+941763666
1418+938315553+931774729+925754967+923147708+923449267+924942381+927288277
1408+930785933+934464673+936761141+937555148+937868691+937552797+935814835
1398+933615905+932787895+933722388+935298303+936625127+938038249+939988145
1388+941550183+940440741+936171212+932363683+933167036+938660404+944763827
1378+947786352+948372210+949356189+951520828+953913400+956728292+960668165
1368+964815557+967980346+970883658+974444447+977307964+977577125+976083495
1358+975364777+976732371+979503109+981995512+983115276+983038783+982769392
1348+983431342+985337945+987860051+990268048+992494501+994759030+996535697
1338+997388135+998529230+1001331850+1005486123+1009960591+1014475771+1019169282
1328+1023839055+1027835180+1029976998+1029392000+1027321401+1027090430
1320+1031340807+1039666784+1048797148+1054692995+1055375129+1052540512
1311+1050556957+1052840523+1058616985+1063921298+1066197295+1067074963
1302+1069380777+1072818740+1073741823+1069790080+1064209496+1061863313
1294+1062750271+1063277124+1062804860+1063673353+1064870643+1062489711
1285+1055915285+1048418924+1043234225+1040981624+1040830930+1041344595
1277+1040005902+1035267549+1028786934+1024377376+1024828195+1029185113
1268+1032581676+1030912925+1025654714+1020368521+1015437043+1009582940
1260+1003818404+1000340646+999376392+999534081+999757025+1000275162+1001625553
1250+1002619280+1000069650+992193688+981401914+971805823+965348144+961022134
1240+956298575+949146032+939958156+931221498+924633884+919507215+914213625
1230+908239277+902233793+896603952+891273549+886264143+881626711+877570206
1220+874783469+873546327+872799741+871308061+869055517+866368440+863081227
1210+859758863+858064940+858916174+861562424+864589536+866740070+867434532
1200+867600937+869091585+872496692+876366322+879100706+881039994+883990670
1190+888965097+894744599+898888321+900613954+901457848+902792987+904812552
1180+907634783+910986735+913334752+913860803+914800973+919583938+928954619
1170+940264244+949936771+956052293+959122010+960815647+962736585+965651939
1160+968456739+969341746+969138987+971039053+975951724+980994560+983124107
1150+982912631+983829865+987856725+993017914+995161337+993446828+992718936
1140+998292754+1009589477+1019466311+1020545248+1012852664+1003620232+999466877
1130+1001000302+1004375419+1006993400+1010734585+1018359392+1028498735
1121+1036617366+1038820310+1034142166+1026419191+1022709773+1027262798
1113+1035542100+1037333561+1029909450+1021620056+1019215614+1022122482
1104+1026422516+1027865112+1024705943+1021993119+1025422711+1032937422
1095+1036803153+1034317745+1031930736+1033897088+1036950864+1037121512
1087+1035394273+1034642183+1035329019+1037138944+1039798326+1041224522
1078+1038762739+1033434114+1029922179+1030877832+1034020143+1034383114
1070+1028582339+1018799660+1010189154+1005139322+1004248809+1007775079
1061+1013157720+1015377178+1012693254+1008911242+1007630349+1007978641
1053+1006926769+1003766338+999382470+995712618+994946192+996250481+997085257
1043+997011975+996649004+995756656+995416507+998320277+1003983318+1007288938
1033+1004437463+996779742+989059978+985418338+986124211+988296649+989397490
1023+989217323+988913987+989479718+990525052+990632625+989840166+990411975
1013+993407148+997622661+1002616298+1007960865+1010069998+1004953765+995029567
1003+986781803+982284398+978540461+973205528+966478000+958514936+949146377
993+939732918+933012902+930146920+929358762+927952577+924265637+917759218
983+909206971+901003417+895744060+894167801+894834109+895785518+896133638
973+895873480+894650501+892097144+888655167+884753655+880813438+877840456
963+875843999+873281811+870409635+869884044+871914160+872628176+869837712
953+866948964+868061561+872718718+877489239+880276550+881624188+883293168
943+886653836+891641337+896662670+900909263+905568026+910768895+914132601
933+914551538+914431178+916357277+920560864+926532574+934086850+942033572
923+948040547+950522112+950160919+949279810+949585383+951067659+952575166
913+952728382+950925968+948188717+946087038+945367231+946220759+948448359
903+951044034+951737751+948714939+943560173+939916640+939014258+939065693
893+939191328+940961057+945427554+951580750+957766745+963029830+966333614
883+966513208+963942705+960521543+958377833+958539364+960058740+961336250
873+961999691+961985355+960760255+958897232+958053108+958654620+959783788
863+961577944+966054247+974657184+985415012+993642133+997075509+998181740
853+998490811+995546213+989002866+983459439+981640339+981442167+981573709
843+984743200+991666835+996368948+993509904+987585156+986868847+992551728
833+998301584+998651482+994846762+992098960+993609334+997634015+1001093310
823+1003752462+1007308090+1012692452+1018929251+1024687823+1029489137
814+1032646471+1033404869+1032690051+1031975462+1030303385+1025324084
805+1018060758+1013622301+1014787249+1017646638+1017153731+1014437237
797+1014046742+1018916407+1030002113+1045387740+1057086427+1054635654
788+1038840838+1022825258+1015801619+1015848295+1016248539+1013861529
780+1008982919+1001492521+993136152+986922175+981679102+975015224+968604221
770+966298636+968944026+973321816+976490046+979108944+982637736+985392534
760+984409128+980325385+976139919+972965152+970945243+971127244+974284579
750+979106192+982369264+981117959+975107543+968529562+967545010+974282056
740+983847641+989276270+990723683+993524010+996912545+995120281+989117090
730+985529351+987038578+990195454+990944103+988964333+986268482+983179269
720+978540002+975321198+978633469+987203148+992251718+988835773+983507377
710+984565900+993017111+1004328055+1013525508+1018610318+1020772893+1021762492
700+1021885547+1020451552+1015983277+1008244132+1000479183+999323867+1007343412
690+1015380619+1012233491+1002807819+998931308+999258039+995370060+988330824
680+983343724+981109931+979765618+978683126+979002633+980671957+979307919
670+969381541+956982716+958106493+967987112+968768103+958939836+949672484
660+947506125+950123016+953510749+955882333+957246200+958070942+957672591
650+954113292+947096305+938603980+933162564+936827083+950562538+970260700
640+991992076+1008877869+1009864028+989548757+962051241+946674330+945279843
630+946425525+940115730+927639837+915687931+909689098+909885492+912910368
620+916327689+920504268+925822859+927075483+922012520+923022532+936516407
610+948951129+948419230+944116901+941179872+933997799+922176058+910998318
600+902500603
##END=
