##TITLE=<SNM>
##JCAMP-DX=4.24
##DATA TYPE=INFRARED SPECTRUM
##DATE=29/4/2025
##SAMPLING PROCEDURE=Instrument type and / or accessory
##ORIGIN=Admin
##XUNITS=1/CM
##YUNITS=ABSORBANCE
##RESOLUTION=4
##FIRSTX=4497.3318
##LASTX=599.83466
##DELTAX=-1.4281778
##MAXY=2.0676696
##MINY=0.42385942
##XFACTOR=1
##YFACTOR=1.9256674e-09
##NPOINTS=2730
##FIRSTY=0.4407641
##XYDATA=(X++(Y..Y))
4497+228889007+229592593+229915910+229544214+228595172+227746758+227404034
4487+227183666+226763870+226728352+227811016+229678177+231105748+231259118
4477+230424912+229439934+228735713+228272630+228086851+228297113+228692689
4467+228875790+228904622+229398117+230697775+232041077+232076317+230539328
4457+228855717+228543203+229501638+230359338+230078024+228669830+226695263
4447+224840453+224000829+224768844+226312038+226676181+225132352+223331987
4437+223188723+224778346+226863863+228298537+228603622+228120141+227685967
4427+227623226+227347561+226242209+224422978+222515439+221171781+220857240
4417+221628721+222938779+224043203+224873526+226049605+227675428+228826559
4407+228726133+227717276+226614338+225830584+225460838+225445300+225469783
4397+225276654+225091680+225305718+225796226+226002031+225694098+225285491
4387+225276824+225630753+225768802+225033412+223275808+221252785+220110397
4377+220376219+221699943+223276953+224188310+223826318+222559392+221548259
4367+221466668+221868976+222081110+222086434+222205293+222555306+223194882
4357+224228827+225446724+226306110+226544725+226468272+226421533+226233882
4347+225448364+224002826+222391117+221169445+220564381+220473148+220597330
4337+220656744+220572692+220426935+220312673+220263938+220268891+220373356
4327+220737871+221301365+221591454+221315866+220834350+220679231+221000087
4317+221657693+222436695+223041775+223244097+223069508+222699623+222357952
4307+222236400+222282845+222245346+222158864+222520237+223628638+224930912
4297+225523641+225306183+225007659+225037823+225119878+225103767+225220707
4287+225492921+225723147+225901342+225974282+225591118+224691168+223985368
4277+224235048+225288633+226359906+227037864+227353504+227035202+225694562
4267+223795396+222504172+222439125+223186742+224023100+224636474+225044803
4257+225157734+224889358+224626244+224911040+225603313+226078948+226222012
4247+226403735+226585799+226326926+225656568+225221016+225482629+226285666
4237+227229879+227925681+227903178+226954198+225634792+224816186+224792120
4227+225314927+226164858+227151476+227907790+228176614+228038952+227718174
4217+227384735+227197626+227308143+227664192+227899309+227620966+226801787
4207+225875821+225540603+226206582+227375279+227962700+227584179+226995783
4197+226887573+226855181+226139956+224965037+224415193+225096184+226552695
4187+228009470+229044915+229528552+229545359+229450210+229497258+229483949
4177+229170754+228819425+228935204+229606382+230326172+230583885+230542068
4167+230761538+231258623+231408604+230925278+230282111+229938226+229811491
4157+229779006+230098995+230926469+231832285+232296886+232386679+232401026
4147+232207773+231580702+230912711+230861515+231336779+231491651+230838657
4137+229844687+229242781+229225494+229470221+229620032+229664032+229916498
4127+230470505+230805119+230331218+229197389+228170609+227892577+228430937
4117+229279197+229784871+229769642+229515196+229143376+228526674+227760687
4107+227172508+226958501+227178049+227850218+228791258+229610375+230001308
4097+229939820+229661463+229448756+229382300+229382022+229463752+229759149
4087+230376672+231424421+232866509+234172125+234561139+233850232+232702800
4077+231908398+231739768+231985285+232287228+232460471+232554227+232616163
4067+232625433+232682464+232898003+233096596+233090328+233170139+233727443
4057+234449864+234576755+234001669+233432541+233352017+233477159+233387242
4047+233142158+233045493+233117783+233084493+232840880+232682479+232835030
4037+232920459+232488189+232015463+232506807+233998372+235334446+235632289
4027+235181803+234702283+234451504+234329257+234293800+234305346+234144067
4017+233632016+232915058+232309019+232006363+232033323+232291562+232590441
4007+232793708+232882728+232878209+232906066+233188757+233680147+234013709
3997+234113563+234310082+234598282+234540695+234114337+233818212+233871358
3987+234096198+234466640+235002664+235329122+235042624+234350057+233846038
3977+233855788+234311412+234966697+235445087+235391322+234879797+234452216
3967+234533823+235020385+235612820+236303561+237176149+237854276+237740479
3957+236877935+235928259+235231358+234605045+234072442+233915697+233928048
3947+233560035+232948363+232855644+233551446+234584663+235647394+236764555
3937+237643953+237850020+237633289+237656628+237887272+237631974+236742656
3927+235927175+235814972+236270580+236694246+236784473+236700003+236574211
3917+236370774+236199142+236273149+236662473+237358894+238195917+238686626
3907+238533952+238139893+238008885+237960413+237663329+237445979+237682241
3897+238078343+238251322+238381014+238957849+239989410+240508704+239826816
3887+238836514+238767691+239301347+239230744+238801058+239158655+240096352
3878+240461517+240144515+239768640+239533415+239638592+240620908+242080282
3868+242669622+242257626+242066694+242762403+243624668+243700456+242686600
3858+240876438+239337763+239965592+243484034+246831556+247474397+246436305
3848+245226054+244361157+243756233+243338417+243266684+243765704+244826779
3838+246011340+246699186+246674950+246229015+245817328+245790817+246269036
3828+247098925+247759967+247786757+247633417+248321186+249836152+251211474
3818+252360903+253420384+253386429+251693485+249554002+248444007+248992721
3808+250785812+252326824+252565981+252419961+253183131+254382472+254895327
3798+255022729+255442123+256007614+256407492+256930036+258082343+259971713
3788+262229033+264387428+266247841+267929936+269813626+272403068+275847270
3778+279584068+283001961+286281371+290112543+294948163+300615575+306502318
3768+312208452+317683060+322617790+326566150+329818012+333376058+337905896
3758+343055717+348167404+353434690+359908111+368459172+378221505+386539151
3748+392332510+397595463+404837471+413293816+419464457+422822704+425632282
3738+429815635+435733857+442133889+447425226+450951329+452734236+453063604
3728+452727365+452633981+452632185+451589729+449034210+445773867+442937948
3718+440953879+439526556+438543745+438826158+441429993+445647952+449021272
3708+450348679+450576987+451228170+453049180+455518093+457641481+459428350
3698+461744635+464872624+468107338+470730798+472763711+474456608+475567718
3688+475945186+476132914+476543069+477131356+477902915+478719107+478970938
3678+478277567+476960219+475444155+473859499+472632905+472489470+473143779
3668+473329681+472587683+471666654+471523807+472259274+472790547+472248874
3658+471412191+471630872+472779435+473676847+473713712+472914605+471870849
3648+471894682+473278238+474573021+474757778+474318002+474186700+474596917
3638+475250390+476091035+477479265+479597576+482118737+484867989+488249419
3628+492229103+495635728+497680929+498713667+499538031+500800004+502224603
3618+502571057+501454097+500321011+500887476+503433554+507136738+511416911
3608+515540959+517870491+517504104+515912113+515654153+517757142+520909398
3598+523526079+525647517+527850113+529255614+528446881+526050212+524546653
3588+525542402+528146330+530697949+532666542+533966123+534744212+536071217
3578+538664064+541178230+541866309+541155263+540531504+540484023+541081905
3568+542775452+545019401+545771614+544184606+541631316+539616232+538650074
3558+538708946+539297852+539567079+539564727+540609133+543387635+546901636
3548+549865544+551479667+551092015+548939625+546700381+546135927+547352988
3538+548878586+549133079+547731293+545535321+543396983+541749246+541364751
3528+543072475+546101075+548174659+548296180+547810841+547874727+547899985
3518+546852359+544463428+541304084+538699351+538086858+539606265+541710184
3508+542856982+542903782+542388358+541761008+541426719+541364504+541005328
3498+540158709+539522074+540060032+542134360+544899861+546844683+547523476
3488+547919299+548458867+548192859+546672709+544710121+542634741+540014284
3478+537514976+536722957+537727311+538941277+539759543+541156130+543122804
3468+543915317+542557669+540161062+538117811+536517555+534662373+532400720
3458+530620938+530205367+530848998+531627954+532328662+533180481+533793778
3448+533610723+533006960+532972045+533841135+534765198+534502595+532746028
3438+530279530+527948233+526187951+525217584+524943900+525000915+525149364
3428+525123364+524260030+522267170+520123137+519202108+519976174+521870109
3418+523699415+524409903+523783544+522381324+520981394+520209000+520509613
3408+521860637+523199033+522957787+520997366+519067340+518592711+519005373
3398+518946346+518263560+517969323+518732184+519958036+520592938+520636024
3388+521052957+522015649+522547726+522184217+521574139+521519415+522334400
3378+523644566+524661116+525173878+525772690+526650633+527166738+527116347
3368+527417703+528916186+531216469+533121237+533858778+533648609+533214219
3358+533139128+533780468+535063025+536257800+536696400+536552470+536524860
3348+537000356+537699949+538109082+538309965+538970125+540091109+540724216
3338+540373521+539424201+538050334+536241024+534693264+534186568+534521043
3328+534941938+534964038+534566729+534320779+534910119+535869777+535808614
3318+534579234+533783873+534490957+535999345+537211701+537709421+537231201
3308+535786885+534507609+534847099+536728034+538568730+539198680+538848667
3298+538445229+538779518+540123423+542086012+543773059+544343022+543822645
3288+543316196+543941380+545551231+546950108+547317393+546994680+546976356
3278+547613858+548097958+547549043+546248533+545259718+545040077+545241456
3268+545495144+545612517+545545102+545492916+545468958+544982196+543886903
3258+543057741+543396550+544624568+545776133+546471764+546979822+547322593
3248+547006318+545804733+544312503+543319849+542912635+542651146+542479173
3238+542828877+543631729+543957661+543329754+542771181+543541223+545114240
3228+545560640+543976418+541290403+538761937+537038490+536481031+537022889
3218+537772193+537732821+536748215+535093792+532883892+530538728+529051821
3208+529194389+530622486+531846233+531313474+528902753+526019507+524172867
3198+523935089+525045363+526761567+528020167+528087210+527237806+526217171
3188+525226065+524188715+523319130+522659960+521739179+520254253+518682226
3178+517852662+518006281+518407088+518181473+517561645+517518249+518030083
3168+517860432+516320627+514061852+511936143+510366035+509577050+509353912
3158+509141607+508916179+509112667+509573305+509500133+508488381+506923443
3148+505388745+504106343+502942861+501808351+500974515+500909298+501759229
3138+503046738+504042518+504508821+504678163+504379160+503028290+500782020
3128+498665721+497241339+496175172+495303296+495017819+495257424+495169704
3118+494319371+493365377+493070893+493350768+493640733+493766525+494004303
3108+494391058+494252699+492795135+490354575+488416378+487922032+488139877
3098+487777575+486744312+485989220+485996215+486324160+486568965+486957359
3088+487601702+487935496+487506863+486678011+485924529+485119201+484046349
3078+483020792+482464293+482206767+481688433+480779382+479978480+479703466
3068+479715382+479481132+478909621+478346529+477932413+477474065+477005750
3058+476926047+477354309+477757499+477475922+476486147+475482629+475147380
3048+475319384+475097701+474035310+472811130+472278094+472252960+471731345
3038+470292910+468878928+468760038+469953297+471136403+471085238+469822243
3028+468301721+467320737+466888327+466588860+466264568+465854135+464903794
3018+463150260+461332655+460557567+461061602+462020114+462342332+461598229
3008+460333098+459352392+458824370+458448016+458137436+457952587+457740375
2998+457428650+457286855+457472603+457742696+457892538+458027430+458118338
2988+457775754+456829498+455689509+454784204+454037129+453217749+452441269
2978+451951102+451641048+451156886+450406282+449617638+448923740+448296390
2968+447859214+447781461+447884719+447852497+447716367+447612892+447326487
2958+446646703+445905819+445642132+445897492+446171548+445970107+445294812
2948+444648767+444479858+444619888+444424700+443485811+442050162+440732381
2938+439983851+439798135+439768761+439498048+438966126+438375300+437789303
2928+437130475+436377736+435717731+435508645+435841263+436231422+436207062
2918+435986122+435929293+435740233+435018602+434136821+433771702+433892851
2908+433820267+433240987+432678050+432632085+432664152+431994583+430760498
2898+429789418+429357442+429077598+428752223+428543138+428514104+428616620
2888+428913301+429372392+429556189+428886620+427357587+425747519+424874838
2878+424772446+424819556+424512536+423840058+423086916+422563444+422402087
2868+422469966+422581613+422707002+422815894+422770858+422608635+422611761
2858+422827377+422804503+422068262+420683313+419179661+418134357+417853647
2848+418193755+418684387+418892111+418580943+417671119+416362035+415200318
2838+414672481+414742310+414989313+415063011+414832104+414333672+413772902
2828+413343897+412976396+412491428+411964396+411625433+411482308+411338130
2818+411066489+410686359+410264256+409813678+409261945+408587764+408011672
2808+407819641+407903585+407762162+407141839+406410302+406064994+406127797
2798+406244055+406110339+405606770+404804785+404006173+403490192+403182119
2788+402857858+402578727+402554615+402680871+402568451+401959734+400900099
2778+399635556+398478637+397638239+397113745+396806168+396620421+396379640
2768+395890215+395209348+394597970+394172711+393835605+393509951+393235091
2758+393072620+393066430+393235865+393471136+393466091+392947633+392102717
2748+391512108+391356044+391056793+390149724+389125344+388831974+389292055
2738+389599508+388969559+387582258+386253798+385559683+385494899+385700920
2728+385775981+385608867+385528607+385799505+386042607+385688663+384880673
2718+384249423+383934170+383502411+382732771+381886369+381267779+380999790
2708+381149416+381631350+382038997+381972727+381499986+380959768+380460068
2698+379916662+379410894+379150737+379132165+379047912+378570868+377742512
2688+377017320+376783411+376944117+377128286+377106650+376823309+376299372
2678+375714427+375343490+375258153+375224694+374952836+374386184+373743389
2668+373261734+372956509+372712633+372472811+372219246+371931386+371641885
2658+371381263+371087089+370729244+370388114+370072954+369709847+369354882
2648+369113265+368918758+368685219+368511760+368489877+368502041+368405128
2638+368249158+368162830+368130918+368008995+367741100+367454818+367280368
2628+367174572+367035130+366894636+366861361+366900981+366787415+366322598
2618+365568002+364793224+364246816+364093012+364442035+365165276+365752171
2608+365717132+365161221+364608313+364333267+364151265+363778470+363177400
2598+362627865+362509811+362873599+363324951+363524349+363557066+363608509
2588+363633983+363561492+363467241+363388930+363240419+362978002+362659653
2578+362342759+362059480+361874630+361858628+361968479+362026732+361892057
2568+361596582+361243412+360882441+360582138+360454674+360484791+360516085
2558+360511101+360621757+360900579+361146901+361155011+360946544+360685953
2548+360527320+360547935+360676698+360744516+360705701+360663636+360645065
2538+360582757+360500144+360456965+360406976+360334268+360353954+360484110
2528+360571707+360625131+360925001+361583365+362224860+362348176+361886454
2518+361234993+360813509+360725356+360785807+360794473+360739037+360711922
2508+360714677+360667041+360548399+360419265+360340954+360338106+360416169
2498+360552578+360663481+360638998+360487360+360388869+360473556+360634200
2488+360715234+360744856+360826231+360958059+361065279+361089608+361055652
2478+361100286+361328717+361643507+361846773+361853242+361709002+361502145
2468+361318905+361208311+361181506+361273033+361526846+361870266+362078052
2458+361967241+361613359+361264645+361051288+360903767+360743525+360611574
2448+360607674+360781814+361079734+361391799+361647561+361785549+361707641
2438+361426033+361143465+361037390+361116010+361340510+361638399+361784279
2428+361579930+361176770+360990435+361274829+361893202+362515166+362934297
2418+363120385+363082003+362855584+362585150+362479106+362677885+363158240
2408+363734920+364208249+364528362+364739583+364855408+364923504+365063999
2398+365330254+365686427+366153411+366804006+367645920+368677822+370048099
2388+372108621+375363919+380381014+387667625+397583824+410370115+426258827
2378+445465083+467836285+492419957+517690904+542383901+565658613+586605247
2368+604591997+619566056+630917100+637698408+640316389+639004674+631910249
2358+617750184+598035716+574502796+547702073+520435574+498599080+486865058
2348+486772664+497679660+516446542+536921426+553295230+563938508+570362188
2338+574601659+577563401+578585150+576815831+572850106+568285013+563839707
2328+558863500+552928254+546633957+540249958+532906549+523940289+513947512
2318+503857947+494019501+484529521+475568368+467122639+458929516+450921088
2308+443401372+436659993+430657240+425213523+420324262+416082470+412358053
2298+408805671+405281209+402048569+399420218+397342579+395510240+393794778
2288+392366062+391410273+390869498+390482744+390017215+389456166+388983828
2278+388769821+388787835+388883696+388985716+389164685+389466504+389744058
2268+389746936+389453690+389247700+389575551+390386512+391085703+391171349
2258+390800010+390573002+390877113+391598775+392364422+392849451+392940669
2248+392818529+392806674+392989450+393122733+393008765+392725083+392437625
2238+392226744+392068669+391833923+391384676+390707337+389877619+388997602
2228+388197443+387487883+386699703+385819129+385118173+384716221+384419725
2218+384169875+384162694+384438204+384819696+385245730+385754995+386236248
2208+386541411+386758482+387131679+387798989+388747070+389891733+391057443
2198+392019021+392749629+393498653+394461345+395553388+396667624+397890566
2188+399241993+400445156+401226000+401707532+402279476+403121111+404009702
2178+404631759+404974498+405291176+405720583+406105696+406232231+406103375
2168+405885004+405674463+405443154+405156469+404828247+404447528+403939192
2158+403231024+402350172+401460807+400741714+400173391+399570989+398887894
2148+398267756+397781891+397466142+397589984+398436046+399849780+401455422
2138+403227651+405408053+407974343+410622256+413239958+416082842+419438055
2128+423314295+427547234+432045902+436784392+441705225+446793109+452028638
2118+457168121+461908035+466332478+470812420+475528067+480553551+486251606
2108+493060245+501010452+509907068+519951288+531767427+545591407+560529128
2098+574863581+587241635+597363856+605540388+612162351+617584463+621790443
2088+624130283+623929152+621148669+616049766+608756376+599462946+588526916
2078+576327335+563376159+550288854+537466566+525116244+513597592+503471007
2068+495125504+488379482+482535701+477040108+471961540+467540192+463636187
2058+460036447+456896542+454440598+452568794+451067866+449933634+449285484
2048+449102647+449180647+449422698+450123405+451817014+454925689+459750073
2038+466648382+475908260+487489963+501055550+516156237+532286071+548784490
2028+564768784+579397845+592415692+604271203+615463769+625856083+634696241
2018+641300562+645691576+648441911+650110263+651077412+651482335+650940167
2008+648791553+644892872+639629548+633196768+625463664+616470289+606637972
1998+596592143+586936318+577932976+569303110+560625329+552015582+544058814
1988+537085661+531015771+525833667+521679316+518510686+516140884+514533231
1978+513624118+512979528+512079454+510878674+509821051+509432192+509964238
1968+511151275+512296309+512959192+513498450+514592072+516388599+518399071
1958+520106175+521451814+522791138+524574386+526980094+529658185+531937667
1948+533490998+534711897+536310605+538658988+541580058+544642211+547598010
1938+550469556+553255858+555825553+558203031+560684635+563415284+566049112
1928+568139659+569747901+571333237+573151957+575146055+577329212+579809206
1918+582408616+584703327+586521985+588036625+589385854+590503928+591351723
1908+592164666+593216129+594367571+595248114+595868468+596577533+597458447
1898+598327290+599191057+600163653+601154574+602101665+603228777+604642388
1888+605905383+606474665+606419012+606248029+606184576+606048137+605752538
1878+605413482+605088045+604870324+605006392+605511912+605935221+605747710
1868+604885738+603733864+602562241+601344995+600127872+599164561+598464101
1858+597589006+596283420+594877114+593766716+592968508+592289405+591487234
1848+590319883+588789581+587215635+585905778+584873814+583966590+583093352
1838+582209218+581218545+580049399+578776252+577463114+575928416+573984028
1828+571944739+570441551+569737686+569492603+569097522+568162750+566699615
1818+565089330+563883722+563356907+563306949+563408474+563535875+563648234
1808+563646686+563491675+563278473+563204743+563485422+564093829+564680507
1798+565025073+565306185+565789976+566628981+567875137+569290234+570416417
1788+571175131+571980087+573240977+574966839+576883184+578761395+580484099
1778+581984006+583307421+584734465+586689377+589238705+591716656+593454713
1768+594446438+594950225+595273123+595883016+597078472+598491711+599557785
1758+600448975+601757347+603589810+605590841+607586177+609695296+611952554
1748+614065077+615655676+616725959+617782004+619331682+621229641+622750906
1738+623649897+624858972+627657964+631846053+635140351+636503261+637151535
1728+637978716+638918626+639849746+640850014+641898939+643173820+645319710
1718+648686190+652261972+654634684+655872236+656776426+657785485+659154895
1708+661158094+663632392+665741139+667102068+668674900+671540750+674968702
1698+677300432+678835997+680581730+682266920+683475810+684627437+686073114
1688+687642108+689420156+692107533+695839007+699398261+702067066+704096884
1678+705647181+706850933+708245291+710418853+713377933+716677617+719565877
1668+721345287+722431975+724061945+726977444+730812981+734590885+737698290
1658+739753984+740387834+739784565+739011304+739396233+740966278+743134083
1648+745425142+746383685+744755325+742075871+740579369+740682380+741581556
1638+742637106+743677365+744201890+743699032+742679697+741919374+741667605
1628+741684505+741469817+740714509+739778932+739509272+740221246+741374359
1618+742352403+742935181+743330014+743881591+744648785+745456589+746218398
1608+746988687+747632937+747891950+748007527+748690530+750159484+751804683
1598+753148712+754568575+756753528+759844342+763201041+765789617+767045864
1588+767597566+768617272+770393215+772295384+773946402+775511619+776965716
1578+777733653+777108408+775335622+773745085+772899643+772197573+771050775
1568+769786604+769003067+768479285+767540798+765914295+764009526+763036806
1558+764454131+767513560+770155560+771414903+771530790+771522432+771811159
1548+771617272+770496969+769506048+770129931+772825109+777031150+781499113
1538+784666134+786294618+787265110+788353036+789796176+791286797+792640235
1528+794349692+796987669+800331182+804047242+808579834+813759277+817962161
1518+820564666+822723618+825315227+828364132+831972291+836247418+840941708
1508+846219580+852878377+860040341+865273951+868161468+870003712+872456963
1498+876806935+882808481+888542906+892597465+894982558+895849420+895532031
1488+895536859+897441999+901246955+906027850+911012724+915358919+918290266
1478+920359022+923384960+928619374+935650099+943046623+949415393+953842684
1468+956120681+956892703+957095506+956785607+955380849+952965546+950002690
1458+947204935+946295854+947851228+949449069+949375835+948531569+948540174
1448+950084405+953152377+957161187+960516772+961560374+960381570+958721328
1438+958216304+959333325+961170184+962583175+963406703+963574715+962302063
1428+959246286+955363577+952084879+950828756+952704615+957505382+963064304
1418+966411160+966443103+964151116+960997096+958822234+958525645+958259390
1408+955869345+952620547+951727623+954083620+957556082+959939318+960402680
1398+958607546+954740932+950675107+949473027+952659362+958828115+965124765
1388+968728033+968401915+966435922+966678468+970453895+976225958+981774667
1378+985486146+986856980+987079592+988200513+990701308+992953056+993728236
1368+993717031+994297518+996012671+998293143+1000012072+1000646107+1001258352
1358+1003856833+1009288540+1015948761+1021028412+1022946985+1022182081
1350+1020440310+1019589482+1020442167+1022072137+1023050800+1023495158
1341+1025431746+1030301413+1036429000+1040746099+1042589024+1043572454
1332+1044843125+1046216807+1047389544+1048600290+1050205870+1052239463
1324+1054058864+1055101476+1056395547+1059197511+1061707653+1060143798
1315+1054105170+1048166828+1047187732+1051973394+1059680745+1066881833
1307+1071638524+1073624450+1073549173+1072269588+1070205289+1068009627
1298+1067115217+1068752987+1071907812+1073741823+1072236654+1067297467
1290+1060165712+1052575734+1046411933+1042953400+1042181686+1042746759
1281+1042514366+1040135588+1036526377+1034207708+1034769067+1036854228
1273+1036828537+1032085219+1024021416+1016792408+1012590205+1009622582
1264+1004937516+998047688+990707127+984308642+979394031+976178539+974105140
1254+971930897+969020165+965701352+961879930+956294325+947908862+937719474
1244+928384505+921637493+916686667+911049310+902618656+891653407+880720287
1234+872113821+866011369+861417614+857952209+856050845+855835476+856258662
1224+855602897+853083841+849595470+846498774+844459918+843683748+844145005
1214+845426262+847294444+850052889+853421412+856161408+857876003+859876354
1204+863305977+867618805+871683331+875526606+880123023+885659413+890700744
1194+893881693+896119142+899484012+903900470+906883322+907153229+906631243
1184+907875047+911351656+915926592+920744940+925750924+931012391+936652720
1174+943193463+951050439+959646505+967418981+972983661+976478409+979473084
1164+983205487+987349685+990676669+992696458+994407091+997170674+1000515982
1154+1001750438+999976105+998704938+1001688223+1008467179+1015484532+1019878642
1144+1020951154+1020658465+1022585395+1027434510+1031462202+1031212661
1135+1027295780+1022150572+1017587707+1015439526+1016817789+1019729388
1127+1020395552+1018061160+1015811764+1015857698+1016579825+1015845998
1118+1015395140+1018419345+1024506197+1030619855+1035915184+1041876988
1110+1048248543+1052256797+1052045699+1049280879+1047004987+1045962871
1101+1044689847+1042407394+1040038520+1038381869+1037039140+1036263960
1093+1037679180+1041226857+1043726970+1042484156+1038765001+1036009219
1084+1035408117+1034953360+1032890361+1029349246+1024918240+1020042691
1075+1015592742+1012562904+1011282576+1011537688+1012680215+1013105072
1067+1010862981+1005721425+1000150121+996665649+995028745+993798932+992590971
1057+991613299+991066921+991457111+993845485+998295991+1001812158+1001223499
1047+997820371+995629785+996125400+997490787+998361487+998939003+998442026
1037+995666000+991991355+990047524+990492501+992017479+992814574+992050846
1027+990577744+989500528+988888592+988700709+989632882+991989126+994555788
1017+995039455+992072204+987079220+983160977+982215681+983618768+985125856
1007+984345785+979942761+972270077+962770006+953099695+945017507+939602823
997+936180938+932965446+928885692+924075205+919052569+914198626+909085174
987+903006122+896843312+892475821+890090976+887993186+885270894+882665975
977+880734959+879096136+877393427+875493116+872975421+869685395+866347330
967+863652771+861347475+858920658+856311281+853514703+850637338+848402180
957+847582181+848225069+849948393+852360043+855433772+859928292+866581889
947+874416766+881014957+885232265+888051625+890458384+892644761+895470558
937+900924861+910385746+922601237+934095344+942457717+948604122+954641884
927+960602016+965046888+967151611+966930114+964650322+960594649+955420902
917+949998295+944781647+940188635+936962804+935683157+936314716+937756370
907+938329986+937183373+935130651+934180464+935914683+939909503+944124335
897+946877084+947736951+946982385+945566298+945343624+948030444+953960924
887+961775247+968936593+973408889+975283324+975933888+976155943+976054171
877+975753496+975085598+973761874+972040965+970417247+968905021+968306767
867+971243189+979390441+989858713+996707002+997066982+993852356+992178867
857+994315347+998374673+1001211118+1001260581+999474485+997567178+996070119
847+994664556+993489591+993302884+994975073+999247416+1005398093+1010602297
837+1012429003+1011481045+1009697178+1008028021+1007260889+1007259527
828+1006327479+1004618022+1004861187+1008280781+1013025524+1016616906
820+1019041990+1022535376+1028124694+1034434654+1038965823+1040567564
811+1041402545+1043533206+1044599961+1041842816+1038652705+1039702745
803+1043072506+1043625940+1042414203+1044872221+1050795705+1053183645
794+1047265856+1035869312+1024604937+1016973729+1013445676+1012149748
785+1011720062+1013009738+1015594600+1015432531+1008884855+997956625+988864326
776+985737977+987271375+988773386+987679208+986921238+990599906+997398548
766+1001176389+998964508+994182003+991018697+990825799+993120386+997559130
756+1003714450+1008955613+1010896967+1010922906+1011804687+1013788323
747+1014903054+1013986544+1011145208+1007301004+1004551350+1004898144
738+1007176698+1008100513+1006709993+1004043911+1000361652+996315760+994361776
728+996490704+1002866408+1013389528+1027087716+1039118358+1042054161+1033130801
718+1018283772+1007254265+1005070365+1008478755+1011769029+1013751241
710+1016906190+1021578008+1025380859+1027544888+1027627593+1024841972
701+1020478815+1016744741+1015262663+1016217802+1017839167+1018564080
693+1020640512+1026386018+1029986438+1024667461+1015018384+1006417551+999371907
683+995094180+994503973+994868472+993162173+989860136+986624896+984168612
673+982842412+981667447+977147792+967256293+957891114+955722257+960090677
663+968738805+980061124+992404450+1004083716+1012080352+1012190172+1003363199
653+990107325+978309324+970270469+964562973+961835110+963770955+965845902
643+962515637+957447376+958586746+967068534+977006400+982163123+981603746
633+979551457+980352823+983680116+982405917+971784491+957994001+949722753
623+949460274+955721824+967269974+981424839+988989932+980035681+958760886
613+937168144+921812933+917657159+927291565+945446945+963639901+975458455
603+974173793+959330044+945165337
##END=
