##TITLE=<SNM>
##JCAMP-DX=4.24
##DATA TYPE=INFRARED SPECTRUM
##DATE=29/4/2025
##SAMPLING PROCEDURE=Instrument type and / or accessory
##ORIGIN=Admin
##XUNITS=1/CM
##YUNITS=ABSORBANCE
##RESOLUTION=4
##FIRSTX=4497.3318
##LASTX=599.83466
##DELTAX=-1.4281778
##MAXY=2.1084392
##MINY=0.38714632
##XFACTOR=1
##YFACTOR=1.963637e-09
##NPOINTS=2730
##FIRSTY=0.39487341
##XYDATA=(X++(Y..Y))
4497+201092872+200928307+201017806+201110310+201006833+200953865+201287867
4487+201816167+202152037+202462651+203094474+203719118+203629543+202653503
4477+201277593+200190123+199972923+200848460+202459358+204102431+205383242
4467+206431494+207318763+207650838+207114722+205991267+204699271+203393751
4457+202338487+202005077+202454987+203035420+202963723+202104016+201110827
4447+200860419+201714283+203218365+204358211+204264993+202871295+200805327
4437+198855236+197757749+197972429+199218044+200689100+201918081+202811573
4427+203024978+202235860+200766200+199196736+197866721+197157783+197470280
4417+198611127+199877899+200756031+200977860+200325078+199129456+198399058
4407+198676890+199363502+199738407+199866608+199992593+200053104+200130962
4397+200453354+200837821+200820155+200256325+199431723+198781703+198669134
4387+199217407+200230130+201142076+201165844+200045652+198556550+197667324
4377+197575669+198006987+198713148+199258840+199157928+198612326+198447457
4367+199075106+200008726+200574711+200705355+200673711+200454493+199935405
4357+199403160+199173135+199047879+198689836+198289691+198481075+199623865
4347+201218508+202187551+201984739+201111373+200281625+199638010+199033400
4337+198471210+197989579+197542249+197256768+197511349+198416906+199457053
4327+200030460+200096556+199923673+199656906+199482946+199607307+199864179
4317+199948761+199956077+200183141+200569899+200741143+200565726+200472948
4307+201002037+201994286+202606439+202322096+201570784+201136385+201263493
4297+201513323+201420212+201166041+201322153+201948390+202527715+202906445
4287+203519387+204480508+205181887+205060455+204270487+203351453+202658269
4277+202331308+202406784+202730922+203039108+203240872+203463065+203732003
4267+203835329+203702104+203690813+204135487+204715753+204822175+204537209
4257+204526934+204977118+205376002+205288992+204783215+204236566+204085675
4247+204533354+205343250+206105338+206630284+206981512+207246277+207362321
4237+207225590+206940974+206786851+206807825+206652958+206072677+205366653
4227+205121649+205613979+206553897+207376785+207773438+207871513+207869555
4217+207749519+207559472+207623838+208115697+208742921+209157560+209278036
4207+209128238+208889471+208934836+209280160+209447488+209263966+209106261
4197+209111664+208911721+208294271+207515291+206970160+206860141+207128169
4187+207648455+208377912+209196079+209781566+209968245+210020014+210240279
4177+210535671+210585437+210273866+209869062+209866634+210561730+211594578
4167+212130739+211823570+211299747+211269029+211625585+211955049+212297050
4157+212709108+212733908+212058709+211226867+211093748+211795644+212583123
4147+212610745+211710925+210405148+209433829+209401441+210472018+212080199
4137+213357064+214048002+214555494+215103828+215435553+215334595+215004706
4127+214787567+214753054+214778324+214871451+215132527+215473011+215688222
4117+215795706+216085073+216813194+217864330+218658305+218521256+217321961
4107+215668416+214407183+214033842+214519327+215519604+216681685+217745994
4097+218493042+218809955+218785762+218638438+218623474+218988589+219717667
4087+220319879+220322900+219969759+219909339+220269173+220521401+220174999
4077+219277030+218354748+218035498+218518448+219310056+219678616+219423292
4067+219002916+218992353+219623690+220647917+221440496+221517459+221127180
4057+221015309+221463398+221948534+221898268+221341116+220708610+220469996
4047+220904243+221731411+222193553+221917133+221326986+220929164+220723165
4037+220514844+220308694+220294200+220749983+221778278+222881380+223256512
4027+222883231+222770572+223657567+225002532+225765105+225681753+225212310
4017+224701843+224157288+223526756+222777128+221948990+221373125+221545005
4007+222577656+224004774+225237276+226000016+226280914+226120295+225617311
3997+225039913+224718143+224721239+224779899+224679715+224526350+224477055
3987+224556188+224852536+225399337+225853952+225937957+226054548+226746730
3977+227824911+228705244+229200579+229419038+229332650+228894017+228255182
3967+227686420+227453558+227727292+228437308+229230903+229723233+229844271
3957+229831309+229852724+229866520+229937154+230321788+230958604+231205292
3947+230656853+230031541+230445754+231826719+232775349+232302415+230882825
3937+229643174+229616098+231472622+234681350+237049433+236723718+234746839
3927+233847125+235103577+236868963+237091262+236111686+235808204+236822323
3917+237881655+237442035+235396389+232946486+231322490+231011086+232131460
3907+235176169+240535174+246983607+251744922+253181678+251880848+248695629
3897+244326688+240476211+239261800+241295137+244342957+245109447+243970678
3887+244329237+247107239+249271221+248936960+248095496+247679887+245997808
3878+243355186+242561970+244541914+247655800+250945271+254325394+256138329
3868+255430651+254280029+254115176+253388936+250599293+247083806+245080838
3858+245968698+250997419+260853855+270498388+270043834+260703723+250759670
3848+244760464+243805718+247071436+252535467+258105069+262899182+266658581
3838+268021121+265779705+261482673+257672643+255090654+253087397+251559974
3828+251032463+251636861+253860291+259113922+266671542+271104744+269348328
3818+265682815+263188124+259901856+254598840+249815912+248351686+251112477
3808+256429729+260694344+262783745+265221006+268709190+269973837+267703434
3798+264597500+261853966+258541198+254793729+252119978+251308519+251942862
3788+253383366+255175706+256781778+258055926+259782139+262503424+265083198
3778+265731715+264463213+263182508+264022834+267964510+273787722+278791674
3768+281728049+283277358+283930641+284471462+286870112+291985433+297522708
3758+300650588+302225546+305770037+314132500+327027665+338701226+343004572
3748+343011037+345213538+350119355+352046878+348977673+346087133+348300258
3738+357600271+371869601+384143689+388149170+384652365+378950813+375602288
3728+376646079+381486391+387525816+392620435+396660580+400081196+402764113
3718+404897650+407643491+412775750+421528962+432367175+440456055+442981737
3708+442116218+441336054+443324831+448917503+455659263+459855398+461289634
3698+462484801+464950898+468797110+474061835+480667548+487161648+490426547
3688+488645362+483788476+479359221+477957554+480368771+485388295+491545221
3678+498603575+504946087+506550489+504438747+504684980+508555536+509867384
3668+505002151+499028686+496719004+497683539+498917347+499168589+500516437
3658+505319838+512413859+518445604+523842704+532227507+543503488+549912414
3648+545638117+537114231+531783061+530408804+530603557+530811362+531403815
3638+533608745+538014840+544066073+550942211+558825867+567612560+573146921
3628+570301821+562730207+557176358+555564064+556850779+559723137+562897094
3618+565390146+568021006+571958493+575968466+577756693+577825657+578902564
3608+580907459+581134023+579815801+580124867+582702182+584427272+583902630
3598+584304399+588494311+594921936+599404827+600223541+600093321+602276760
3588+605758266+605962429+602074176+598210086+596767168+596096704+593684395
3578+589576803+586520377+587394275+592868413+601165189+609558127+616404762
3568+621632242+625164864+626112098+623916639+619421606+614314267+610409138
3558+609460083+612211207+617123367+620789487+620773582+618376692+617108494
3548+618778400+622207818+624663352+624297159+621571412+618659533+617881008
3538+620538276+626073305+631407450+632983683+630995422+629495681+631023955
3528+633183414+632094487+627831178+623788605+622040870+621577118+620262174
3518+617554154+614979025+614071555+614886808+616814786+619418995+621913868
3508+622926363+622082637+621415391+623260199+627401119+631498391+633879739
3498+635174225+636880010+639218316+641232439+642610641+644116756+645821691
3488+646464533+645232516+643152100+641927914+641889607+641681195+640184915
3478+638178927+637382736+638471238+640503695+642036097+642187018+640874441
3468+638353585+635323142+633606187+634222924+635024336+633597445+631626182
3458+632854071+637700970+642700429+644954532+644873365+644211583+643388377
3448+641453235+637777341+633299245+630305956+630158678+631598863+632324450
3438+631935977+631961171+633327171+635134279+635456397+632877140+628009539
3428+623699485+623057918+627016107+633545418+638811934+639656630+636085337
3418+631048299+627436573+626252577+627012464+628659848+630212283+630970653
3408+630814511+630540959+630939266+631684523+631853535+631177001+630241666
3398+629755088+629953180+630670632+631815107+633188999+633634599+632162055
3388+630341896+630841405+633274598+634388172+632723001+630018745+628117479
3378+627636122+628931154+631688348+634345494+635465018+635240336+635408074
3368+637500146+640685152+642208751+640922340+638865053+638424553+639653474
3358+640921187+641009760+640156746+639826007+641499677+645024772+648417037
3348+649808413+649420243+648712505+647922385+646303048+644744906+645594945
3338+649182995+652502106+652728670+650941232+650061263+650354242+649638126
3328+647273472+645595431+647004898+651328552+656175026+658792894+657973270
3318+654909377+651742826+649896561+650345318+653592429+657897748+659423047
3308+656539033+652233228+649962794+650077958+651539513+654071600+657074360
3298+658836786+658681615+657850942+657142353+656024104+654697444+654607838
3288+656116685+657586193+657602888+656605084+655797055+655809682+656986211
3278+659956796+664718642+669341952+670788755+667929267+663410497+661413373
3268+663136156+665086657+663474484+659846246+658731153+660907064+663340197
3258+664431552+664773401+664017703+661626034+659395546+659621503+662267843
3248+665933357+669385359+671103528+669995478+667174905+664749603+663170395
3238+661874210+661352482+662585531+665064559+666648745+665829485+663080608
3228+659875082+657445410+656374513+656497752+657089901+657636824+658131354
3218+658302006+657531130+655920172+654390441+653556793+653317845+653442297
3208+653849165+654355898+654623501+654490428+654048471+653335511+652240270
3198+650928119+650020649+650081176+651201550+652955294+654515925+654950962
3188+653712571+651115769+648224348+645746777+643598792+642069061+642204138
3178+644155913+646287568+647021775+646550435+645672227+644281094+641840737
3168+638330152+634349683+630696736+627943731+626303815+625579199+625322888
3158+625579563+626714750+627860379+627222090+624828843+622842707+622292749
3148+621893470+620656779+619140586+617794741+616500195+615618102+615777462
3138+616934928+618357387+619112539+618568713+616966557+615237400+614074348
3128+613467810+613018325+612507160+612044319+611803064+611896008+612335294
3118+612676961+612123119+610630299+609266181+608734921+608243547+606788002
3108+605041846+604734783+606333661+608323500+608971623+608022629+606237377
3098+604322998+602850758+602075026+601196211+599206614+596957914+596796187
3088+599566858+603175305+604811883+603965183+602220605+600778841+599461468
3078+597908608+596542486+595930667+595867105+595597621+594726394+593486850
3068+592279420+591325509+590656441+589979907+588802892+587308554+586597962
3058+587198429+588005730+587772731+586797632+586016619+585623350+585422040
3048+585313980+585004731+584385201+584081963+584496784+585042188+585111820
3038+584771428+584192756+583321226+582240070+581194792+580148786+578822247
3028+577210924+575644525+574357507+573370631+572756748+572514278+572197805
3018+571219853+569607256+568102173+567541409+568127670+569111025+569384881
3008+568625965+567287952+565749965+564426703+563987174+564391917+564449226
2998+563416637+562243022+561999581+562072917+561215896+559572701+558274513
2988+557628211+556948520+555883573+554883401+554368594+554185133+553955777
2978+553573253+553284281+553349178+553538103+553179802+552078430+551019068
2968+550746912+550928673+550782730+550185724+549418430+548430704+547161230
2958+546019002+545421934+545260146+545009846+544099766+542550973+541374565
2948+541657345+543188229+544509487+544281284+542318399+539586156+537372484
2938+536321682+536124380+536098700+535999442+536020083+536046734+535442685
2928+533885150+532017152+530793514+530454154+530490639+530282774+529484822
2918+528060239+526123580+523829105+521562010+520065123+519892954+520673421
2908+521397855+521483636+521162124+520810379+520464706+520082667+519521843
2898+518355999+516578517+515183256+515104881+515824094+515871932+514639126
2888+513078981+512589003+513511164+514768921+514989899+513902187+512297542
2878+510779771+509206209+507478356+506170151+505784288+505912352+505903216
2868+505843843+505981863+505861023+505102411+504318848+504270524+504803422
2858+505247140+505247231+504901588+504548416+504455927+504494204+504243782
2848+503378596+501803030+499798013+498106373+497227255+496815864+496298871
2838+495602273+494889738+494163058+493383289+492492666+491369257+490133416
2828+489192041+488679783+488233000+487572432+486914292+486534894+486249929
2818+485693840+484935380+484378744+484143924+484012126+483783923+483210896
2808+481997092+480364704+479128468+478782642+478929071+478846052+478256149
2798+477431789+476833781+476705534+476773285+476337399+474996896+473303799
2788+472249658+471974437+471558341+470399175+469170679+468919104+469690192
2778+470611988+471022589+470858373+470149785+468952250+467683900+466800562
2768+466236429+465677153+465117179+464745795+464599366+464571015+464479194
2758+464031135+462955382+461301624+459595991+458543732+458361030+458491887
2748+458239978+457467554+456464165+455527556+454887872+454652475+454655176
2738+454551061+454022564+452866403+451160587+449378158+448069952+447473037
2728+447531621+448015983+448458608+448347026+447625688+446698306+445830207
2718+444904950+443824067+442803012+442123442+441740007+441263264+440404938
2708+439413236+438827643+438744199+438653774+438103786+437212647+436430389
2698+436055727+436039821+436009224+435501732+434442917+433339299+432742019
2688+432614987+432503101+432211367+431940364+431765676+431423766+430737518
2678+429961118+429509539+429426156+429318823+428898903+428365003+428032442
2668+427767541+427124487+426054319+425126027+424834566+424925932+424705925
2658+423932651+423018625+422330374+421759412+421140550+420636792+420435573
2648+420416541+420373803+420290905+420229165+420159320+419973582+419533780
2638+418787401+417924218+417246621+416861305+416681487+416616620+416566899
2628+416431277+416257620+416131377+415901717+415326748+414477316+413748876
2618+413428123+413374365+413210878+412838219+412562148+412563240+412560691
2608+412257725+411795157+411471976+411278711+411000029+410597684+410233403
2598+409996913+409837038+409720903+409631965+409477674+409258153+409235053
2588+409636670+410301275+410858214+411078616+410881496+410274776+409491486
2578+408943076+408825636+408897029+408800654+408492013+408186315+408013114
2568+407893944+407682253+407310081+406861567+406508821+406288328+406040819
2558+405654987+405210176+404856368+404734101+404922267+405253492+405350170
2548+405057920+404656910+404482525+404553281+404721565+404996028+405486157
2538+406075302+406390348+406190617+405599196+404870634+404149904+403532894
2528+403149429+403089116+403331797+403789842+404351699+404850965+405059164
2518+404826256+404324684+404057263+404431682+405320393+406150944+406443316
2508+406175380+405629702+405069333+404671086+404583392+404812840+405117414
2498+405231546+405136264+404921903+404559686+404068342+403709313+403732443
2488+404091563+404573831+404972169+405048722+404708513+404294511+404284920
2478+404653966+404934712+404923693+404913434+405154416+405464484+405557702
2468+405465152+405368292+405262234+405101508+405052911+405257529+405560282
2458+405773490+405939406+406096853+406118587+405957436+405724498+405437074
2448+405028446+404655635+404670752+405198581+405951517+406523573+406723910
2438+406581458+406204004+405781716+405607270+405864735+406362028+406656676
2428+406564976+406388739+406486874+406804319+407029122+407055378+407049702
2418+407143436+407268981+407300762+407228731+407123675+406952053+406555778
2408+405924836+405390298+405348167+405828735+406537505+407271895+408022190
2398+408687008+409074115+409253084+409515101+409907369+410185049+410248762
2388+410225754+410093865+409600427+408593912+407158370+405411030+403404617
2378+401247647+399130745+397173081+395357535+393645375+392025068+390450170
2368+388935222+387662136+386752633+386194875+386201704+387060607+388503707
2358+389945410+391368021+393405759+396709724+401213043+405635925+408216670
2348+408098865+405877605+403137834+401236204+400286846+399645704+398997217
2338+398624467+398861776+399484280+399942356+400157597+400571264+401338983
2328+401993511+402094530+401872610+401991022+402798960+404049674+405279111
2318+406158715+406558662+406649209+406868123+407509113+408423473+409291421
2308+410040472+410818693+411688068+412521837+413173967+413637870+414017662
2298+414409474+414823627+415208306+415564907+415990078+416552937+417173285
2288+417688609+418036225+418292840+418500827+418513090+418131234+417422463
2278+416722677+416232609+415811505+415284465+414746861+414441194+414455279
2268+414619586+414693893+414657316+414779796+415301827+416074069+416718306
2258+417152705+417654278+418297180+418714672+418654480+418403086+418359953
2248+418507171+418581599+418532061+418552490+418728423+418805249+418417717
2238+417554899+416637716+416109037+416097229+416400073+416613888+416412154
2228+415872517+415397018+415279062+415509359+415899987+416201344+416248878
2218+416172204+416270217+416570208+416777436+416803753+417045555+417896110
2208+419183159+420308207+420844718+420872492+420834033+421202897+422177268
2198+423517375+424705257+425353653+425467937+425343302+425288665+425468089
2188+425932508+426669599+427537183+428251630+428634184+428845207+429210064
2178+429833509+430499116+430914696+431005606+430989822+431145782+431535075
2168+432050064+432626582+433211386+433667245+433950997+434244886+434765248
2158+435574613+436558878+437432837+437941148+438222380+438739312+439752900
2148+441087271+442390073+443383141+443956198+444292220+444816953+445819400
2138+447215573+448782700+450428656+452101264+453705241+455334594+457326134
2128+459817030+462461944+464824412+466851223+468742017+470558777+472207345
2118+473670023+475034657+476329658+477478838+478429532+479272195+480229233
2108+481490177+483022640+484649048+486348854+488260228+490274199+491912446
2098+492810020+493096503+493104364+492906455+492352612+491396030+490078171
2088+488234912+485578767+482156422+478452116+474974404+471925779+469217061
2078+466625722+464043065+461704121+460022559+459071015+458426626+457707140
2068+457030120+456665232+456487053+456179261+455803020+455684093+455826575
2058+455877297+455669341+455448271+455509222+455900002+456578085+457584539
2048+458854074+460064023+460942686+461604650+462396318+463589391+465361894
2038+467863809+471104182+474849526+478797121+482902255+487370849+492143411
2028+496602414+500139407+502812034+505070782+507160882+509133146+510924560
2018+512034128+511763976+510273766+508702238+507815136+507201769+506093749
2008+504422052+502698813+501300577+500239060+499362339+498493390+497445896
1998+496154203+494934207+494430783+494972696+496027991+496682124+496674505
1988+496529685+496809763+497687455+499024436+500514524+501873543+503109293
1978+504528322+506333213+508278281+509909151+511205155+512761779+515064692
1968+517702291+519707854+520777293+521613916+522930378+524787266+527014415
1958+529575946+532300054+534843736+537121030+539369366+541817251+544554047
1948+547553528+550721233+553987102+557059070+559212943+560140386+560787052
1938+562364803+565017396+568021674+570670442+572604066+573867165+574947229
1928+576521459+579116075+582689191+586229402+588552652+589951556+591675311
1918+593659322+594590407+594367243+594397233+595482578+597048734+598166801
1908+598550660+598582410+598755794+599264105+600077294+601175388+602472241
1898+603744690+604812794+605570738+606020891+606497148+607324665+608137611
1888+608319979+608054259+607919304+607832673+607285994+606198099+604918062
1878+603757014+602868728+602406373+602770987+604629454+608151149+611769067
1868+612500118+609153263+603944299+599646568+597153274+595752670+594439911
1858+592754342+590821932+589004626+587553088+586519588+585903276+585867094
1848+586883110+589213706+591544545+591011646+586823555+581811711+578499278
1838+576873628+575645982+574328003+574012258+575882502+578967218+580264011
1828+578477301+575412801+572427040+569135369+565606146+562894848+561478096
1818+560937366+560853831+561231012+562264330+563883909+565312136+565456379
1808+564148355+562507468+562054401+563761096+567349996+571072211+572946158
1798+572884721+572915500+575206029+579970061+584255832+584307434+580828538
1788+577792328+577358324+579008379+581598442+584718187+587987214+590610849
1778+592564082+595189356+600061267+607304692+614111926+616372161+613705483
1768+609114713+605232289+603843644+605846901+609925960+613049650+614295205
1758+615403558+617068183+618789752+621463837+626665758+633637755+638897897
1748+640165124+638806834+637451155+637661448+639556704+642201770+644345202
1738+646204944+650199557+658001438+666114329+668265106+665240492+661506621
1728+658662249+657076606+657271055+659006891+662013414+667617530+677289291
1718+688806709+695497140+694303795+689532660+685378383+683472139+684732506
1708+689529260+696485595+702798298+707783734+714051635+722874813+730408606
1698+732828686+731429843+727716249+723064345+720469000+721598055+725681303
1688+732049797+742233148+756506486+767073149+765706360+758251124+753064318
1678+752755495+756704941+762620491+767939701+772207381+775962318+777726140
1668+775882790+772959316+772762256+775654405+778161784+777401229+775499720
1658+776680013+783499693+796434166+811129002+816278654+812125167+810271253
1648+813489224+816203740+812942241+806469874+801827805+800772390+803919696
1638+811534959+820561086+822728862+814935177+805648672+801478914+801883232
1628+802726169+801552371+799982755+799491746+798207156+794891444+792264955
1618+793129990+795825504+795254602+790414259+784807109+780828037+778486695
1608+776608620+774476844+772544131+771337612+770402824+769210450+768439878
1598+769066449+770652457+771704230+771491143+770523937+769427543+768314029
1588+767078977+765788923+764842419+764713292+765453267+766894788+769587631
1578+774412311+779772257+780942836+777605695+775317230+776967224+779453720
1568+777943112+772981110+768515642+767280286+771445916+783563679+801754834
1558+811018149+803169583+790883839+782136910+777440204+775511315+775196967
1548+776522414+780711173+788490956+798976574+810557797+819900336+819703277
1538+810066119+801843833+800599978+803278494+803395297+800266567+799580866
1528+804782788+814053023+823397262+831442523+838961017+845267286+849257104
1518+851353183+851460030+849557064+848029762+849855203+856183994+866877053
1508+880204614+888993978+886159259+878296124+873823188+874159209+877454462
1498+880838956+882029145+881838156+883772144+890604694+902123994+913622228
1488+918362523+915588331+910908258+909217043+911354222+915220681+919241277
1478+924498626+932547833+942937168+953695791+961578536+962904104+958730704
1468+954325520+952536079+951212757+947584579+944442372+946484603+954435038
1458+964609343+970396980+968502938+962285121+955814394+952120651+953083122
1448+957523214+962045444+965023131+967185687+968971485+970539098+973315172
1438+978776258+985079734+987673016+985826812+982965260+981839605+983118549
1428+986172304+990237521+994632021+998279443+1000890937+1004309974+1009525191
1418+1013192283+1012426325+1009952882+1008950586+1009014512+1008194645
1410+1006202377+1004824782+1005786282+1008725601+1011489169+1012688525
1401+1012527890+1011171361+1008960967+1007938395+1010282590+1014598169
1392+1017169898+1017073736+1015466602+1012439924+1007610327+1002253538
1384+998786662+998309555+1000290895+1004372200+1010656068+1017496510+1021799583
1374+1022188724+1020164341+1018485632+1019024358+1021895623+1025795896
1365+1029255912+1032079703+1035038509+1037794914+1039176881+1040000329
1357+1042199917+1045444903+1047263120+1047101028+1047580746+1051111183
1348+1057206308+1062834585+1065073997+1064405962+1064316113+1066269346
1340+1067410178+1065501870+1062981742+1062686699+1063975418+1065210348
1331+1066495788+1068663079+1071561177+1073741823+1073227137+1069745874
1322+1065874498+1064401105+1065630572+1067693201+1068682141+1068088291
1314+1066997240+1066877523+1067246023+1066082728+1063503106+1062428446
1305+1064477719+1067771879+1070097861+1071648475+1072704438+1071697406
1297+1067699150+1061414008+1053578616+1045603352+1039806305+1037241861
1288+1036111956+1033316090+1027628076+1020397704+1013317464+1006953887
1280+1001135471+995696665+991012586+987839600+986748791+987126336+986514517
1270+982250844+974186702+964570611+955832728+949466843+945193699+940529290
1260+933180597+923759805+914741388+907685006+902454612+898084577+893553484
1250+888328492+882491257+876320004+869943921+863345220+856431017+848971228
1240+840800300+832446276+825201395+820069470+816896119+814766165+812845533
1230+810683827+808282385+806171128+804936076+804565573+804596534+804729061
1220+805061986+805735545+806536471+807331934+808716268+811359512+815031946
1210+819129886+823582483+828331460+832686196+835962690+838185710+840095779
1200+842771927+846658784+850618368+852988364+853937055+855465146+858718024
1190+862687383+865899890+868305886+870889272+874153928+878188670+883392716
1180+889855006+897019023+904850166+913701149+922422945+929035427+933875283
1170+939439270+946797919+954196696+959778289+964025753+967786943+969607952
1160+967926390+964269619+961091594+958708242+956984852+957570627+962046962
1150+968983809+974290999+974984047+972172154+969229375+968069601+968346796
1140+969336525+971242891+974310305+977431263+979076097+979473009+980235992
1130+981703557+982488153+982606595+983973991+986856973+989403266+990808120
1120+991786132+992776469+994242455+996864270+999988749+1002499346+1004808390
1110+1007459163+1009052758+1007847514+1004495924+1001001730+998279322+996519446
1100+996197934+996975973+996860081+993888100+988912257+984204198+980825714
1090+980218083+983541140+988308815+990468031+989185809+986026604+981689898
1080+976622992+972334671+969632478+967400716+964144195+960016509+956845647
1070+956438051+958726515+961625524+962995592+962096864+959374760+955687999
1060+951448427+947338892+945058441+945436776+947140193+948528838+949549528
1050+950995663+952797853+952977247+949767957+944707971+941878959+943841662
1040+948855631+952795121+953442152+952178445+950958753+949659228+947453388
1030+945094016+944704329+947325050+951306065+953620695+952800403+950556438
1020+949809299+951209418+953124768+954965265+957125331+957840901+954391570
1010+947199323+939687386+934081146+929122179+922174404+912777713+902798525
1000+893342461+884261089+876638723+872368433+871334690+871148740+869794214
990+867148420+863688344+859266828+853966984+849101812+846086667+844463567
980+842131636+838062290+833668154+830567594+828107992+824450189+819513623
970+815201080+812836669+811785260+810715760+809344782+808267026+807670201
960+806983953+805667370+803997342+802875390+803445806+806689214+812318887
950+818534700+824077439+829646647+835821603+841108517+843978446+845564150
940+848356373+853403063+860331411+869003305+879618778+891392689+901949457
930+908496435+910338814+909867170+910085235+911526756+912504222+912072099
920+911052441+910215454+909052038+907046232+904667434+902104628+898710603
910+894562397+891160115+889691154+889741602+890735702+893052578+896520668
900+899580918+901633773+904446941+909242602+913698296+914164779+911003389
890+909010513+911773960+917956748+923940230+928308808+931444761+932659112
880+931243088+928429253+925701867+923734671+923638206+926377673+930839984
870+934612526+936180564+935196056+932359698+930076333+930869792+934504526
860+938563916+941642075+943718181+944624194+944570163+944475397+944921544
850+946796219+951612825+958179290+961719015+959763294+956308621+956242570
840+959338456+961828351+961518617+959688440+958498373+958831055+960926588
830+964860433+969922968+974478649+976762500+977056875+978047697+980975299
820+983824831+984271159+982343121+980763852+983321619+991046097+999639190
810+1003268218+1001250756+996767682+992188750+989436595+989265883+988991785
800+986259724+983082670+982614973+984454134+984854931+981483732+975492844
790+969030676+963061582+957691194+953290745+949659350+945110347+938791390
780+932649338+929064992+928153273+928189030+927423193+925461583+923431494
770+922662439+923646098+926295413+929686706+931765484+931569578+930891283
760+931667743+933490028+935627510+939284039+945374368+952664598+959126220
750+963177049+964466860+964651839+965532475+966630447+966004544+963716565
740+962684825+966336983+974973787+983186725+984362647+978647921+972139979
730+969128781+970295536+975228337+980469112+980392013+973597588+966096213
720+963974454+966943764+971199484+974555020+976181217+974444834+970106004
710+967133113+968963168+975550942+983042178+987392482+987425325+983526813
700+976117958+965317082+952973725+942868810+937107096+935134376+935714445
690+937389815+937781020+936746731+937595495+941391167+945557768+946586715
680+942817329+935879025+929013936+926113531+930168792+937024654+934920015
670+916595544+892802642+885023041+896424324+912939866+924917089+929916488
660+928709240+924985325+923064511+925316915+929602200+930624955+926037402
650+919965165+917323377+916778034+912965302+904941471+896972946+891643050
640+889462465+892780969+902819712+914268955+917807405+911653454+903801489
630+899409356+897173162+895808073+898204173+908069229+922874373+933095666
620+932254308+922965314+910485060+896811825+881661130+866822658+856846930
610+856416022+865588153+876634656+882856965+887413070+891362213+890319668
600+885905013
##END=
