##TITLE=<SNM>
##JCAMP-DX=4.24
##DATA TYPE=INFRARED SPECTRUM
##DATE=29/4/2025
##SAMPLING PROCEDURE=Instrument type and / or accessory
##ORIGIN=Admin
##XUNITS=1/CM
##YUNITS=ABSORBANCE
##RESOLUTION=4
##FIRSTX=4497.3318
##LASTX=599.83466
##DELTAX=-1.4281778
##MAXY=2.1636598
##MINY=0.40999693
##XFACTOR=1
##YFACTOR=2.0150652e-09
##NPOINTS=2730
##FIRSTY=0.42917407
##XYDATA=(X++(Y..Y))
4497+212982716+213582929+214222320+214465093+213907830+212478696+210832360
4487+209877799+209816422+210205126+210735945+211263082+211454432+211102435
4477+210458593+209920231+209747413+210003704+210299692+210010641+209171692
4467+208602050+208831942+209465343+209870390+210009650+210307353+211129279
4457+212533477+214136302+215118091+214658647+212706059+210180427+208294763
4447+207731761+208190540+208604771+208190347+207363142+207126639+207732871
4437+208591534+209232877+209657669+209998158+210423482+211106961+211945111
4427+212511204+212329024+211168398+209395727+207955900+207529881+207775643
4417+207850272+207597056+207694048+208602848+209818226+210358777+209887398
4407+208992514+208302409+207882218+207625527+207623367+207961875+208514494
4397+208909869+208679992+207843113+207207627+207459482+208206779+208548969
4387+208234569+207733300+207492448+207476076+207273989+206549927+205438403
4377+204543815+204497375+205317349+206211582+206411391+206156312+206325034
4367+207326330+208744638+209653942+209163129+207311599+205404431+204755589
4357+205255483+205828601+206093264+206688241+207872560+208706924+208164746
4347+206528171+205028164+204537204+205108325+206324871+207651897+208607374
4337+208855043+208261323+206969630+205400600+204082966+203465834+203799772
4327+204984904+206470092+207488366+207588567+206967619+206216122+205692328
4317+205300488+204935507+204736570+204673506+204386141+203819205+203562825
4307+204092550+205075817+205963439+206846861+208049179+209251912+209784298
4297+209514548+208889696+208337106+208033990+208016582+208120998+207932133
4287+207154902+206108734+205580710+206034800+207118948+208075327+208554915
4277+208875483+209458081+210177188+210502282+210265454+209865139+209593215
4267+209256630+208681397+208158135+208070299+208393381+208890879+209529057
4257+210258162+210664570+210398961+209716650+209106454+208715058+208573461
4247+208969472+210093138+211547134+212527059+212480560+211529490+210261860
4237+209212497+208591505+208414323+208605821+208874699+208819030+208428743
4227+208294852+208984838+210291439+211403496+211852587+211987588+212336818
4217+212824910+212975735+212668552+212276239+212118832+212180712+212314678
4207+212423249+212517223+212614422+212519679+212021989+211391649+211163354
4197+211376889+211623641+211751780+211900328+212049350+212067127+211942952
4187+211708608+211438814+211336321+211485579+211684531+211743423+211639215
4177+211318011+210852681+210793670+211734343+213453208+214954383+215455297
4167+215067672+214521738+214465803+214933899+215285984+214846566+213761707
4157+212946881+213043103+213811209+214661768+215302652+215676093+215700851
4147+215380727+214935215+214580675+214276657+213828616+213197182+212685871
4137+212778218+213569633+214392195+214458941+213964815+213906396+214680166
4127+215581631+215861587+215523951+214877802+214092051+213416603+213235636
4117+213701439+214578694+215427980+215915125+216067534+216108679+216032719
4107+215639740+215001000+214584713+214811706+215515462+215925094+215545988
4097+214977825+215182293+216074322+216708108+216684696+216444392+216348184
4087+216340242+216406486+216668664+216946652+216758053+215992934+215191951
4077+214919819+215246451+215920820+216568670+216723208+216190851+215377340
4067+214855824+214735095+214765695+214913829+215452591+216418791+217264513
4057+217372123+216833555+216296080+216149824+216272653+216372928+216216600
4047+215749125+215233954+214983948+214895180+214647215+214346243+214374506
4037+214627115+214623950+214340756+214243528+214576209+215139521+215640568
4027+215919296+216006940+216084291+216257848+216458575+216599181+216638803
4017+216540939+216325452+216059266+215809660+215770511+216233741+217155424
4007+217975442+218177795+217894069+217682679+217860200+218246124+218454822
3997+218310667+217961244+217631270+217383053+217219685+217254693+217539780
3987+217878229+218056889+218044658+217765516+217079493+216252628+216018772
3977+216851450+218367770+219639925+220066432+219847219+219525778+219286184
3967+219032732+218934498+219394031+220509445+221865370+222834232+222966511
3957+222170719+220687602+219048956+217997701+218090003+219191929+220504653
3947+221187525+220958920+220256067+219934892+220500660+221557358+222277042
3937+222247211+221724246+221262998+221208586+221484593+221797544+221903719
3927+221673369+221227473+221022812+221422801+222258910+223176836+224090902
3917+224845816+224863874+223854695+222533304+221925815+222143994+222427558
3907+222490606+223028288+224491054+226113475+226980791+227202844+227116029
3897+226644354+225971642+225731974+226263296+226978913+226895750+226148808
3887+225975339+226985213+228168024+228408387+228213458+228259927+228020319
3878+227145386+226444337+226618072+227374864+228178051+228870582+229227947
3868+229127051+229052688+229355597+229527705+228954957+227910372+227045023
3858+226813977+228046615+231973724+237369411+239294254+236692307+233147942
3848+231028866+230445484+230562678+230804875+231248198+232362206+234384114
3838+236479098+237199329+236310317+234782313+233395271+232352711+231760544
3828+231607618+231423767+231026174+231425305+233532209+235870529+236231695
3818+235437987+235541279+236393376+236369432+235269384+234381289+234852476
3808+236532666+237982003+238542195+239428027+241411466+242978574+242834847
3798+242169767+242192528+242583436+242940934+243837105+245779458+248349932
3788+250866409+253104513+255068711+256957777+259562933+263683241+268855455
3778+273605392+277303482+280657030+284575398+289397361+294668637+299438984
3768+303322803+306627752+309285323+311129605+312999415+316176107+320662697
3758+324955276+328281788+331849077+337536063+346137194+355944606+363734785
3748+368895463+373593044+379352826+385011652+388790524+391449604+394635761
3738+399347511+405890232+413170549+418863007+421656555+422104951+421364902
3728+420718619+421481297+423612826+425223608+424885070+423465638+422717928
3718+422977547+423391335+423804117+425062252+427304349+429088999+429171230
3708+427675779+425421524+423763652+424231482+427057774+430448355+432526316
3698+433275742+433962579+435697358+438894430+443581333+449124326+453271374
3688+453764257+451769947+450202559+450309991+451626073+453352008+455335018
3678+457922782+460681249+461860584+460753423+458908105+457768584+457166167
3668+456128074+454477804+453133238+452817772+452904765+452268126+451246775
3658+451623026+454159203+456995079+458127916+458081476+458765709+460487887
3648+461450730+461181823+460603425+459808328+458183584+455917232+454316625
3638+454478602+456325015+458742193+460536634+461633561+463003684+464962409
3628+466004466+465219870+463773461+463176931+464612454+468586935+473833778
3618+477649417+478835023+478451317+477898447+478365566+481055498+485921919
3608+490465864+492034347+490980045+489313328+488056140+487562221+488779536
3598+492465676+497652147+501869476+503217237+502232061+501264811+502109602
3588+504361135+506309656+507305539+507470415+506384197+503924660+501451221
3578+500724867+502017018+504071197+505459127+505646129+505099736+504566240
3568+504292866+504308661+505286442+507945521+511347757+513144535+512508634
3558+511389641+511523637+512206391+512065592+511216246+510666837+510811185
3548+511115380+510797105+509815952+509114918+509336054+509912381+509691896
3538+508137907+505932222+504351966+504160764+505265854+507108185+508808237
3528+509311977+508278173+506751870+506130759+506302439+505711795+503584792
3518+501166667+500295372+501409988+503201145+504035820+503594612+502937414
3508+502952322+503146542+502387472+500683811+499677456+500726405+502866128
3498+503911645+503366968+502616536+502645760+503153227+503374836+502890205
3488+501861371+500864778+500517988+500938608+501545758+501445838+500109199
3478+497995684+496548417+496790378+497834002+497858612+496622544+495797009
3468+496494879+497492418+496891776+494833249+493193894+493026385+493538850
3458+493646815+493213032+492402050+491273769+490327876+490024627+489698838
3448+488323657+486237621+484798311+484731669+485812149+487507676+489208853
3438+490268687+490244816+489057761+487063865+484998979+483536864+482757887
3428+482169107+481328369+480356327+479727851+479718977+480355084+481573908
3418+482912351+483432921+482545181+480693474+478925122+477985144+477946721
3408+478464510+479220266+480007673+480450626+480004656+478509234+476547521
3398+475002021+474380378+474596072+475263593+476011156+476482564+476361584
3388+475683947+474993058+475013025+476318250+479152322+482976036+486237828
3378+487416838+486562936+485066391+483983366+483482970+483558841+484161494
3368+484844012+485257001+485706166+486525163+487494040+488441679+489598563
3358+490900387+491763902+491855273+491610798+491646590+491936025+492110219
3348+492279680+492930488+493870555+494090360+493185286+492093832+491904848
3338+492579527+493048984+492270569+490392507+488828283+488593304+488942460
3328+488493946+487256665+486367061+486260515+486418825+486487745+486505286
3318+486460414+486433378+486665400+487093563+487259948+486671700+485204764
3308+483694315+483658199+485429242+487315232+487770490+487452363+487783919
3298+488711829+489269462+489423039+489942100+490780146+490921980+490203464
3288+490074261+491748077+494490778+496438855+496567230+495301700+493748510
3278+492839857+492819092+493198745+493593365+494331995+495450663+495781154
3268+494054805+490803751+488199393+487861743+489467171+491395312+492323665
3258+492153168+491647654+491523775+491883492+492249479+492254389+492228655
3248+492680926+493396691+493581237+492737955+491074108+489350066+488459782
3238+488713012+489445046+489698039+489142713+488226459+487679622+487838287
3228+488375303+488595818+487898570+486149356+483895012+481984886+480764228
3218+479871282+478818458+477558726+476582898+476486587+477279910+478254229
3208+478707506+478524941+477974939+477390567+477037091+476877066+476553644
3198+475831223+474854685+474037640+473794083+474092067+474300661+473820941
3188+472803997+471860647+471204160+470481917+469398094+468142148+467099440
3178+466419112+466119412+466428074+467499267+468637900+468344472+465782649
3168+461978221+458868941+457396533+457084262+457182880+457455780+457811681
3158+457927544+457536651+456794767+456165137+455876471+455522375+454443018
3148+452645945+450949619+449941165+449239479+448272111+447371711+447357039
3138+448219430+448974595+448830276+447870983+446502369+444878868+443129358
3128+441652246+440842921+440667751+440742439+440857681+441171786+441689723
3118+441872613+441215416+439996710+438991214+438616294+438676133+438741711
3108+438552816+438115098+437517740+436724743+435665974+434521454+433695890
3098+433442512+433698789+434295792+435003837+435341812+434869487+433791284
3088+432799098+432229338+431908932+431871751+432434324+433256900+433150651
3078+431471895+429149489+427631972+427256637+427271486+427097559+426857994
3068+426795138+426894614+427122997+427466474+427643744+427208659+426097742
3058+424787133+423775750+423186142+422925753+422839322+422662170+422265095
3048+421957202+422001423+421947707+421203782+420090172+419410317+419160222
3038+418692274+418013099+417837574+418307267+418608771+418110889+417154199
3028+416377411+415912569+415591957+415390225+415304888+415130014+414594003
3018+413661273+412648204+411930102+411481292+410948062+410235906+409682414
3008+409537090+409593912+409435751+408867055+408126680+407659294+407546744
2998+407353087+406706804+405738253+404811024+404176070+403977503+404196746
2988+404466068+404317430+403769529+403372483+403519849+403942007+403991523
2978+403315188+402136858+400951548+400141573+399845452+399926470+400029022
2968+399893341+399598197+399291517+398920235+398527330+398422263+398647009
2958+398618050+397721111+396068444+394397054+393423237+393452048+394268058
2948+395168192+395354868+394590267+393412559+392564840+392286467+392265614
2938+392149455+391880814+391549405+391153039+390677578+390277930+390122519
2928+390100660+389903068+389389923+388686670+387936386+387221893+386735517
2918+386712741+387053911+387224022+386728684+385644151+384581862+384167276
2908+384565948+385399824+386049006+386080626+385511487+384768391+384364394
2898+384486172+384917590+385317682+385394382+384959060+384128231+383324733
2888+382774761+382217868+381364824+380355394+379576181+379274351+379387759
2878+379579996+379522198+379213388+378861924+378549328+378259153+378025090
2868+377822885+377579179+377409688+377496268+377662948+377498309+376966499
2858+376487340+376370235+376503195+376583414+376407387+375969876+375461316
2848+375115028+374975088+374910959+374833195+374722094+374501490+374056733
2838+373359100+372562169+372002613+371958687+372320593+372671228+372719029
2828+372417347+371780057+370950499+370274045+369906165+369553844+368949445
2818+368323247+368079187+368245926+368524388+368673380+368605376+368248795
2808+367591864+366831197+366245020+365906394+365646982+365286496+364860374
2798+364663877+364964198+365552534+365799109+365325216+364346844+363258554
2788+362287784+361609940+361336862+361302728+361193520+360911006+360581313
2778+360274603+359948637+359598060+359244763+358809589+358183065+357420890
2768+356703587+356150243+355830991+355821615+356049170+356239396+356190471
2758+355934697+355551554+355043318+354431348+353756491+353024665+352331321
2748+351883694+351697077+351507946+351192066+350933926+350784963+350485234
2738+349936652+349415106+349163207+349179328+349384314+349591903+349493670
2728+349030277+348521717+348234854+348152742+348201844+348293215+348158007
2718+347557868+346645547+345809808+345221649+344737817+344219820+343781984
2708+343617434+343653521+343542568+343065983+342450640+342123698+342180668
2698+342273814+342057085+341559971+341050109+340693913+340458815+340233242
2688+339965991+339706963+339527948+339467961+339562526+339790348+339946350
2678+339772482+339286904+338766867+338375441+338047286+337755159+337601079
2668+337555823+337389586+337004017+336616229+336461114+336466380+336369773
2658+336094447+335888692+336012512+336320020+336350517+335922915+335379007
2648+335056147+334813802+334329556+333650972+333188674+333189621+333409958
2638+333431906+333188082+332929262+332760451+332583566+332465632+332632343
2628+333025927+333237717+333031518+332658668+332474240+332494532+332512871
2618+332411384+332173712+331812339+331447801+331249974+331220572+331231930
2608+331248524+331312179+331420529+331565942+331740372+331834051+331727979
2598+331523229+331462236+331579489+331638086+331464869+331154905+330880437
2588+330697428+330618895+330687549+330887920+331090481+331119942+330881620
2578+330478925+330155739+330043810+330061913+330095337+330099804+330002399
2568+329714620+329312664+329065882+329181981+329544508+329804482+329776796
2558+329601448+329442695+329253564+328959011+328659932+328516797+328551612
2548+328670966+328831316+329046714+329211206+329133915+328865658+328723735
2538+328851134+329046862+329128620+329143439+329165269+329177574+329162133
2528+329118711+329065882+329090610+329258237+329487153+329679213+329891091
2518+330191293+330436892+330372527+329934573+329378360+329094248+329262792
2508+329672587+329944719+329932532+329804660+329773394+329877751+330002754
2498+330010385+329875710+329713229+329623958+329569798+329480468+329400929
2488+329427787+329562847+329721009+329854116+329996394+330194399+330437632
2478+330638506+330642233+330324845+329781706+329354104+329325560+329598283
2468+329786084+329641588+329302311+329087179+329143765+329361411+329555689
2458+329649456+329683443+329691429+329619462+329448315+329350052+329522205
2448+329853170+329983142+329750973+329370699+329146308+329198871+329441689
2438+329678473+329791852+329895587+330161891+330508770+330673765+330574792
2428+330399149+330369155+330552400+330823496+330948854+330833287+330679710
2418+330761320+331103230+331537901+331964910+332389909+332796805+333135342
2408+333389312+333577437+333740095+333961498+334315594+334745592+335085283
2398+335246373+335309495+335417638+335658652+336040080+336507347+336973343
2388+337353262+337602469+337737589+337771398+337613946+337152713+336461381
2378+335792529+335381847+335394980+335911853+336772764+337649235+338355357
2368+338812331+338883321+338657541+338516358+338520440+338267742+337647637
2358+337135024+337180695+337930418+339590893+342282126+345235107+346940130
2348+346467153+344506623+343130525+343869421+346099332+348389289+350337425
2338+352155796+353752912+354854572+355367658+355404159+355307759+355537385
2328+356127644+356503866+356251553+355786918+355798010+356293526+356692465
2318+356603253+356112322+355565426+355330358+355560220+356029292+356350851
2308+356425628+356506528+356733433+356790107+356282345+355381619+354735100
2298+354750747+355307878+356095965+356879910+357467389+357721595+357660662
2288+357484308+357502293+357898333+358460669+358714165+358417483+357759013
2278+357058334+356519099+356253002+356263296+356359370+356289119+355975458
2268+355501860+354954284+354420285+354022352+353817455+353771015+353850022
2258+353994222+354071484+354058705+354142948+354460365+354884979+355222008
2248+355460212+355718175+356056032+356424060+356730445+356905378+356920937
2238+356790048+356569118+356319053+356025861+355642806+355258214+355068639
2228+355099046+355128360+355002617+354837593+354824430+355020217+355375822
2218+355808659+356254629+356775968+357546100+358624214+359850019+361035240
2208+362135539+363177832+364177708+365237512+366568857+368261722+370128514
2198+371883970+373394033+374705322+375946420+377228277+378568288+379926698
2188+381306493+382717406+384073124+385216224+386035311+386555111+386947779
2178+387421584+388048019+388709801+389220166+389463961+389424945+389131339
2168+388674720+388255135+388019416+387824753+387350771+386468532+385368707
2158+384336855+383474317+382662803+381798371+380941689+380214506+379735496
2148+379594224+379719316+380085658+381197818+383783837+387862999+392743855
2138+397934852+403415255+409183349+415167018+421386495+427812821+434240212
2128+440414551+446194210+451652665+457014572+462355478+467408191+471726061
2118+475007257+477309134+478990197+480466422+482076908+484117983+486904284
2108+490809016+496130548+502758518+510067556+517210002+523446605+528325627
2098+531680772+533437144+533630299+532629979+530904547+528614974+525697665
2088+522008213+517266972+511191695+503611946+494507964+484339090+474035984
2078+464338725+455529060+447705723+440825676+434718306+429368171+424915981
2068+421378153+418586291+416245812+414077752+412110685+410536079+409273448
2058+408186786+407439282+407083026+406836925+406660808+406904188+407750162
2048+409091504+410887868+413295108+416598193+421137997+427232441+435177439
2038+445072762+456430288+468334977+480132203+491466717+501844156+510833547
2028+518378629+524498334+529191124+532683577+535214873+536719879+537099029
2018+536580677+535550660+534155690+532336491+530167780+527753264+524823709
2008+520911819+515890815+510049926+503898453+498050997+492912829+488367967
1998+484015253+479682831+475572225+471984881+469014625+466532253+464461096
1988+462913378+461977452+461511397+461241396+461042266+461062469+461485870
1978+462224086+463041486+463895062+464898311+466102256+467537779+469269896
1968+471276482+473459065+475757363+478080242+480249604+482146094+483819496
1958+485445275+487245750+489377811+491782833+494187765+496374194+498456651
1948+500763794+503443106+506356510+509279912+511995193+514405213+516742586
1938+519320382+522060687+524641499+526988219+529226323+531348062+533284514
1928+535113829+537047442+539336482+542085129+545045505+547763626+549904117
1918+551331151+552204812+553065280+554396003+556180831+558124796+560086095
1908+562016040+563636997+564526986+564556388+564160140+564103939+564896493
1898+566451724+568271693+569834792+570932074+571774972+572648573+573472244
1888+573992074+574293194+574660394+575100004+575347703+575246778+574989140
1878+574923415+575036408+574879696+574343183+574059634+574523973+575246186
1868+575320076+574618982+573756799+573226793+573078245+572932714+572196657
1858+570633912+568652558+566792303+565229558+563963496+563020738+562272139
1848+561465092+560534402+559526687+558369714+557094542+555928991+554915419
1838+553869428+552707486+551562582+550663956+550178556+549926243+549351631
1828+548186317+546727751+545143295+543267481+541226258+539560340+538637992
1818+538338529+538233935+537942577+537395711+536845118+536592036+536647113
1808+536686158+536454846+536136156+536157217+536692074+537524796+538341960
1798+538933550+539269869+539678125+540667856+542157303+543260737+543607586
1788+543899181+544784082+546203898+547761023+549271530+550772809+552291007
1778+553868778+555721816+558201525+561377300+564436591+566164211+566513546
1768+566370913+566303768+566637188+567758133+569553432+571206335+572385079
1758+573668534+575248553+576660205+577978623+579938207+582666443+585178454
1748+586658672+587387333+587998505+588970547+590771939+593523485+596390568
1738+598468942+600261816+602725316+605132911+605795669+605243597+605132615
1728+606008227+607619837+609605747+611488778+612892385+614134666+615988355
1718+618642879+621083721+622305651+622598251+622531993+622309969+622282756
1708+622971367+624336580+625699190+626938749+628956663+632261700+635554846
1698+637401199+638505580+639686158+640491489+640794265+641375621+642814546
1688+645222614+648947207+654071384+658357159+659134390+657798757+656989107
1678+657883000+660587159+664142143+667017034+669026075+671033281+672721621
1668+672999905+672610343+673436084+675988204+678802044+680022554+679570579
1658+678854282+679497754+683021384+689675946+695173002+695491100+693536131
1648+692426545+692622657+693162779+693443015+693706095+694174575+694911460
1638+696091269+697824273+699628209+700713659+701033650+701016790+700963665
1628+701243783+702471924+705169635+709379746+714500314+719712106+724928867
1618+730699179+736704056+741110752+743095478+743754806+744065923+744074619
1608+743527517+742562219+741552493+740803362+740828564+742474131+746318285
1598+752004827+758273672+763732275+767609380+769864700+771004871+772022170
1588+773791557+775916904+777093222+777151021+777303651+778024859+778692350
1578+779603044+782265555+786558193+790038518+791889840+793356511+795518241
1568+798695258+802763979+806970895+810246294+812747715+816299859+822260308
1558+828020504+830036525+829616141+828816784+828191414+827663834+826854124
1548+825424369+823853046+823335701+824519059+826378841+826796681+825290670
1538+824064481+824211017+825005227+825852266+826702855+827769255+829267398
1528+830902672+831700668+831442380+831787395+834320170+838039321+840755075
1518+842744179+845675981+849560718+852838956+854556875+855453311+857273043
1508+861356376+867011624+871446717+873918321+876308050+879872204+884424550
1498+888848935+891926091+893142460+893119802+893211676+894518381+896857883
1488+898739909+899298903+899162778+898842432+897971611+896518370+896069116
1478+898977078+905842364+914303287+921114562+925313255+927887441+929513486
1468+930603196+931484842+931680955+930562494+928835642+927087434+924004125
1458+918309300+912120320+908516766+906437622+904140832+902826082+904191591
1448+906926453+908277231+908438617+909133913+909594643+908324795+906667277
1438+906956920+908656677+908942474+907292411+905709789+905686953+907311223
1428+909551221+910982396+910782675+909604109+909157458+910333717+912225268
1418+913407975+913905916+914528624+915105661+915013610+914162134+912735633
1408+910826571+908999681+908556166+910278995+913082482+914826372+914366765
1398+912467997+910855263+910896438+913143652+916812399+919931973+921007188
1388+920475881+920270066+921892858+925213513+928848302+931561453+933429636
1378+935347453+937387789+938588185+938844816+939955764+943318067+947368685
1368+948803173+946780408+944680203+946463966+952283439+958021805+960113077
1358+959817932+960501101+963093272+965725316+967178971+968934811+972475301
1348+976721854+979955486+982403487+985152961+988308622+991544029+994849243
1338+998188179+1001864912+1006661762+1011797830+1014675562+1014564224
1330+1013665835+1013918208+1016080233+1020618677+1026843389+1032745922
1321+1036959819+1039683737+1041478503+1042712324+1044143854+1046344925
1312+1049277792+1053358937+1059136880+1065989506+1071762362+1073741823
1304+1071408828+1066963737+1063100653+1061487268+1062002780+1062591530
1295+1060872961+1057337973+1055004622+1055124834+1055614907+1053657098
1287+1048275402+1040766584+1033459853+1027829807+1023993936+1021849776
1278+1021373901+1021678570+1020452795+1015393161+1007072089+999122536+994635798
1268+993699429+994637691+995518805+994066924+988748292+980484841+971708659
1258+964489661+960025995+958433789+957761210+954827928+948566064+940941116
1248+934161966+928279784+921749811+913771744+905013783+896138391+886988916
1238+877315706+867323155+857257366+847391948+838578555+831985105+828017250
1228+825804407+824069391+822523566+821999949+823107347+825133307+826441313
1218+825798372+823323336+820387688+818665924+819168480+821729356+825217549
1208+828433552+830873388+832645970+834116604+835952959+838792238+842409161
1198+846080688+849884199+854353723+858706762+860939719+860431425+859204703
1188+859924018+863570166+868991499+873981562+877347001+880256146+884549198
1178+890086009+895315962+899774541+904077236+908714712+913989508+920387201
1168+928337997+937107138+944670442+949560054+952374781+954466466+955746253
1158+955324272+954161442+954351639+956382568+959215634+961552179+962486300
1148+962477959+963165978+965234532+967863914+970930541+975273050+980115452
1138+983103456+983737463+983966290+984801143+985178814+984541434+984204879
1128+985834355+990089545+996825155+1004455840+1008779773+1007437574+1003196108
1118+998987180+995946052+995410426+998276207+1003582772+1009062080+1012459938
1108+1013327801+1012579794+1010146229+1005662566+1000869975+999418923
1100+1003218470+1009199684+1011573144+1008573427+1004160400+1002030084
1091+1001632535+1001376732+1001668859+1001477657+998213144+992586056+987587059
1081+984784460+984304739+984989742+984751804+983347369+982756666+983590335
1071+983843890+982117334+979095728+976057971+974285745+974071766+974290832
1061+973009566+968980363+963269211+958162545+955155551+953674445+952038166
1051+950131116+949645716+951207218+953433846+955135673+956673039+958703790
1041+961246564+964394829+967970815+970391424+969389862+964460496+958250514
1031+954938496+956233546+959261719+959545150+956063582+951600744+949399200
1021+951407472+957547468+965127632+970524414+972835343+974300061+975625815
1011+973694864+966698837+957597753+949586793+942420329+934874536+927135294
1001+919466155+911741465+904540866+898676964+893893070+889280204+884878063
991+881772983+880453027+879736730+877877598+874484355+870330741+865753252
981+860687702+855700360+851712509+849121462+847546235+846393699+844899756
971+841742025+836536800+830808609+826001820+822132110+819039513+817556811
961+818540270+821176100+823216199+823466856+823277015+824597917+827351829
951+829806100+830979579+831624116+833340083+837368339+843572701+850518147
941+857132540+863349740+868752378+872678940+875916950+880298918+886826288
931+894832929+902805081+909724616+915234924+919508394+923372306+927229179
921+929459297+927744040+922407127+917111566+915462923+917550112+919943390
911+918973715+914413205+909029379+905044900+902998531+902888791+904346469
901+906418691+908534040+910894663+913606098+916218679+917856615+918247183
891+918736369+920622536+923456845+926525778+929962444+932977247+933925211
881+933589543+934853357+938368054+941391139+941098006+937891765+935131168
871+935744943+939475215+943621553+945934966+946238807+945633373+944981027
861+944323001+943758920+944400854+946962854+950281320+952934603+955305341
851+958883634+963899905+968276075+970017599+969913065+969900582+970594458
841+971657605+972073197+971006501+969435415+968000039+965132306+960449987
831+957603078+960630955+969202683+979180089+986626021+989091887+985728579
821+979041302+974292725+976068738+984200324+992786132+996184108+995881568
811+996894726+999696615+1000445095+997488564+993641453+992715969+996117968
801+1001531610+1004461165+1002806250+999631422+999256827+1001522973+1001984531
791+997501934+989484467+981462976+975247375+970673199+967901244+967464413
781+968639193+969039463+966221127+960509620+954505748+949223202+944127481
771+940562676+940906094+944661095+948537549+950421291+950864806+950836469
761+950902963+952032901+955057879+961210536+970446797+977977918+978360559
751+973765145+970708872+971778585+975374211+978493253+978310510+975827665
741+976850584+984766594+994999626+999867348+996733340+988135523+978406111
731+972804876+974067211+978056541+977721405+972815229+970467207+976199657
721+988567916+1001566514+1008994757+1006656911+995398831+983482665+981089860
711+990477332+1001268707+1000372330+988085770+975076819+968799810+969673471
701+974216647+977744477+976593538+972091773+968554241+966809109+963952852
691+958330497+952761503+950188559+948979230+945744474+940940880+937617563
681+936502947+937087912+941177220+949519589+956488522+954391393+943353740
671+929321456+915890051+907294541+909516731+919813477+929505500+933604274
661+930875859+924618195+921526308+921969942+920797410+916288664+913381827
651+918939166+933903204+951125460+959592122+955379822+946496208+940978860
641+937498535+932391514+928405793+930870180+940014095+949486460+952918156
631+949866497+942710563+932905310+922930566+916654030+913566521+907704927
621+895261832+879198146+863710255+855114744+860709236+881620590+909459288
611+930593020+936742482+932067145+926161004+923029953+921727390+914775376
601+893480968+868885723
##END=
