##TITLE=<SNM>
##JCAMP-DX=4.24
##DATA TYPE=INFRARED SPECTRUM
##DATE=29/4/2025
##SAMPLING PROCEDURE=Instrument type and / or accessory
##ORIGIN=Admin
##XUNITS=1/CM
##YUNITS=ABSORBANCE
##RESOLUTION=4
##FIRSTX=4497.3318
##LASTX=599.83466
##DELTAX=-1.4281778
##MAXY=2.207855
##MINY=0.64325279
##XFACTOR=1
##YFACTOR=2.0562252e-09
##NPOINTS=2730
##FIRSTY=0.6599654
##XYDATA=(X++(Y..Y))
4497+320959688+319459531+318161504+317586133+318369402+320053049+321442995
4487+322093270+322526284+323062261+323264419+322604752+321209588+319791031
4477+318824504+318335574+318381982+319128669+320571489+322374795+323825093
4467+324182769+323541539+323004663+323550902+324854697+325464824+324575491
4457+323325177+323198067+323669576+322883090+320381737+317599554+315848802
4447+315241979+315478429+316607663+318601910+320708077+321976740+322494658
4437+323249172+324464962+325287161+325114859+323945043+321622978+318327660
4427+315532549+314861867+316239146+318227045+319663226+320246569+320087573
4417+319453415+318789545+318480858+318845491+320160389+322014192+323058145
4407+322363519+320626941+319273403+318944918+319317551+319776799+319781466
4397+319059476+318071121+317956476+319399962+321679329+323284130+323451243
4387+322760154+322172869+321976856+321862008+321553872+321073927+320426957
4377+319335378+317644572+315947417+315182004+315547217+316533107+317902907
4367+319652762+321066507+321052680+319564785+317636919+316174330+315437731
4357+315470661+316364806+317917923+319396658+320040091+319711635+318857173
4347+317992566+317216544+316359009+315414338+314506481+313877281+313857511
4337+314382821+314810241+314795979+314941177+315888717+317191527+317696923
4327+316963744+315747491+314953525+314696175+314745077+315294765+316618243
4317+318426130+320234220+321807976+322823955+322791895+321634689+319849963
4307+317925923+316136241+314968802+315058344+316496989+318627390+320508789
4297+321193964+320023221+317558624+315673747+315721518+317068563+318173911
4287+318608316+319050055+319715838+319799583+318584836+316658159+315544405
4277+316107717+317734288+319010864+318735600+316645868+313965576+312831879
4267+314243421+316845534+318304238+317832120+316798632+316901189+318403868
4257+320236742+321366584+321608919+321274230+320637870+319792771+318733426
4247+317654051+316998268+316939047+317125030+317356234+318033670+319339871
4237+320524819+320679061+319839788+318723570+317749680+316992210+316763876
4227+317497634+318951382+320168390+320514992+320192652+319501650+318311833
4217+316649695+315309172+315354305+317022154+319411470+321356468+322292239
4207+322398391+322430567+323128874+324276370+324783707+324112040+322893873
4197+321817251+320834636+319800800+318859898+317997175+317164424+316811879
4187+317400498+318513556+319180325+319027648+318603069+318545211+318795836
4177+318912394+318993472+319607077+320927367+322617681+324263470+325213996
4167+324715326+323143020+322121156+322574751+323608123+323793062+322664554
4157+320626449+318308702+316430782+315715025+316368720+317712344+318695916
4147+318867608+318658783+318817141+319727114+320989429+321642747+321164426
4137+320009394+318913409+318221479+318044192+318371721+318986892+319751116
4127+320656277+321319393+321209675+320560038+320064731+319673227+318802184
4117+317654543+317152481+317694256+318976775+320689989+322486803+323614935
4107+323325843+321621963+319500896+318410100+319003212+320327733+320897307
4097+320522239+320038874+319590584+318599243+317051547+315618294+314888130
4087+315171163+316477712+318274091+319706098+320177637+319716244+319036315
4077+319162295+320428262+321830470+322013061+320882089+319581192+319058578
4067+319364656+320114212+320925483+321420037+321352525+320894321+320414464
4057+319949622+319300246+318708902+318884276+320039367+321387890+321890242
4047+321100944+319337089+317569697+316948468+317867108+319573771+320883509
4037+321148048+320681467+320513717+321402442+322822361+323380050+322468599
4027+320993864+320246453+320484526+320866175+320586939+319724998+319011850
4017+319135278+320108357+321006590+320635957+318832911+316813532+315978810
4007+316635665+317927489+318790821+318890798+318597359+318315514+318271656
3997+318704554+319608295+320363881+320282948+319493331+318722295+318430130
3987+318614925+319153511+319921794+320700482+321211965+321209530+320507136
3977+319198384+317870673+317159293+317096826+317249067+317341798+317437196
3967+317726432+318371257+319373062+320371852+320671814+319887965+318555153
3957+317587119+317214022+317089144+317346726+318605939+320724049+322403754
3947+322613594+321881546+321501637+321915606+322424596+322305081+321599498
3937+320795329+320500556+321309131+323134758+324716746+324748719+323534031
3927+322549937+322695164+323561685+324270804+324669526+325186487+325903433
3917+326295575+325807137+324478354+322893206+321758755+321652226+322915613
3907+325598282+329318353+333029872+335378519+335907858+335134967+333236610
3897+330119797+326659541+324521052+324641234+326219483+327456810+327864083
3887+328531258+329891985+330896630+330881064+330364422+329135964+326666498
3878+324485137+324827536+327838951+331667203+334715461+336316870+335930961
3868+334105943+332277910+330797030+329422621+328479341+328091171+327708595
3858+327559832+329601676+335845651+343445368+344477319+338328829+330747432
3848+325712783+324467947+326122636+328780752+331308889+333815924+336101088
3838+336853949+335685699+334152670+333477235+333357836+333102572+332769913
3828+332647412+332548101+332708228+334315927+337602056+340155789+340209329
3818+339317299+338525885+336612919+333187505+330068315+329222984+331364516
3808+335208972+338059420+339269122+340742610+342752887+342948407+340855024
3798+338665286+337297949+336103871+335048758+334823178+335385302+335996444
3788+336584395+337892452+340109119+342599660+345204816+348212956+350917047
3778+352156259+352496397+353900489+357745640+363913350+370526335+374922101
3768+376483421+376874462+377238196+377757389+379095361+381991609+385731913
3758+388727008+390940690+393975411+398968202+405074604+409728793+412028394
3748+414404115+418926354+424744881+428649659+429575633+430177470+433572736
3738+441710111+453807282+464625384+468207648+465128287+461170056+460451516
3728+463278339+467537488+470379269+470305148+468205329+465753255+463346547
3718+460295650+456998014+455714712+458329318+463320429+466092756+464562858
3708+461143126+458837816+459221609+462335060+466330279+468316206+467290603
3698+465103473+464273361+466028723+470203432+476246524+483127759+487667158
3688+486258080+480237569+474398287+472023290+473537593+477361467+482065776
3678+487405518+491696814+490909110+485967047+483265797+485243782+486906818
3668+483054044+476329051+471751012+470707204+471534736+472552832+473630642
3658+474904784+475701648+475981434+477660095+482834290+490860759+496461707
3648+494370323+486605175+478674771+473551449+471454383+471597407+473154814
3638+475271533+477017821+477921823+478801533+481844196+488466631+495262266
3628+495139359+488152176+481179341+478805823+481766452+487730931+492047098
3618+491960948+490141292+490232486+492446429+495212755+498193299+501167929
3608+502017782+499505443+496057912+494919519+496772394+499907672+502615734
3598+504709901+506531006+507581684+507219573+506302179+506726555+509497635
3588+513660981+517054480+518439788+518208295+517252580+515926637+513873981
3578+510843521+507608062+505381713+504688276+505610366+508081369+511168238
3568+513130860+513277130+513018736+513661561+514649162+514747893+513827369
3558+512806722+512224191+511720332+510869088+509930649+509857427+511432545
3548+514213945+516462789+516533866+514718442+512738776+511630993+511323205
3538+511341177+511068985+509973261+508274367+506994283+506831315+507433210
3528+508139981+508621288+508326950+506666551+504425070+503275604+503489821
3518+503897789+503964576+503989911+503591277+502001085+499612233+497942326
3508+498361252+501150421+505202339+508486960+509346147+507816887+505392728
3498+503313519+501395074+498958393+496548263+495160868+494678401+494564597
3488+494904561+495837898+497138737+498856763+500988729+502412706+501585812
3478+498276667+493942005+490582538+489129341+489003304+489361472+489970266
3468+490677327+491222870+491871840+493102356+494493925+494943810+494148396
3458+493048613+492664356+492898922+492622962+490980709+488400424+486075257
3448+484729980+484109272+483487058+482463657+481276304+480501528+480423030
3438+480648784+480579475+480146085+479596657+479042795+478885596+479845862
3428+481711666+482617928+480814360+477049649+473871209+472839808+473470458
3418+474595314+475842208+477582612+479883807+481952174+482826956+482379826
3408+481303900+480134287+478799532+477241952+475938214+475469024+475817655
3398+476470481+477018575+477426138+477691170+477387005+476043525+474175953
3388+473164699+473690182+474921452+475676110+475954650+476625564+477922257
3378+479183094+479977001+480524167+480939238+480895293+480266411+479659038
3368+479919606+481216387+482960067+484600493+486008760+486870816+486506676
3358+484994809+483702057+483890533+485413010+487330093+489085164+490371046
3348+490598017+489517773+487932683+486984563+487106658+488040632+489329934
3338+490486474+491209246+491733802+492301897+492312797+491072193+489162329
3328+488013500+488190671+488834423+488913849+488326854+487731162+487790471
3318+488417526+489077396+489696799+490365480+490518186+489616504+488132812
3308+486769708+485578702+484607334+484366884+485183372+486721067+488174148
3298+488735750+488188932+487136747+486478558+486717705+487652259+488660847
3288+489540847+490813394+492700069+494288579+494439255+493206363+491719424
3278+490946852+491078049+491789690+492648993+493339705+493908786+494767857
3268+495864102+496136584+494728318+492478721+491214174+491780414+493471018
3258+495001205+495519558+494980160+493976964+493185666+492866108+492751434
3248+492224095+490774377+488657020+486938299+486475254+487030827+487753193
3238+488218209+488604669+489111021+489454754+488962490+487371835+485482783
3228+484308097+483848444+483715363+483990917+484306590+483445809+481185747
3218+479141932+478720455+479630688+480924513+482127374+482845334+482494529
3208+481186095+479949231+479315595+478441103+476408767+473787696+472085236
3198+472099614+473302157+474531049+474879101+474103079+472544919+470855243
3188+469722965+469459151+469796245+470418141+471342173+472232579+472000825
3178+470042262+467423423+465853088+465688671+465704093+464903605+463748399
3168+463095197+462865327+462470953+461752529+460870761+459982065+459280598
3158+458777377+458133653+457172315+456174307+455306395+454304764+453029347
3148+451901099+451423445+451584818+452120360+452930471+453814297+454278936
3138+454077648+453541903+453074423+452647757+451887649+450438105+448466816
3128+446834853+446381548+447110958+448229380+448911598+448960036+448708542
3118+448433132+448063833+447434400+446581996+445743419+445121668+444552501
3108+443493996+441815306+440359501+439982867+440424809+440848924+440921943
3098+440711553+440221926+439544693+438894303+438318526+437774171+437321794
3088+436982612+436724827+436757786+437453368+438701044+439622148+439394017
3078+438200837+436789034+435509124+434485289+434044042+434212662+434422908
3068+434335018+434154137+433850175+433151027+432378918+432167223+432374628
3058+432278448+431783227+431507151+431689685+431780241+431235568+430251445
3048+429450929+429172273+429273062+429329095+428942026+428129683+427339428
3038+426904501+426731794+426622743+426505576+426247038+425729989+425191374
3028+424951735+424806189+424228470+423193272+422268805+421845589+421762743
3018+421701145+421470782+420986953+420381609+419963089+419784613+419559265
3008+419187212+418957109+419053956+419270116+419320670+419104250+418654452
2998+418166710+417995510+418345388+419030013+419627936+419765916+419294755
2988+418357215+417244185+416143968+415098392+414100791+413117509+412197535
2978+411576190+411370959+411274141+410916321+410416404+410252538+410693755
2968+411486938+412044395+411975955+411361509+410446377+409423295+408630750
2958+408454130+408821313+409161017+408992658+408340296+407544853+406906289
2948+406593167+406717320+407230977+407724894+407671702+406997802+406072843
2938+405217830+404558251+404133556+403899193+403808839+403899831+404100540
2928+404098308+403654626+402946957+402402631+402237171+402199516+401790359
2918+400777597+399508006+398722418+399003857+400199994+401404536+401777546
2908+401356823+400823194+400631007+400641066+400488041+400137207+399972037
2898+400208748+400389397+399890611+398872196+398171194+398231371+398548146
2888+398314044+397388476+396375713+395843418+395781153+395811937+395641955
2878+395229638+394690211+394149625+393695392+393461000+393617648+394154814
2868+394783261+395245407+395582125+395862114+395904204+395522846+394745809
2858+393669275+392484617+391638214+391525888+392100041+393014913+393886767
2848+394297664+393949177+392980360+391905507+391188648+390911152+390770070
2838+390454629+390055211+389925522+390168784+390510024+390662411+390582115
2828+390325374+389842473+389022274+387934029+386968313+386597883+386878307
2818+387287174+387261521+386839435+386544111+386695686+387095336+387366165
2808+387363498+387153774+386743400+386101357+385461779+385229503+385411196
2798+385444445+384807765+383647341+382671451+382476105+382988370+383569423
2788+383673198+383278244+382687336+382200232+382022133+382180172+382433059
2778+382449842+382145735+381741071+381424616+381057490+380372459+379387699
2768+378439927+377858845+377746722+378013348+378485669+378922480+378980368
2758+378408504+377394061+376509974+376190301+376378429+376678420+376655983
2748+376081453+375147624+374393284+374207736+374450853+374676085+374648286
2738+374481029+374347136+374280320+374215997+374021376+373557432+372887562
2728+372310278+372037158+371952515+371820883+371639364+371567881+371550170
2718+371331663+370914244+370613848+370552713+370486912+370205850+369752574
2708+369256251+368816164+368522203+368438487+368550553+368747029+368896488
2698+368936636+368797467+368358250+367699395+367236292+367323313+367817780
2688+368217661+368178122+367779111+367294673+366853775+366480678+366292868
2678+366352466+366427283+366178252+365553283+364899008+364696821+365123371
2668+365844752+366326725+366272635+365714337+364943707+364423847+364463762
2658+364894023+365193492+364931503+364075418+362983086+362160336+361947684
2648+362322955+362905109+363251567+363279888+363219710+363117529+362770695
2638+362190425+361669898+361371501+361253842+361337644+361650215+361988093
2628+362082534+361952641+361806631+361679348+361478929+361298627+361341383
2618+361582762+361808863+361902522+361845764+361623576+361355181+361285409
2608+361460493+361608502+361451101+361003738+360527620+360240876+360093070
2598+359892129+359647330+359566716+359688058+359810935+359802732+359657360
2588+359349948+358996882+358964242+359409546+359919261+359983468+359649939
2578+359390734+359499494+359842213+360079388+360026659+359855518+359902564
2568+360201685+360342129+359975729+359331947+358970706+359131702+359566223
2558+359861112+359729394+359203272+358697674+358635988+358955836+359253304
2548+359362558+359450738+359607588+359655766+359364703+358747880+358180074
2538+358128593+358625089+359137297+359158081+358790317+358540707+358684137
2528+359061205+359385313+359499263+359368906+359057581+358744836+358639351
2518+358811333+359106744+359236782+359055349+358762229+358674136+358825334
2508+358992708+359060132+359113353+359206055+359258174+359186517+358988446
2498+358709587+358445019+358370348+358637815+359177183+359693652+359921638
2488+359808094+359454767+359008593+358611233+358358869+358294488+358429714
2478+358747735+359200518+359686521+360036921+360148610+360126376+360122289
2468+360117042+360055995+360022717+360070662+360085504+359957756+359712436
2458+359449056+359302061+359379516+359613705+359756033+359611241+359255304
2448+358977286+358985171+359223041+359520945+359793920+359990686+360007557
2438+359787252+359420881+359091902+358950676+359044421+359340846+359779223
2428+360251602+360618177+360840800+361004028+361154067+361261987+361330020
2418+361365965+361307468+361120412+360913066+360850830+361005159+361327064
2408+361714567+362070736+362317013+362410613+362402729+362450529+362686631
2398+363069323+363454102+363853143+364509881+365678944+367542834+370445112
2388+374978685+381757101+391275262+403920963+419806846+438584833+459633984
2378+482337765+506016363+529813115+552890978+574532168+593950776+610578825
2368+624871474+637976682+649719424+657698035+659735676+656229707+648372785
2358+635739492+617899827+595997403+571464256+546783331+526458749+514634205
2348+513332496+522511244+539154424+556716389+569370437+576442438+580301996
2338+582996839+585331891+587284831+588585438+588894502+588100885+586467212
2328+584210832+581141703+576956617+571722012+565766548+559212611+551839663
2318+543511348+534626010+525977037+518176872+511147193+504141921+496400659
2308+487830357+478963891+470392806+462382918+454848278+447573627+440582501
2298+434233185+428807901+424149016+419871025+415777017+411900269+408346384
2288+405252151+402698216+400571931+398675980+396963694+395502671+394262763
2278+393112543+391983425+390924921+390045443+389442128+389113410+388893773
2268+388500501+387735378+386737515+385957580+385716550+385839514+385888213
2258+385686026+385411921+385212545+384967022+384540733+384080848+383839905
2248+383813787+383777872+383597947+383345669+383206964+383341669+383694968
2238+383971102+383958724+383782828+383680010+383660328+383529073+383144815
2228+382552748+381892211+381271910+380787443+380526093+380422840+380244712
2218+379868281+379461849+379263662+379246328+379108434+378644752+378069004
2208+377796638+377934096+378227942+378491901+378804849+379270097+379783522
2198+380104297+380130791+380072005+380262104+380833156+381639934+382415115
2188+382952165+383240358+383388745+383377265+383110407+382755891+382679452
2178+382985095+383437327+383845528+384243612+384698541+385164513+385558133
2168+385863690+386131765+386430452+386785605+387098032+387174703+386987763
2158+386819926+386941413+387252795+387468549+387495362+387425966+387359353
2148+387402341+387634676+387952349+388170015+388327446+388629581+389086133
2138+389493377+389735944+389847951+389897665+390075010+390701660+391871186
2128+393224347+394291548+394946199+395401852+395904552+396554885+397328269
2118+398115277+398776451+399312515+399936440+400787858+401663974+402243461
2108+402445387+402383035+402157716+401866045+401632175+401532545+401586606
2098+401783489+402042926+402236591+402300392+402274420+402240214+402233634
2088+402204850+402121134+402087741+402218039+402420893+402502290+402459359
2078+402510145+402835326+403398609+404003229+404446156+404646720+404736031
2068+405000164+405569766+406183314+406500407+406621604+406931189+407462644
2058+407866439+408008796+408162574+408548745+409053271+409482690+409854425
2048+410337645+411012501+411797045+412622722+413534029+414509542+415379019
2038+416074224+416745167+417509739+418338982+419250665+420343548+421601167
2028+422863105+423990107+424966084+425886608+426890036+428087158+429526702
2018+431121126+432596875+433743733+434748002+435994837+437556157+439173858
2008+440703378+442259683+443946171+445717476+447497795+449236431+450853871
1998+452271181+453542019+454881266+456459630+458171076+459689611+460778175
1988+461478772+462063999+462867472+464019315+465311545+466505682+467752459
1978+469443498+471648976+473984723+476068165+477919967+479938071+482521893
1968+485548758+488284532+490164192+491489264+492973072+494938882+497261585
1958+499680817+501899571+503744098+505401308+507210297+509254605+511408022
1948+513667880+516278429+519495857+523048902+525955296+527565663+528633501
1938+530403646+533074836+535913979+538419013+540703627+543027548+545469041
1928+547963988+550546128+553452812+556726708+559923150+562666925+565082735
1918+567236674+568825706+569848845+570872333+572372779+574259280+576030121
1908+577303944+578174842+578972227+579827878+580659874+581395459+582087968
1898+582976664+584334492+586099246+587972355+589911033+591869770+593214902
1888+593356302+592715797+592158774+592058478+592379890+593014599+593826188
1878+594708043+595492559+595833567+595722893+596022506+597650613+600019291
1868+600984166+599294953+596137818+593395667+591968211+591756893+592126135
1858+592298146+591824608+590875386+589994284+589605911+589642667+589667654
1848+589646551+590137656+590952144+590399123+587574995+584045372+581539990
1838+580175901+579086380+577857487+577276290+578352245+580484732+581432853
1828+580227846+578300879+576584418+574295282+570970252+567559304+565136594
1818+563924688+563619335+564023593+565067140+566270408+566636577+565584739
1808+563745894+562316061+562029086+562912332+564469826+565916703+566619590
1798+566605270+566593965+567521678+569746984+572111719+572542819+570896103
1788+569259937+569192976+570459668+572063310+573612107+575071391+576151926
1778+577007924+578762590+582584001+588252895+593254615+594730364+593260818
1768+591504123+590826223+591464584+593525879+596284553+598031624+598300511
1758+598288858+598651259+599428585+601369234+605159860+609648271+612382074
1748+612681630+612146290+612122926+612833466+614216571+616159597+618028531
1738+619618897+622419313+627793637+633373481+634523992+631750476+628650562
1728+626803427+626336207+627056139+628497277+630617010+634551414+641402820
1718+649611243+654254911+652752319+648288780+644473573+642641046+642933298
1708+645046248+647980875+650341146+652368120+656349077+663340957+670038266
1698+672555069+671585614+668573532+664380909+661099940+660402967+662151777
1688+665578959+670856813+677568790+681611258+679616576+674967691+671896069
1678+672042630+675410387+680218471+683651392+685069050+686054158+687161652
1668+687313198+686598890+686761451+688632879+690899694+691932921+692354862
1658+694029291+698318094+706092808+715893452+720802354+718865183+717085182
1648+718424980+719950761+717737631+713075933+709818270+709815023+713203362
1638+719258310+725792363+728621882+726356573+723394234+723565492+727228863
1628+732697512+738546707+744743694+750710521+754580920+756557919+759845440
1618+766684150+774956693+779940904+781203364+781614174+782206850+782459736
1608+782166848+781726297+781626928+782029737+782537944+782813151+783398349
1598+785038804+787474095+789728388+791407454+793136496+795599208+798401885
1588+800215279+800302241+799485724+799194748+800202003+802783100+807395925
1578+814177298+821158220+824437856+823864659+823386598+824934120+827074087
1568+827977566+828391796+829874618+832703674+837084135+844160310+853537448
1558+859845051+860324154+859045230+858301471+858150620+858165520+857297463
1548+855045489+852859142+852760121+855446269+860155042+864434106+864492196
1538+860969588+858622072+858795242+858778952+855888849+851940589+850548846
1528+852370879+855271881+857594700+860301138+863967466+866677847+867338702
1518+867590197+868568522+869913828+871919409+875703483+881394118+888089340
1508+894783229+898993709+897828647+893962480+892178478+894143999+898667194
1498+902874949+903895306+901427955+898774796+899814110+905131561+910579165
1488+911617668+909557649+908348642+909061326+910307263+910895940+911522126
1478+914202823+919963260+927451172+933974731+937469859+937521630+935268671
1468+932404019+930297156+929739496+930901717+933379561+936513680+939209219
1458+940210908+939619333+937982530+934287505+928853119+924505297+923283710
1448+923813368+923448300+921641805+918879652+915483661+913168958+914472928
1438+919252430+922850522+921042113+916459957+913267458+911626074+909900338
1428+908261100+908483549+910947537+914141196+917375785+921522724+925674823
1418+926308024+923031925+919864587+919262170+920189999+920531355+919833512
1408+919435167+920205189+921204849+921155976+920509441+920554429+921407297
1398+922406493+922924498+921696301+917778595+913210932+911762199+914917421
1388+920141880+922872146+922155288+921858805+924650582+929232216+933614997
1378+937852782+942708580+947523968+950020016+948482582+944460173+941574244
1368+941932355+945012557+949311738+953679793+956826202+957982742+958647597
1358+961141500+965619070+970029562+972859835+974726277+976761889+978762252
1348+980091267+980886797+981697169+983342379+986540734+991162023+996170931
1338+1000282738+1002732986+1003692005+1004260738+1005783505+1009088417
1330+1014337574+1020845016+1026678326+1029351197+1028277504+1025844300
1321+1024635757+1025175503+1027521976+1033042107+1042578037+1053620502
1312+1061659174+1065423248+1068089974+1071685688+1073741823+1070993700
1304+1064489505+1059253567+1059139009+1062921170+1065844609+1064748885
1295+1060493069+1054895252+1048175738+1041718734+1038635054+1039816696
1287+1042855505+1044912104+1044984456+1043139697+1039166915+1032816005
1278+1025036016+1018121822+1014032394+1013249502+1014882537+1016761733
1270+1016891713+1015576844+1014067759+1012407592+1009945865+1007378276
1261+1006083466+1004480926+999206841+990824493+984033670+981726041+981615773
1251+979188135+973061356+966060722+961155530+958492863+956359099+953004560
1241+946983991+937619840+925964871+914157313+903635057+894678353+887518984
1231+882774209+880396197+878835051+876001880+871143358+865293872+859966276
1221+855858006+852731424+850115484+847815333+845729573+843679293+842061796
1211+841887581+843507224+846195980+848984337+851198222+852383981+852800820
1201+853702386+856005204+859231735+862446323+865277929+867405373+868233312
1191+868004891+868328970+870760086+875369027+881039602+886589880+891384629
1181+895730480+900541636+905369374+908219358+909243077+911770316+917632904
1171+924731399+930743736+935862217+940632849+944895680+949422760+955636037
1161+963166329+969717252+973943617+976517235+978565949+980402012+981671081
1151+981737868+980057177+977439730+976410909+978550760+981845701+983776030
1141+985759001+989783845+994152480+995812531+994540332+992495444+991122368
1131+990552359+990649525+991137094+991883809+993958032+998491664+1003577911
1121+1006271073+1007780389+1010672869+1012175113+1007652149+999558168+994720401
1111+995953410+1002031490+1010891202+1019692708+1027103282+1033720528
1103+1038006143+1036840037+1030873848+1024992650+1023225926+1024766085
1094+1025650896+1024206976+1022136231+1020719558+1019116090+1016713266
1085+1014914191+1015584148+1019311466+1024856873+1029658928+1031971891
1077+1032009691+1030202384+1026291402+1021272870+1017976074+1017242576
1068+1015314334+1007997795+996735142+986799533+981002283+978725032+979342464
1058+982640883+986362403+987115264+984277165+980768644+978883303+978740801
1048+980216492+982522499+983520825+982435768+980988021+981120320+983915402
1038+988769634+992590522+992210555+987960885+982847042+980048365+981420745
1028+986279035+991291191+992005672+985922026+975207584+966007733+963394576
1018+967231234+973451874+978675058+982555544+985255200+985996350+985798540
1008+987020997+987890619+982418376+969199073+954844623+945069894+938202371
998+929972323+920919438+915092621+914100092+915335420+915399018+913322476
988+909791751+905312964+900142770+894759344+889936186+886396070+883800885
978+880835647+877163753+874307740+873621260+874492099+875603361+876739725
968+877849537+877367883+873270918+865658708+857097450+850351789+846257723
958+843988821+842966261+843773270+846941305+851526997+855597699+857998089
948+859030214+859654545+860877756+863571962+867899377+872790828+877138128
938+881232832+885597756+889769277+893736726+898843380+905627420+912283567
928+916864332+919989232+923231648+925814311+925869735+924713195+926656569
918+933779935+943112780+949517722+950238465+946602053+941691875+937298137
908+933259959+929584587+927442823+926870032+926485717+926163609+926758257
898+927405662+926798607+926268543+927610139+929957018+932070084+934943200
888+939208002+942284726+941055833+936737579+934370119+937156563+943615132
878+950224552+954849667+957083089+957959494+958989011+959798977+959460694
868+959966409+964125059+970436314+974413908+974571020+972208488+968002125
858+963137342+960076793+960808609+964852990+969895003+974455418+978732221
848+982917887+986181174+987258230+985779060+982654681+979047140+976231767
838+975514966+977172582+979819713+982033307+983986247+986086327+987624979
828+987952653+987361889+986561257+986644509+988562780+991011520+991329338
818+989986757+991648895+999642464+1010965526+1019612471+1023163777+1023901564
808+1024258921+1023937509+1020961197+1013360466+1001998097+992195714+990709819
798+999125792+1010176605+1015041156+1014088282+1011662384+1007669426+1001707643
788+997709583+999508890+1004402776+1005211641+1000479156+995163329+990585521
778+983316522+973114808+964242748+959571948+958011904+957605674+958755663
768+962540665+967439537+970538639+971284949+972266811+975488298+980093354
758+983903343+985618934+984786763+981576929+977865033+976545295+979228601
748+984723455+989307872+989064378+984927642+981165540+979106738+978643983
738+980991152+986533197+993694479+1000998959+1007398219+1010474016+1008537773
728+1003739544+997216565+988249947+980357719+978814313+982229842+983824961
718+982046641+981688009+984645769+989126411+996103101+1007937849+1020713413
708+1027102818+1025654259+1019792077+1012064961+1002253070+990617755+980856070
698+977188699+978491625+978100295+972433604+966324855+966728534+974296219
688+980661739+976859286+967853651+961439259+956945051+952337270+949664921
678+952344169+961139529+972780642+979589553+975335592+962206788+948118558
668+939450974+937456641+939484658+942258753+946607097+952582272+956000061
658+956096589+957701043+961257276+961976454+958166406+951994639+946723046
648+942661214+937877480+932846135+929693174+927138050+922286485+919947954
638+926945457+937723441+937746167+924947703+911091083+905058049+905891437
628+908408182+909556721+906909939+899207984+888996994+879391030+871078310
618+867908015+876268738+895127194+912894796+918466408+915106651+913735836
608+917393816+920209247+917480430+910726305+900897776+888210160+878875344
##END=
