##TITLE=<SNM>
##JCAMP-DX=4.24
##DATA TYPE=INFRARED SPECTRUM
##DATE=29/4/2025
##SAMPLING PROCEDURE=Instrument type and / or accessory
##ORIGIN=Admin
##XUNITS=1/CM
##YUNITS=ABSORBANCE
##RESOLUTION=4
##FIRSTX=4497.3318
##LASTX=599.83466
##DELTAX=-1.4281778
##MAXY=2.0959208
##MINY=0.38331696
##XFACTOR=1
##YFACTOR=1.9519784e-09
##NPOINTS=2730
##FIRSTY=0.38931865
##XYDATA=(X++(Y..Y))
4497+199448238+199662689+200941852+202480139+203453168+203715713+203594197
4487+203054649+201783991+200274773+199774281+200778579+202406701+203492513
4477+203680826+203364799+203079734+203103827+203347393+203416388+202853588
4467+201554745+200067758+199213023+199247834+199763747+200475514+201448421
4457+202477941+202986494+202683200+201821183+200806778+199953509+199567709
4447+200007313+201422924+203206762+204084551+203373852+201889186+200996007
4437+201060879+201405076+201454207+201369548+201550806+201915110+201970929
4427+201512698+200830611+200265888+200000687+200025085+199871995+198871530
4417+197302035+196634224+197840865+200081621+201662643+201831428+201183510
4407+200641642+200470308+200303859+199962288+199824527+200132066+200479697
4397+200443391+200182831+200048124+200119073+200366334+200798121+201329775
4387+201798404+202048138+201824603+200850704+199196595+197437567+196373573
4377+196453515+197316372+198122204+198535960+199055231+200076430+201070345
4367+201111141+199983862+198425070+197378954+197200932+197540197+197838727
4357+197808650+197572732+197605100+198403573+199902988+201317668+201858009
4347+201487644+200751769+200101576+199632276+199290538+199103508+199200061
4337+199624215+200137486+200323798+200045498+199693240+199726615+200102034
4327+200386396+200344104+200134112+199964533+199961326+200290240+200961822
4317+201586716+201760310+201597144+201466025+201447322+201520958+201937462
4307+202840168+203743866+203895842+203127477+202118309+201702293+201934989
4297+202060658+201557692+200934569+201115111+202209839+203314278+203572104
4287+203120942+202789250+203026542+203410480+203309743+202847848+202834855
4277+203680520+204822106+205492940+205630304+205653038+205736476+205692413
4267+205326369+204708636+204208357+204250176+204907574+205755271+206222311
4257+206130659+205768462+205345866+204628785+203472910+202488765+202543714
4247+203688948+205109857+206081313+206516811+206671779+206701001+206583516
4237+206282023+205830831+205317361+204916277+204911620+205467641+206277245
4227+206677718+206362545+205729178+205285879+205124911+205185493+205513506
4217+206019296+206510673+207113368+208038242+208918963+209104267+208566842
4207+207920833+207703726+208061480+208836731+209620806+209987522+209912542
4197+209791576+209952559+210320008+210586965+210562750+210331749+210154475
4187+210241058+210632493+211272945+212010469+212462058+212223912+211404202
4177+210585850+210140520+210044593+210362330+211271036+212551680+213591918
4167+213965321+213736076+213235462+212717579+212281502+212111190+212523557
4157+213476158+214335289+214567069+214312663+213885898+213229492+212366039
4147+211869502+212246233+213094113+213458386+213033714+212485662+212453936
4137+212862990+213419728+214105571+214871065+215466447+215791528+215937854
4127+215941839+215885928+215990802+216311135+216587542+216523845+216074500
4117+215514891+215284638+215591169+216156900+216499219+216429155+216230369
4107+216359488+216929830+217649445+218334112+219021008+219542738+219690438
4097+219730104+219991839+220141860+219645597+218697699+218003581+217928799
4087+218331349+218936303+219549486+220081247+220569510+221109851+221665261
4077+221985930+221776258+220953936+219790320+218813520+218466331+218796206
4067+219520875+220275972+220718050+220681025+220398755+220265849+220383075
4057+220692324+221255902+221919316+222181174+221865253+221379800+221089529
4047+221019634+221170342+221496171+221675032+221452688+221098553+221133378
4037+221701293+222477597+223188113+223916384+224700414+225147881+224855656
4027+224035137+223378440+223393449+223985227+224586562+224691910+224329179
4017+223979119+224045107+224502773+224983768+225124094+224960302+224957538
4007+225430090+226053763+226245633+225865954+225270191+224864863+224832449
3997+225104017+225421357+225545118+225508032+225544476+225727201+225839022
3987+225693169+225463405+225516063+225920460+226341163+226560408+226900192
3977+227734620+228730215+229174293+229012897+228855991+228958392+228911230
3967+228466358+228109031+228505535+229632554+230646852+230741772+230130589
3957+229783476+230163643+230797744+231284113+231985285+233206888+234317831
3947+234447454+233754649+233128244+232913854+232709022+232246394+231754711
3937+231591483+232135809+233714831+236011773+237728708+237639300+236147213
3927+234937320+235020224+235664065+235640400+235287257+236048736+238140677
3917+239909874+239749838+237846071+235531220+233857813+233178261+233602460
3907+235556641+239572533+245269191+250753154+253742259+253268959+249829012
3897+244827709+240268514+238135960+239349028+242397083+243977631+243320217
3887+243096880+244884993+246949300+247709696+248217119+248615455+247097581
3878+244263871+243302857+245573569+249510451+253168329+255310471+254779276
3868+252339733+250715488+250999759+251323603+249630822+246498841+244015296
3858+244059924+248373751+257893592+268087870+269310970+261679933+252816545
3848+247176469+245737453+247660228+251267601+255151839+259034551+262873658
3838+265213868+264491734+261679139+258746113+256261988+253965367+252184979
3828+251424767+251632760+253270058+257759449+264566943+268940116+268057335
3818+265485909+263880505+261473483+256967969+252481708+250763903+252979330
3808+257621551+261072521+262402251+264619342+268764598+271151742+269406424
3798+265934720+262521980+258763945+254993543+252758955+252670204+253926358
3788+255684898+257677950+259615886+261352868+263477009+266162240+267879435
3778+267236846+265440991+264872176+266799882+271055310+276276057+280635214
3768+283469245+285180302+285877580+286189684+288013142+292421064+297712440
3758+301319568+303562707+307287183+314907196+326044594+335752808+339163716
3748+339209733+341406366+346110910+348417867+346708154+345512444+348567827
3738+356346075+366459495+374860698+378330326+376573496+372595208+370620935
3728+373200514+379762258+387190660+392627965+395386451+396178206+396587321
3718+398583121+403286994+410880899+421029038+431668036+438883575+441282658
3708+441475490+442300040+445325254+450821645+456969725+460889231+461849573
3698+461574998+462126438+465012990+470999751+479681911+488641547+493174634
3688+490371964+483665329+478092965+475603375+476040521+478891805+484309933
3678+492795353+502269268+506970392+505943300+505320620+507779278+508718825
3668+504405349+498064651+493901838+493280593+495806337+500696537+507015157
3658+513299334+517413016+518738318+520163227+525448434+535648148+545666664
3648+547734956+542643221+536479202+532558993+530746650+529794797+529583064
3638+531021408+534622277+540205694+547594614+556845956+566865449+573023545
3628+570650264+563098162+557039185+555428132+558417497+564876611+571608590
3618+575013421+575845025+577338028+579486201+579684315+577790076+576181954
3608+575759343+575732410+576150808+577823848+580607709+583322621+585070290
3598+585799356+585725032+585284161+585796485+588767407+594412383+601272490
3588+606632570+608155681+605902894+602046626+599281025+599319012+601627801
3578+603810540+604045114+602496964+600513194+599818511+602077284+607761285
3568+614688386+618506546+616981908+612486837+607911703+604221120+602440168
3558+604161088+609348398+615385573+618948394+618725913+616957418+617448429
3548+620915308+623861435+623471008+621343050+620379471+621111041+622227114
3538+622809731+623465145+625151438+627004455+626929154+625086947+624546957
3528+627017890+630245127+630998865+628453181+624679909+622835809+624350431
3518+627775537+630456921+631343061+631350390+631262875+630911534+630106373
3508+629140047+628816615+629695121+630996972+631383979+630956176+631163696
3498+632917411+635419673+636661613+635701516+634434842+635364282+637925905
3488+639706797+640632634+642131988+643366233+642532370+640675200+640363494
3478+641783211+642800960+642312025+641432236+641175616+641115644+640974692
3468+641901323+644874870+648730405+651084387+651056111+649865227+648340650
3458+645641983+641240351+636972587+635715623+638073025+641937965+644844335
3448+645561369+644280039+642074276+639901980+638381923+637963586+638319569
3438+638203351+637152502+636683538+638352792+641615449+643998990+642736530
3428+637373335+631062745+628067701+630011164+634977519+639447978+640804365
3418+639027626+636209321+634407543+634172909+634964755+636404199+638242986
3408+639923966+641429366+643739927+646641594+647250838+643669451+638772777
3398+636600359+637075125+637156289+635398909+633242919+632378765+633060683
3388+634387695+635287516+635955999+637540425+639903995+641226855+640739447
3378+640035176+640701400+642701781+645597401+648945925+651325984+651629141
3368+650595453+649154971+647059747+644437296+642741477+642778241+643243725
3358+642723766+642265489+644360958+649309603+654239987+656427856+656225467
3348+655783252+656262598+657010230+656257835+653186390+650105053+650597407
3338+654822666+658791793+659643489+659142646+659846612+661073650+660768906
3328+658949051+656608199+653448080+649254700+645801989+645083611+647044723
3318+650191041+653333572+655863499+656911539+656218322+655047041+654783336
3308+655393436+655856537+655644560+655081180+654715914+655250224+657440841
3298+660752417+662615938+661034382+657372136+654505036+653548053+653905624
3288+655215719+658012588+662519934+667066121+668833272+667389736+664955385
3278+662453794+659324515+656620963+655968175+656558487+656651621+656514699
3268+657216100+658666231+660478330+662684948+664985615+666627753+666888649
3258+665463068+663182371+661747202+662013045+663005571+662789868+660587464
3248+658162884+658165815+660778006+663354836+664113399+664389256+666163736
3238+669394209+672392124+673521632+672200666+668825027+664278901+659978036
3228+657750349+658524730+660803594+661408014+659172693+656588351+655733174
3218+655543670+655009177+655531517+658499446+662354798+663887741+661869283
3208+657890568+654305822+652568108+653153656+655861606+659520248+662068436
3198+662018602+659749448+656826467+654478714+652933984+651821087+651003896
3188+650708068+650751672+650292052+648610584+645827700+642850000+640741829
3178+640063696+640673429+641711819+641625709+639414939+636374824+635009093
3168+635847231+637064743+637385488+637062850+636240529+634953091+633876775
3158+633438163+633190215+632579993+631419766+629890304+628768002+628891121
3148+629858364+629831248+627264373+623088826+620272903+620482620+622235908
3138+623102933+622707865+622247267+622097277+621499025+620031306+618025184
3128+615902783+614055813+612885875+612338618+611630316+610075632+608273487
3118+607674991+608735489+610213225+610742222+610422088+609921794+609007317
3108+607272595+605444556+604630052+604813387+604954217+604149545+602487498
3098+601172883+601389807+602892337+604381676+605156606+605552407+605854709
3088+605731590+604793417+603217907+601532347+600176021+599503873+599635848
3078+599923431+599256414+597457201+595501218+594146725+593597757+594174023
3068+595662812+596693447+596256117+594875851+593389810+591962214+591031981
3058+591527755+593038713+593235973+590616332+586643968+583818640+583029908
3048+583540583+584155324+583942675+582878574+581909560+581861436+582726446
3038+583976447+584746247+584107933+582090452+579798518+578092133+577004031
3028+576342510+576048941+576172549+576795290+577597947+577706653+576497813
3018+574225605+571706182+569824279+569138696+569511778+570142337+570036928
3008+568635715+566346957+564255824+563025488+562601410+562929179+563952484
2998+564878199+564553484+562777051+560470338+558595641+557397672+556644361
2988+556318852+556689553+557564274+558039589+557274553+555397596+553474653
2978+552495990+552457088+552524816+551955268+550604682+548916557+547677305
2968+547320894+547470885+547508749+547406271+547642799+548534192+549800194
2958+550580193+549976567+547803294+544875611+542602365+541920018+542304582
2948+542331270+541550172+540930790+541111255+541368303+540804068+539663139
2938+538838925+538610519+538581694+538516897+538418023+538007260+536881904
2928+535292226+534115082+533758977+533624865+532971405+531942115+531098358
2918+530289777+529029516+527721864+527208317+527338154+527245815+526595714
2908+525547797+524203135+522846198+522091422+522316957+523153202+523656611
2898+523150576+521864970+520463635+519274827+518382396+517882713+517606916
2888+517111020+516150190+514904219+513748206+512863348+512007102+510904434
2878+509948673+509980979+511214919+512711159+513094318+511970765+510446615
2868+509653456+509145833+507755216+505616998+504030770+503675734+504081825
2858+504481413+504426235+503887222+503083314+502054909+500588625+498791366
2848+497342029+496841063+497181198+497786717+498160350+497954785+496926715
2838+495311509+493932465+493376169+493293051+492984673+492357779+491758001
2828+491237340+490595819+489906908+489499259+489504297+489680884+489613553
2818+489036096+488056182+487037975+486235868+485610471+484928949+484012456
2808+483061520+482608586+482803250+482984204+482429374+481254245+480080277
2798+479200458+478547395+478081270+477751181+477320753+476638040+475917921
2788+475316006+474386657+472644668+470603430+469432363+469517038+470055196
2778+470153123+469718359+469194309+468859578+468581461+468136498+467553666
2768+467014287+466529811+465947468+465204509+464323834+463252099+461914614
2758+460432970+459228222+458767747+459058048+459518462+459548601+459049650
2748+458181740+456930212+455296043+453631247+452332694+451437210+450844424
2738+450559101+450428164+450131787+449693785+449480403+449534482+449400645
2728+448697076+447540605+446404287+445687069+445357072+445055198+444586386
2718+444075772+443611998+443086910+442475314+441994624+441841153+441844206
2708+441531645+440613473+439253055+437791809+436487821+435609864+435398253
2698+435729166+436048232+435790054+434827972+433538916+432459058+431835981
2688+431519419+431276204+431070883+430944924+430808858+430529916+430106389
2678+429613515+429046563+428348399+427608707+427096718+426928070+426811303
2668+426389943+425740117+425196432+424841304+424518788+424095353+423426381
2658+422394097+421170418+420116240+419392793+418975464+418921691+419274346
2648+419771464+419945761+419568739+418887339+418351533+418165632+418201145
2638+418195191+417874415+417118784+416165954+415415880+414963954+414588581
2628+414168657+413845133+413794536+413951122+414006513+413783055+413479287
2618+413338213+413285295+413142694+412920579+412651684+412235210+411633966
2608+410995377+410493617+410199835+410080350+410011675+409806629+409308687
2598+408578644+407972362+407828662+408072091+408328436+408396011+408347948
2588+408257166+408147055+408120764+408212035+408178293+407731345+406946674
2578+406212936+405798386+405644487+405587478+405623052+405848709+406224784
2568+406522047+406525803+406218463+405738262+405241419+404886535+404878596
2558+405301391+405824067+405863977+405266550+404529789+404104307+403828602
2548+403402357+403041061+403148760+403593112+403839778+403687284+403382814
2538+403088849+402735859+402400670+402354440+402633626+402929545+402977425
2528+402756134+402331904+401864406+401700094+402086796+402803647+403313041
2518+403279299+402826335+402381005+402355417+402860260+403618212+404202112
2508+404384501+404245900+403998044+403764539+403540408+403356401+403384738
2498+403747927+404289200+404703047+404838625+404707047+404335644+403869306
2488+403654305+403912300+404405112+404611655+404224556+403440404+402809449
2478+402746546+403144912+403599586+403929766+404204891+404409051+404466794
2468+404482367+404610952+404807418+404952156+405112070+405460175+405943033
2458+406209394+406007219+405511444+405068893+404803418+404675626+404689581
2448+404817464+404928125+404965286+405013716+405092131+405074176+404895604
2438+404684787+404606799+404676207+404776699+404807937+404792639+404847969
2428+405037991+405267343+405376264+405320170+405187432+405107551+405213815
2418+405574378+406080382+406491145+406635578+406540979+406388577+406349919
2408+406426166+406483450+406426105+406217486+405851579+405516910+405586226
2398+406165576+406897512+407496741+408154903+409063182+409879121+410067311
2388+409555078+408708176+407795439+406718574+405179462+403027564+400486277
2378+397989145+395756938+393660493+391527527+389343414+387044456+384493734
2368+381958035+380193999+379616634+379716332+379777037+379835146+380429611
2358+381882979+384348049+388081442+393077173+398448032+402594998+404247000
2348+403212487+400422825+397471660+395498577+394482295+394061699+394134312
2338+394452584+394666790+394734365+394806612+395055538+395757702+397081446
2328+398714607+400012824+400562860+400567960+400670406+401283162+402200815
2318+403033763+403738217+404490703+405344140+406205944+406984538+407688443
2308+408442547+409331008+410237791+410987224+411588071+412211484+412988765
2298+413893532+414789016+415600192+416381321+417095607+417480202+417426490
2288+417317295+417600298+418163831+418484851+418295164+417806840+417369694
2278+417157686+417142540+417190298+417190756+417128158+416968549+416581847
2268+415968267+415438171+415309219+415531731+415855835+416213101+416683989
2258+417233109+417702806+418002115+418179465+418380419+418772953+419391419
2248+420031260+420399549+420389594+420143203+419816443+419369311+418691454
2238+417859147+417078721+416416772+415819070+415355999+415209918+415431697
2228+415847407+416162564+416165251+415927410+415727525+415710181+415769023
2218+415784413+415784321+415878126+416200856+416880179+417907821+419048139
2208+419989762+420656719+421277689+422033595+422774631+423255229+423487513
2198+423680497+423994921+424476069+425073344+425697367+426308047+426864526
2188+427272419+427554109+427868075+428179202+428235540+428029578+427912718
2178+428163170+428759407+429524718+430212072+430590560+430680487+430763666
2168+431064227+431572337+432160696+432687708+433044576+433264585+433518274
2158+433904822+434375649+434939213+435756831+436892599+438111210+439103431
2148+439835947+440516248+441282384+442121102+443062207+444237488+445676107
2138+447190699+448584705+449892816+451324259+453050828+455087913+457264178
2128+459348349+461392701+463806746+466789546+469851066+472256959+473829934
2118+475013673+476308470+477877995+479584442+481271528+482976234+484840243
2108+486978858+489624088+493245904+498266919+504582821+511375231+517533570
2098+522478062+526418730+529590087+531589857+531795850+530037065+526516077
2088+521464833+515207009+508276701+501255001+494538411+488275976+482520095
2078+477417337+473185849+469900167+467375583+465303108+463516476+462099598
2068+461178158+460637558+460136592+459413053+458502882+457652132+457091378
2058+456901417+457001084+457233276+457540341+458030742+458766220+459564632
2048+460204259+460773960+461632618+463061039+465121055+467840670+471377292
2038+475912181+481496270+488161407+496030559+504994531+514362763+523191250
2028+530926320+537476125+542816541+546874465+549733199+551607957+552492876
2018+552104953+550424340+547947299+545065969+541683551+537760777+533677875
2008+529730733+525708352+521257192+516497500+512116633+508772842+506441365
1998+504596471+503047527+502163646+502192960+502765867+503215380+503229152
1988+503042244+503035954+503310621+503711033+504140362+504680718+505459770
1978+506539139+507912230+509528596+511304022+513163451+515109601+517149067
1968+519106698+520759463+522241473+523929293+525865061+527725100+529408217
1958+531270639+533601719+536096287+538147173+539731783+541644893+544549003
1948+548185965+551907693+555483829+558760044+561089475+562078704+562535698
1938+563739896+566064503+568848425+571365650+573431682+575107532+576444743
1928+577801618+579891590+583049572+586655816+589740207+592135900+594310700
1918+596108020+596762213+596384366+596203596+597053949+598431650+599236260
1908+599242062+599322737+600123683+601219053+601919049+602366455+603307376
1898+605042281+606929009+607952681+607999095+608189209+609311145+610496961
1888+610371093+609005912+607511993+606543834+606119085+606085374+606269137
1878+606489908+606504810+606074381+605547644+606052823+608238921+610688296
1868+610588262+607168407+602726163+599457765+597524440+595987344+594275218
1858+592460310+590780429+589414698+588486602+587961697+587576522+587179133
1848+587304573+588751101+590795941+590697984+587200569+582712338+579750700
1838+578444330+577575839+576604627+576462820+578174335+580747256+581361509
1828+579009603+575712196+572819873+569633676+565932651+563021274+561822694
1818+561809686+562064963+562521407+563629602+565130117+565829685+564976401
1808+563332858+562306560+562793601+565009196+568337016+571179994+572174658
1798+571885609+572259791+574725838+579036047+582700307+582802968+580152913
1788+578305943+579036413+581360715+583854061+586415135+589105129+591215621
1778+592753817+595207711+599977601+606622494+612173665+613486081+611180223
1768+608037814+605758522+605235449+607024341+610209866+612529221+613340427
1758+614104120+615372443+616651331+618738982+623251763+629697259+634750701
1748+636169625+635422177+635024116+636268682+639243268+642930430+645602715
1738+647262502+650504457+656711898+662181295+662124804+658670262+655662148
1728+653721250+652730434+653195124+655197337+658539814+663966401+672554512
1718+683021655+690190476+690442821+686662220+683181050+682108582+684085146
1708+689084846+695908493+702141034+706989156+712744671+721004159+728908946
1698+732851935+733238637+730845019+726799248+724239396+725035456+728422394
1688+733564511+741721217+753205498+761759592+760970371+755501524+752086921
1678+753180825+758264437+764464794+768943619+772518350+777116691+781083254
1668+781245153+779284712+779648818+783443526+787267731+787730589+786609264
1658+788080342+794581290+806662602+820908209+826978178+823709597+821488261
1648+823198799+823756377+818869964+812126808+807883717+806617776+808136978
1638+813065653+820023717+822877749+818221634+811845332+809022019+809644638
1628+810811827+810557772+809389361+807830951+805220166+802185730+800921011
1618+801908040+802018335+798041085+791952366+787304313+784883092+783329323
1608+781156844+778415122+776377060+775683843+775526158+774866530+773882554
1598+773590024+774387855+775489271+775761770+774919540+773681814+772854546
1588+772526106+772231682+771605643+770590827+769461562+769195598+771355558
1578+776525402+781904659+782501872+778976670+776798328+777828596+778761395
1568+776009291+771124038+767781682+767876281+772508578+783009555+796979182
1558+803064909+797208138+788996407+783091452+779014901+775969778+773875653
1548+773752045+777524218+785960201+797437459+809666685+819616923+820255848
1538+810805781+801899307+799691773+801657588+801679024+798908232+798437925
1528+803261557+811621629+820308552+828674426+836953395+843027151+845673725
1518+847089228+848402011+848747184+848737352+850821522+856981816+867951635
1508+882280299+892440377+890272967+882132751+877170793+877551692+882015250
1498+887750856+891562787+892879661+894656522+899686208+907517466+914186237
1488+916029116+914079118+911651607+910767543+912023224+915259743+920365219
1478+927697038+936850849+945861693+952367161+954359297+951223178+946080389
1468+943666191+946011439+950731007+953194551+952375283+951744786+954572923
1458+960891269+966053968+965639357+961939431+958732714+957333516+956975762
1448+956148189+954959564+955379488+958114553+961524942+964605913+968775719
1438+975186099+981663779+984768629+984957522+984866037+985682435+987526352
1428+989833859+991112502+990503136+989736817+992176543+999333637+1008226309
1418+1012772008+1010773398+1006069464+1002939514+1002814380+1003764828
1410+1002605822+999342065+997230169+997761670+998808976+999416144+1002041037
1400+1008104778+1015253873+1019568234+1019294392+1015965411+1012411567
1391+1010212644+1009328946+1008715671+1006607561+1002027113+996921638+994998939
1381+998128829+1004948079+1012933296+1020564485+1027096885+1031779321
1372+1033987038+1033521555+1030930679+1028234760+1028209477+1031849553
1364+1037362433+1041745011+1043345194+1042957759+1042477497+1043419212
1355+1046015707+1049025286+1050773749+1050490502+1049407102+1049843638
1347+1052018621+1053485058+1053011269+1052626521+1054670690+1058597312
1338+1061087910+1059788563+1056982961+1057376380+1062350125+1068540283
1330+1072417437+1073741823+1073511219+1071843370+1069413598+1067398744
1321+1065532414+1062762843+1059207778+1056883415+1057531134+1060207632
1312+1062594532+1064095413+1065881373+1068563490+1070972986+1071122243
1304+1068512312+1064910100+1062970363+1063047312+1062497551+1059655672
1295+1056054437+1053094081+1050111006+1046785446+1043681817+1040427221
1287+1035966106+1030089975+1023995333+1019735141+1018315179+1017647245
1278+1013920998+1006084366+997171907+990389361+985752605+980888605+974077660
1268+966051647+958923500+954205887+951645057+949123801+944459198+937873911
1258+931113961+924519085+917317042+909992674+903861267+898748219+893272348
1248+887217096+881619877+876400992+869766421+860609373+850180521+840600983
1238+832730884+826305054+821342546+818267620+816911539+816296004+815394535
1228+813716303+811395177+809135794+807771163+807509657+807801942+807999385
1218+808048669+808655166+810694449+814193024+818016069+821033649+823428060
1208+826176255+829603865+833279180+837020879+841106651+845428830+849192209
1198+851841286+853920021+856521096+859922874+863264313+865845601+868211492
1188+871206292+874434933+876800092+878490598+881116835+885624547+891409376
1178+897927485+905767415+915346769+925733238+935461606+943343797+948517244
1168+951415430+953958182+957440818+961274367+964224647+965476175+964539773
1158+962108597+960496994+961361332+964297016+968522519+973652606+978121538
1148+979730271+978292232+975692378+973635934+972609025+972367977+973094478
1138+975282775+979339111+985301596+991336755+995002970+996569564+998365723
1128+1000950187+1002397631+1001158012+997668964+993640842+991092410+991262798
1118+994403314+999797777+1005202073+1008172017+1008331229+1006792118+1003936987
1108+1000574295+998811175+998956341+999031519+997805519+996410046+996106462
1098+996199412+996425680+999372173+1006970445+1015963457+1019404625+1013589077
1088+1001863626+990608483+984080481+982394799+982124132+979436519+974244812
1078+970097724+969233263+970426652+971908479+972766099+970552458+963031380
1068+953576183+948464112+949365520+952751480+954684866+953533678+949760283
1058+945376790+942248061+940740095+940534103+941273551+942042251+942040602
1048+941823251+941989791+941962126+941955714+944312016+950469257+957229146
1038+958776197+953949327+947789400+944539628+943945468+944689680+946663800
1028+948772460+949103953+947969987+947555254+949162459+952771206+957777563
1018+962937881+966810454+969033500+969933198+968387919+962492856+952330640
1008+939949165+927206393+915402833+905892916+898990976+893740518+889364475
998+885774476+882683367+878905637+873123739+865374622+857511485+852093387
988+850411369+851271005+852043309+851090418+848564093+845245373+841810495
978+839053505+837534119+836772503+835625895+833499097+830973444+828985583
968+827220142+824058251+818776220+812900273+808591591+806747002+806881602
958+807846463+808922046+810564856+813709952+818516607+823874122+828228730
948+831127343+833796085+837716599+842759355+847469823+851056035+854235147
938+858395549+864680061+873428056+883650976+893244316+900616320+906228501
928+911425339+916034918+918726928+918712271+916008901+911682448+907932504
918+906421180+906617401+906849349+906404080+905331490+903391997+900703224
908+898565738+898476697+900628717+903874092+906909748+909213835+910600636
898+910853714+910841256+912595032+917001244+922185684+925138407+924946827
888+923958759+925585080+930509113+935100004+935118326+931148160+927554376
878+927050357+929107167+931525640+931796246+929002919+925637173+925623616
868+929983475+935669186+939389876+941485345+944032739+946794309+948212255
858+948639203+949486319+950670608+951027690+950414904+949509587+948623263
848+948422706+949877112+952189200+953579115+954463301+957200870+961950607
838+964997806+963022281+957872468+954350442+954527242+957314767+961790784
828+967507519+973104982+976863720+978417977+979125362+981021617+985584110
818+991682967+995742601+995814115+993945403+993715654+995712493+996244055
808+992142037+985490977+981504017+982769164+988378536+997044085+1007217538
798+1015025223+1015818963+1009039287+999748554+993341045+990372139+987864380
788+983100963+975845239+968988186+965451441+964282115+961211220+953408727
778+942560927+931709891+922436869+916006397+914203642+917166075+922114048
768+925706855+926991606+927102633+927269785+928566994+931989536+936905385
758+941023953+943274603+944841258+946785209+949302068+953082791+958619549
748+964394241+967247845+965669709+962012960+960107850+961604517+965411989
738+969636882+972271729+970903433+965045563+957835825+953238583+952655355
728+954795466+957934760+961642198+966728009+974815887+986078236+996906187
718+1002326117+1001238992+996560525+990866142+985154964+979931133+975370717
708+972158870+971378871+972596383+974761350+978349638+983061267+985353323
698+981546950+971896326+960848886+953138304+950795559+953437796+957877964
688+958859192+953854117+945836044+938863627+935071362+935501790+938805671
678+940454772+937956601+935057560+934533815+933028109+924893634+909975452
668+899449802+906397240+924445739+937609046+940230336+936087095+929450447
658+920903621+911609773+907120199+912127472+923339316+932183497+935640727
648+937193152+937024352+931661035+921701025+912339022+907870151+908767284
638+910554405+910060402+910652668+915589282+921703101+922926720+918234207
628+909784910+898801839+889500480+888759383+896978991+903839892+899633199
618+889561062+883265374+879318294+872111243+863972309+860605220+861707613
608+860681559+852253332+840116202+832156023+830551443+832407086+836894645
##END=
