##TITLE=<SNM>
##JCAMP-DX=4.24
##DATA TYPE=INFRARED SPECTRUM
##DATE=29/4/2025
##SAMPLING PROCEDURE=Instrument type and / or accessory
##ORIGIN=Admin
##XUNITS=1/CM
##YUNITS=ABSORBANCE
##RESOLUTION=4
##FIRSTX=4497.3318
##LASTX=599.83466
##DELTAX=-1.4281778
##MAXY=2.1450272
##MINY=0.4065209
##XFACTOR=1
##YFACTOR=1.9977122e-09
##NPOINTS=2730
##FIRSTY=0.41908878
##XYDATA=(X++(Y..Y))
4497+209784361+209239114+209693718+210660120+210969241+210369737+210087260
4487+211092077+212743242+213812431+213958286+213532983+212863691+212263263
4477+212078172+212388546+212891186+213198591+213062357+212417994+211561435
4467+211141949+211661178+212889381+213868285+213681136+212279315+210500644
4457+209389982+209507956+210625749+211967225+212779523+212740377+212055750
4447+211315881+211118214+211557675+212099654+212143529+211607622+210799725
4437+209971868+209208204+208558888+208147593+208197375+208789032+209482505
4427+209546087+208846959+208193988+208431054+209422236+210344421+210842913
4417+211328725+212138695+212970416+213223310+212543904+211096180+209540716
4407+208581146+208375275+208511985+208523845+208330520+208282871+208766475
4397+209540463+209705339+208782020+207556353+207251321+208072464+209151276
4387+209743917+209846644+209631225+208926190+207538228+205781264+204471801
4377+204374982+205571454+207362790+208833592+209501839+209503346+209302741
4367+209246245+209345631+209444583+209331085+208639775+207097364+205065994
4357+203548304+203493225+205077511+207464353+209261775+209605044+208864801
4347+208101436+207933919+208090784+207921820+207191484+206348813+206039647
4337+206468337+207293912+207947136+207966336+207289959+206357734+205832359
4327+206097411+206939903+207720722+207948956+207663526+207141090+206464533
4317+205728901+205410889+205889555+206749039+207219067+207247516+207526204
4307+208430144+209523157+210257731+210674218+211153317+211822727+212456424
4297+212711585+212266947+211035105+209572104+208893996+209372185+210148022
4287+210209068+209672698+209288882+209184782+208851181+208004452+206997263
4277+206571870+207209326+208528261+209645875+210242231+210644546+210878881
4267+210558811+209750198+209054293+208735982+208455803+207944600+207387226
4257+207065917+207115445+207659185+208698702+209863025+210765503+211482025
4247+212202098+212739079+212815028+212381594+211447907+210146829+208951775
4237+208287466+208131690+208327238+208846914+209568270+210333545+211267993
4227+212495226+213655178+214161234+213832675+213069861+212470104+212299842
4217+212425379+212758652+213337703+213978635+214430941+214771225+215068784
4207+214993880+214338582+213503295+213028911+213024480+213217537+213292262
4197+213223728+213313938+213695054+214057060+214184402+214277149+214400030
4187+214270644+213926511+213885396+214316040+214710419+214660711+214439399
4177+214580988+215260543+216232883+217140359+217727600+217834668+217361984
4167+216425731+215506649+215132067+215342743+215767330+216156666+216546972
4157+216971276+217235299+216992713+216056326+214789500+213948142+213819413
4147+213884859+213660235+213435462+213783773+214711030+215676866+216231153
4137+216367341+216380917+216584998+217071123+217646877+218037183+218100451
4127+217807920+217132079+216115223+215053956+214456630+214622312+215291976
4117+215911216+216204747+216265763+216200347+215952197+215421123+214673123
4107+214113839+214273643+215191740+216260392+216911409+217097618+216992698
4097+216747622+216523043+216344934+216113731+215952152+216176045+216805848
4087+217494905+218015223+218372545+218392580+217785154+216796404+216217368
4077+216468009+217121428+217568602+217736387+217851376+217847572+217383272
4067+216398968+215446409+215207240+215729050+216460043+216956686+217118921
4057+216906307+216376501+215870490+215723426+215859928+215892419+215611017
4047+215310922+215510737+216226245+216789094+216705090+216336252+216315202
4037+216609837+216664975+216401668+216553028+217703761+219311528+220108519
4027+219494112+218128289+217036931+216621563+216754827+217302669+218072614
4017+218580997+218428742+217835175+217384749+217267955+217112865+216638599
4007+216158173+216203733+216865685+217750798+218412496+218570614+218118234
3997+217321973+216882124+217224856+217886807+218211055+218282543+218537152
3987+218956086+219327595+219776991+220418102+220928708+220921607+220460559
3977+220013639+220009089+220352163+220426859+219896591+219300100+219358818
3967+219993156+220556230+220811197+221123719+221769246+222554720+223139917
3957+223280581+222735798+221563568+220607593+220901661+222333841+223595983
3947+223810492+223482708+223485349+223936342+224359453+224398479+224059760
3937+223547170+223204125+223518960+224793722+226515852+227401025+226731749
3927+225336641+224601590+224814100+225138736+225232572+225824736+227352914
3917+228901739+229064751+227560471+225432327+223952662+223716880+224598204
3907+226360017+228989249+232272229+235460686+237655381+238087995+236293631
3897+232854800+229446120+227657350+228011390+229502511+230232087+229761730
3887+229618232+230813435+232368243+233223445+233919022+234529819+233803242
3878+231912834+230911269+231939239+234175899+236416855+237972632+238063797
3868+236890807+236191202+236906919+237727466+236985150+234978858+233059135
3858+232334557+234199440+240123840+247569781+249178831+244121970+237723662
3848+233515066+232419561+233810298+236271000+238675937+241006268+243514455
3838+245289231+245003980+242913056+240388445+238445316+237378961+237017388
3828+236972365+236978497+237575912+239981968+244065221+246882423+246501904
3818+245164664+244938385+244587075+242440313+239468348+237817333+238885464
3808+242230935+245402714+246862657+247983612+249966841+251430080+251134879
3798+250053799+248894057+247334610+245789022+245385842+246341951+247975198
3788+250165418+253449680+257451733+260878420+263568414+266639838+270382404
3778+273955498+277278622+281296190+286831120+294102950+302004627+307861284
3768+310230865+310792238+311664506+313409790+316168945+320534048+326381247
3758+332218421+337212595+342749435+351083591+362551858+373394276+379637911
3748+383481503+389392552+397759946+403416340+403505969+402515399+404787713
3738+411140043+419522952+426553315+430218515+431232119+431428055+431749393
3728+432231968+432975403+434066492+434900093+434649884+433390935+431956279
3718+430765715+429890403+430206252+432984533+437302255+439290646+437072306
3708+433441299+431562050+432230267+434477817+436624222+437555925+437845965
3698+438676284+440526591+443313644+446916634+451402515+456207795+459023431
3688+458127084+455760368+455145945+456973995+459885526+462540045+465280075
3678+469457417+474348089+475991779+473452250+470858955+470058503+468127517
3668+463003017+457482975+454829321+455208393+456455467+457105514+457931775
3658+459932369+462281333+463686719+464946653+467686892+471598988+473861725
3648+472347525+468672152+465121286+462156527+459436905+457199469+456276747
3638+457119358+459303834+461864637+464065105+466296007+469833446+474585408
3628+477541694+476654537+473930886+472448104+473970479+478167006+482542820
3618+484806541+485582140+486647451+488280340+489775057+490980390+492077207
3608+492599972+492067540+491171134+491404485+493668743+497255145+500403815
3598+502014059+502314213+502185260+502321255+503210202+505383310+508746535
3588+511714426+512323985+510654934+508397031+506863676+506715627+508108572
3578+510087743+510833475+509424419+506833959+505098909+506288011+511343380
3568+517951438+520876246+518106468+513532481+511276248+511917493+513447327
3558+513682797+512148547+510022938+508461179+507505875+506829662+506882950
3548+508533682+511794985+515161312+516509860+515330127+513343318+512357700
3538+512321359+511904902+510385212+508467803+507459271+507780013+508338432
3528+507543469+505033030+502340470+501463099+502957845+505645453+507860213
3518+508845771+508889153+508346309+507159952+505346492+503401215+501969662
3508+501480344+502440780+505322981+509109764+510830372+508655951+504631849
3498+502287420+502623856+503616455+503160375+501282409+499457194+499111449
3488+500824718+503863740+506244868+506026883+503121110+499669301+498086239
3478+498726768+500037006+500610134+500229063+499168109+497564310+495991541
3468+495780538+497758844+500784081+502321374+501158469+498803418+497273255
3458+496668172+495766843+493952369+491823806+490524847+490827866+492389744
3448+493770993+493584366+491646757+488651267+485453784+483090886+482398292
3438+482881643+482787509+481394982+480318125+481317974+483974373+486363318
3428+486917709+485264322+482444598+480409275+480177863+480679295+480374426
3418+479368013+478740791+478745445+478801657+478783039+479209074+480120876
3408+480813857+480856344+480452120+479835043+479203524+479077644+479823317
3398+480820630+480912049+479851333+478585940+478077109+478415991+478970203
3388+479109599+478817709+478700541+479396029+480868816+482366815+483059707
3378+482933170+482852343+483106848+482797713+481588919+480764985+481429204
3368+483112756+485067760+487334823+489741252+491426653+491981492+491831743
3358+491420656+491017238+490969738+491473168+492357402+493227134+493553068
3348+492931515+491737191+491063961+491610148+492992381+494411522+495417189
3338+495668711+494710483+492682679+490790182+490192707+490596663+490760883
3328+490257781+489742356+489564560+489294451+488705599+488150999+487744268
3318+487148464+486333899+485866720+486265604+487395182+488659919+489467592
3308+489400281+488397448+487007815+486028792+485698114+485691878+485942773
3298+486845147+488564651+490551998+491992442+492670833+493107400+493889921
3288+495121987+496211734+496223161+495045815+494056379+494746287+496688789
3278+497917842+497519704+496580572+496337435+496550915+496151524+494840123
3268+493348747+492343647+491790897+491454491+491348273+491493905+491795850
3258+492215857+492524456+492140401+490881452+489492505+488879545+489290155
3248+490366057+491410870+491663555+490962070+490107136+489963026+490264225
3238+490000620+489052418+488493820+489012288+489760765+489333656+487601411
3228+485881937+485299798+485334169+484807795+483982817+484158374+485430780
3218+486479561+486339837+485035059+483153304+481824060+482050996+483271187
3208+483607355+482230313+480382034+479492222+479506782+479482823+478990671
3198+478299420+477548407+476579856+475483933+474584871+473952876+473435780
3188+472923757+472247573+471183516+469756826+468362837+467456078+467090313
3178+466824798+466180361+465143007+464174247+463744035+463795414+463774349
3168+463239620+462378689+461786734+461691198+461625975+460937290+459380066
3158+457186878+454878521+453169877+452647143+453113367+453496646+452888788
3148+451551996+450442318+449901473+449389300+448588371+448059042+448281085
3138+448715086+448548211+447777893+446786428+445567132+444101356+442752689
3128+441837008+441422073+441570419+442124303+442465125+442080682+441110491
3118+440026473+439103900+438351872+437780713+437664679+438324243+439505051
3108+440278233+439843098+438296734+436462538+435091673+434330485+433923605
3098+433759744+433901825+434150959+434080038+433612918+433166774+433066494
3088+433094480+432770576+431947179+430933008+430075867+429485015+429162334
3078+429114536+429156069+428814680+427792722+426501669+425769333+425936477
3068+426531147+426912069+426906818+426675287+426302689+425710943+424823667
3058+423800425+423060839+422862666+422901990+422613501+421806157+420819495
3048+420239266+420498903+421421804+422155303+421947283+421017967+420295567
3038+420263135+420421000+419936545+418558996+416829467+415619240+415468357
3028+416070934+416482111+416164591+415557598+415239601+415072159+414623508
3018+413861127+413037224+412386401+412051338+411896516+411551547+410937155
3008+410402426+410162720+409986924+409525533+408682444+407689308+406965028
2998+406737615+406738331+406484363+405811730+404928362+404129551+403706202
2988+403862843+404458438+404971536+404872598+404075308+403080501+402518114
2978+402407630+402150529+401379018+400368308+399524593+398981540+398697855
2968+398535694+398326272+398052910+397755351+397280564+396542887+395976203
2958+396231245+397304284+398260154+398061145+396625236+394852771+393702875
2948+393460155+393742617+393985038+393868109+393366469+392613426+391899440
2938+391576460+391720750+392041163+392162389+391803635+390878317+389745815
2928+389073749+389140821+389523295+389597707+389169852+388552984+388096665
2918+387755843+387331807+386969712+386960851+387208672+387350783+387247161
2908+386981736+386593863+386107319+385624596+385180331+384703097+384271333
2898+384131460+384232636+384057764+383306035+382410732+381947700+381880479
2888+381744783+381266952+380512000+379644863+378840890+378395820+378604078
2878+379337011+379968499+379972468+379407067+378654084+378029458+377742103
2868+377824333+378055117+378212624+378275430+378242998+378074213+377880395
2858+377853721+377991715+378131290+378172554+378097097+377899043+377583851
2848+377097248+376328900+375377714+374630131+374335765+374320459+374338450
2838+374393767+374446309+374205022+373570162+372890547+372449534+372112621
2828+371772605+371653229+371830726+371896874+371459382+370676652+369981553
2818+369544389+369277442+369086459+368887122+368597947+368244683+367895030
2808+367484659+366919527+366324290+365953930+365829184+365659056+365240481
2798+364765813+364540637+364553586+364556689+364438149+364270796+364122002
2788+363989080+363758116+363210080+362312749+361434931+361004063+361030915
2778+361130122+360909451+360269191+359391731+358531426+357914528+357759885
2768+358088743+358518984+358589637+358248875+357713162+357076392+356406146
2758+355866285+355425810+354810910+353946459+353127925+352693417+352756969
2748+353164475+353528957+353509265+353137592+352625987+351986830+351230625
2738+350692406+350667254+350914598+350899799+350350480+349413496+348520223
2728+348101736+348164870+348272431+348139092+347951450+347912812+347854094
2718+347513362+346911948+346282160+345786756+345425347+345150762+344941489
2708+344732216+344429943+344061016+343765008+343646736+343736216+343974878
2698+344118928+343865557+343226221+342558034+342123078+341860697+341651304
2688+341510924+341415059+341203101+340804367+340354105+339998693+339785362
2678+339754929+339897786+340016923+339849600+339331520+338647132+338081403
2668+337834148+337878694+338011914+338068185+338010273+337828300+337472799
2658+336922883+336294557+335832808+335711135+335857871+336068546+336215580
2648+336256367+336142033+335796259+335167873+334401076+333916950+334042502
2638+334553928+334877923+334716298+334218656+333669367+333265441+333082066
2628+333072847+333135205+333165996+333064911+332839675+332675992+332695147
2618+332731249+332575205+332286239+332059094+331969197+331977640+331975522
2608+331797070+331413881+331068882+331011029+331183364+331340781+331368022
2598+331360026+331461440+331653408+331713081+331506374+331270994+331363188
2588+331754941+332029108+331871482+331378763+330905646+330743784+330901499
2578+331125541+331180142+331068375+330925368+330823447+330782303+330832607
2568+330981700+331184379+331309871+331111488+330446643+329587144+329021892
2558+328910035+329015239+329127513+329233522+329341112+329426713+329504646
2548+329585771+329658662+329778604+330027381+330336188+330497394+330415821
2538+330214187+330025382+329848571+329693630+329669940+329848690+330200551
2528+330663225+331117366+331388937+331414716+331276633+331038001+330732207
2518+330454400+330275083+330186737+330233193+330470542+330765833+330886730
2508+330773441+330523979+330228031+329986535+329921431+330021533+330130645
2498+330167254+330219468+330379272+330611220+330825207+330970004+331008791
2488+330900276+330660838+330372708+330087441+329807486+329603136+329623723
2478+329922834+330377183+330820076+331123333+331162867+330906929+330525918
2468+330250378+330172565+330275978+330505420+330714902+330733759+330580101
2458+330469169+330550951+330728418+330786002+330645711+330413315+330221347
2448+330148099+330231731+330418656+330554979+330546117+330435722+330288420
2438+330150784+330093558+330125364+330159288+330178950+330273681+330436379
2428+330542626+330592692+330754316+331091199+331446074+331681036+331864501
2418+332105370+332353818+332514995+332640218+332858263+333193804+333552528
2408+333824934+333975937+334096864+334345670+334756070+335153940+335347548
2398+335369866+335453617+335798675+336410681+337115776+337724797+338245742
2388+338893969+339836084+341038971+342421920+343970671+345645182+347408994
2378+349426415+352032480+355402537+359309322+363261548+366917737+370303786
2368+373505208+376259858+378061144+378611239+378160231+377400565+376695142
2358+375498969+373123987+369881004+366904370+365102666+364524227+364605830
2348+364916397+365679882+367565576+370662152+374015381+376753144+378915004
2338+380887044+382618245+383681467+383983382+383990901+384052722+383959155
2328+383445162+382617767+381665358+380631734+379559770+378486463+377332837
2318+376003832+374491899+372872227+371314138+369976301+368838518+367786724
2308+366802121+365886887+364917441+363770976+362555140+361569284+360973868
2298+360582324+360106343+359547149+359156828+359042316+359028651+358954209
2288+358920404+359133317+359564394+359896026+359862043+359572002+359379856
2278+359444899+359544225+359338502+358730435+357941619+357303507+356961999
2268+356739926+356363808+355848145+355500789+355502609+355639439+355542112
2258+355141200+354787578+354857664+355310313+355775344+356041604+356264781
2248+356672615+357243983+357748428+358011377+358084327+358153488+358299418
2238+358402175+358329314+358136004+357950779+357735867+357342056+356758365
2228+356147195+355687445+355485572+355539367+355742076+356028625+356445769
2218+356981423+357533218+358128992+358897579+359785214+360604254+361349837
2208+362179052+363126747+364098640+365098250+366240300+367564740+369029770
2198+370663912+372530361+374536982+376420319+377944961+379118847+380248335
2188+381659510+383275243+384661296+385565967+386165113+386734482+387341922
2178+387873548+388200108+388331597+388412812+388532307+388643895+388716637
2168+388783858+388760705+388405920+387622922+386650104+385753698+384903180
2158+383979593+383087841+382397694+381887819+381455548+381113443+380955340
2148+380985326+381073642+381288583+382244155+384692087+388725349+393777824
2138+399330387+405223236+411399889+417667573+423701905+429333088+434832155
2128+440604047+446615883+452495991+458049032+463313674+468246744+472552532
2118+475871001+478187623+479893254+481374305+482873706+484735829+487394257
2108+491138851+496046351+501947881+508376861+514744020+520589398+525556511
2098+529190651+531047492+531214935+530387988+529040454+526934776+523701997
2088+519350171+514066076+507973651+501005467+492891295+483592765+473601193
2078+463627106+454365185+446382084+439757527+434122018+429204672+424951575
2068+421338053+418493684+416554106+415173245+413774930+412229939+410769743
2058+409539228+408574586+407903832+407567814+407646105+408129247+408874561
2048+409900398+411527499+414158836+418075616+423274200+429495249+436740912
2038+445456498+455777703+467110064+478710924+489993370+500223514+508734063
2028+515415937+520578419+524600909+527808209+530365312+532316974+533679843
2018+534285464+533808975+532194167+529814471+527127818+524288760+521093575
2008+517307806+512909317+507933193+502462620+496919216+491881540+487484094
1998+483405660+479483331+475952634+473004882+470455059+468057491+465918605
1988+464334707+463427172+463087812+463025544+462865232+462561378+462630927
1978+463590736+465311821+467213418+468859674+470179639+471409885+472937422
1968+474916504+477020719+478837013+480413840+482108938+484038790+485987349
1958+487793081+489585356+491594991+493846211+496165637+498534383+501172193
1948+504098135+507012381+509852691+512906214+516102175+518839311+520772057
1938+522154977+523447611+525036999+527118330+529586222+532113907+534404093
1928+536502909+538918289+542051295+545461423+548319337+550596813+552903529
1918+555262638+557005862+557898867+558543573+559623235+561257079+563041836
1908+564587305+565881431+567043083+567920454+568260112+568309879+568896464
1898+570578822+572858029+574576012+575210215+575419130+576095164+577255027
1888+578123327+578182821+577732231+577436373+577703290+578410413+579086448
1878+579390780+579329316+579056790+578879144+579383320+580883020+582552011
1868+582839098+581351214+579294527+577791725+576930943+576203709+575231399
1858+574022128+572726868+571373009+569938114+568555374+567419440+566597446
1848+566260771+566758623+567732484+567560149+565245198+562070122+559695320
1838+558380487+557444697+556473938+555828635+556025914+556734708+556736797
1828+555474596+553745991+552141566+550312114+548110721+546073428+544478729
1818+542996096+541443228+540247025+539878665+540161096+540353064+539933862
1808+539165036+538720175+539079107+540398117+542499021+544689971+545978369
1798+546036610+545804482+546672604+548986003+551202792+551378349+549977647
1788+549062981+549606183+551111074+552815571+554454428+555863902+556848505
1778+557873387+560118699+564484608+570465503+575533702+577055660+575547128
1768+573304263+571712428+571540332+573384463+576680675+579587342+581202986
1758+582221841+582966559+583407422+584520441+587393751+591402756+594557364
1748+596001986+596638218+597371419+598381920+599614822+601004425+602309352
1738+603688691+606288162+610928685+615671607+617094925+615622078+613795073
1728+612626499+612294777+613025472+614695060+617023377+620511855+626029272
1718+632541972+636005925+634254883+630405921+627912847+627674095+629265035
1708+632205954+635777616+638883054+641632721+645781719+651975468+657398243
1698+659223040+658178347+655343824+651746443+649517959+649830585+651907023
1688+654786778+659169991+665711216+671166214+671271298+667960645+665450445
1678+665849060+669141035+673280724+675958664+677583080+679801898+682046613
1668+682357688+681428760+681902503+684565705+687334050+688004714+687485202
1658+688145363+691218637+696769232+702996696+705235146+703337070+702554639
1648+704896860+707874896+707437315+703839158+700591042+699881890+702108942
1638+706510296+710934803+712092219+709605470+707155420+707203278+709357529
1628+712014406+714488325+717532419+721415394+725060096+728069341+731847232
1618+737704187+744722258+750058925+752513331+753069662+752654756+751799822
1608+751006352+750769271+751336403+752319335+752961057+753329358+754661079
1598+757902630+762495295+766986338+770467178+773025534+775044328+776759626
1588+778485963+780615390+783186218+785668850+787396022+788390173+789655060
1578+792330375+796177726+799371599+801505502+804156351+807553947+809831901
1568+810127341+810506741+812719950+816467587+821505591+829208349+839894692
1558+847673831+847991887+845166674+842575139+840280895+838049009+836655527
1548+837012789+839051275+841894689+845178728+849545233+853887033+853424270
1538+847514922+841894450+839756370+840464031+841852620+842541126+842770270
1528+842905130+842909427+843570423+846704922+853051613+860407253+865462204
1518+867495320+867769576+867806633+868930274+871327513+874332462+877990709
1508+882553956+885460623+883714475+880455081+879569177+881638812+885884360
1498+890905418+894344307+894966338+895286901+898768576+905762061+912344579
1488+913690919+909847387+904811233+902090149+903117955+907064959+911434329
1478+914559995+917106537+920582185+925438127+930148050+932098757+930800334
1468+928611711+928341393+930562359+932664456+932699066+932081392+932337449
1458+932595534+930986633+927765311+924666616+922710658+922315325+922430016
1448+920014875+913671167+906761821+903871385+906244934+911411593+915806622
1438+917439750+916464993+914337774+912467267+911750356+912832226+915530098
1428+918455741+920063031+919412357+916694853+913927224+913662276+916236446
1418+918780600+919098657+918585350+919001629+920278211+921449590+922409906
1408+924056878+926145132+925850348+920806913+913351858+908537269+909464526
1398+915403412+922754875+927861563+929133610+927541657+925127649+923193770
1388+921846117+920578724+919970180+921937297+927170014+933640466+938734384
1378+942137172+945464413+949577189+953059402+953964819+952589239+950976937
1368+950675409+952019363+954703450+957987429+960710960+962169365+962916172
1358+964235361+967219543+971925229+976957803+980663431+982779909+983754189
1348+983365002+981739333+980800022+982862138+988133762+994327869+999096271
1338+1002798975+1007055324+1011313821+1013976426+1015768523+1018927367
1330+1023847637+1028318212+1030439464+1031055766+1032391126+1036127963
1321+1042673006+1050873973+1058054413+1060979221+1058659974+1054540992
1312+1053710107+1057841620+1063980410+1068302638+1070274469+1071678215
1304+1073179943+1073741823+1072376388+1069634418+1066950092+1065425807
1295+1065373295+1066105362+1065602797+1062306704+1057534424+1052753550
1287+1048139880+1044938309+1044460568+1044570485+1040690434+1031943221
1278+1023221430+1019171907+1019113786+1018976419+1016706103+1013976068
1270+1012963419+1013045887+1011401182+1006727958+1000915161+995950972+991501402
1260+986886002+982749655+979279735+975239880+969875882+963670557+957047819
1250+950076592+942978679+935555966+926970527+917203863+907414702+898458694
1240+890341747+883063921+876697001+870874954+865006124+858753179+852056209
1230+845227480+839155285+834656664+831499132+828708171+825698687+822871803
1220+821183596+821013767+821516750+821535249+821371327+822779727+826644264
1210+831633515+835692705+838118289+839555810+840902866+843060280+846530498
1200+850724011+854589145+857882313+861139081+864882780+869264502+873701063
1190+876956459+878433661+878842898+879088094+879469941+880357695+882595548
1180+886459368+891000894+895193512+899103102+903303478+907966796+913475977
1170+920882101+930219120+940055303+949289864+957048595+962259114+964999114
1160+966274682+966157186+964616790+963913366+966648056+971962047+976565812
1150+979399021+982045574+984256336+982880458+976745129+969619766+966246039
1140+967759225+972008234+976358568+979065689+979478864+978231282+976519088
1130+975674895+977255809+982167784+989512027+996691513+1001705767+1004379352
1120+1005208089+1005444036+1006890627+1009417297+1010999822+1010394142
1111+1008229209+1006041601+1004913186+1004826064+1005477572+1007204864
1103+1009524231+1010135162+1007828207+1004608615+1002020363+999383477+997904603
1093+1000491066+1005840622+1008402022+1006625440+1005737030+1009523873
1084+1014536038+1014890257+1009913417+1002448218+993531654+983831167+976276279
1074+973440324+974402788+975882975+974854810+970003523+962549243+955600811
1064+951832288+952295469+957004914+965029070+973538247+977826461+975008050
1054+968609623+965212027+966075673+966818541+965010571+963403580+964856914
1044+968396949+970415624+967647278+960516008+953716341+951502834+953547347
1034+956480927+958074014+957917969+956656604+956628140+959318254+962385322
1024+962308761+959450549+957922326+960402630+965076629+968291089+968881612
1014+967955429+966327970+964170079+960926200+955857166+949859263+945003321
1004+942423243+941051363+937860713+930812090+921698904+914185011+909915713
994+907585844+904799000+899955709+892805224+884255171+875883122+869210379
984+864970738+862690636+861021227+859082813+857407257+856913225+857303367
974+856939422+854326942+849731651+845059322+841819561+839501686+836499005
964+832500801+828841480+826353359+824290049+821813802+819589674+819185330
954+821427420+825772682+830839448+835366593+839079381+842905906+847990395
944+854190888+860049931+864389047+867399604+870202739+873922211+878938136
934+884617863+890217747+896177877+903456360+911415711+918181305+923274984
924+927488488+930195132+929961691+927581041+925537423+924875233+924855421
914+924249562+921812521+917403171+912485049+909028675+908498243+910923767
904+914029682+914470665+911528791+908128748+907446806+910511308+916263358
894+922003295+924753858+924026863+922663576+923858585+927845034+932203960
884+934265301+933833806+932822947+932438714+932575663+933012946+934622145
874+938324013+943214088+947109655+948780019+949118603+949781509+950941670
864+951354547+950839391+950810569+951825008+952233469+950590316+948395785
854+948053561+949524617+951360693+953681611+957313304+961223431+963797660
844+965311025+967488966+970701159+973658906+975118923+974017122+970875762
834+968035093+967365384+969057588+972535802+977247336+982698098+987670462
824+990015905+989572655+990697549+997352510+1007200448+1013684506+1013381726
814+1009033481+1005578539+1005312994+1008130868+1012788458+1016506318
805+1017666479+1016870084+1015047077+1013257964+1012869971+1015197930
797+1019939778+1024322514+1023757889+1016143985+1004565770+993523299+985359091
787+980450100+977300266+972705989+965547389+959051456+955919046+954378292
777+951889455+949221121+948363860+947716111+943281221+935892939+931863168
767+935323421+943502368+950772020+955512018+959555812+963091133+964847187
757+965400773+965388898+963842057+961372553+961997985+969949519+983795900
747+993282818+988489353+974652460+966034499+968881075+977756823+983131741
737+980760578+973650671+966749798+962778805+962544410+966403277+973344370
727+979669459+981344537+979297100+979192911+983298944+986714561+985907843
717+985256991+989407480+997212159+1003785607+1005277668+1002532356+998208876
707+992884859+985826569+979075654+976328015+978212605+981775077+982552078
697+978380286+972549109+969300874+967611773+963644778+958092572+955600393
687+957536361+960632729+960642217+955118415+945741534+939023499+941355278
677+952781923+965791332+970652227+964033010+949654943+932409712+921206363
667+925359478+936381780+942595340+944011020+943613241+942358737+939332605
657+932469684+922532057+913939159+910556779+914151176+922417186+929611590
647+929852848+922347309+912228694+904355630+900335467+902062281+910292667
637+919003479+919442313+911706258+902789694+898162896+900493063+909426037
627+920197653+925755289+923140482+914283949+901318638+886976792+876268907
617+872823871+874047643+873894821+868921263+860000761+854882855+861543007
607+877097704+889855891+894691962+900448965+910834914+915818557
##END=
