##TITLE=<SNM>
##JCAMP-DX=4.24
##DATA TYPE=INFRARED SPECTRUM
##DATE=29/4/2025
##SAMPLING PROCEDURE=Instrument type and / or accessory
##ORIGIN=Admin
##XUNITS=1/CM
##YUNITS=ABSORBANCE
##RESOLUTION=4
##FIRSTX=4497.3318
##LASTX=599.83466
##DELTAX=-1.4281778
##MAXY=2.217062
##MINY=0.6854102
##XFACTOR=1
##YFACTOR=2.0647999e-09
##NPOINTS=2730
##FIRSTY=0.70005667
##XYDATA=(X++(Y..Y))
4497+339043350+339786186+340142174+340105340+339901163+339840052+339287854
4487+337009466+333617676+331949941+333790965+337669078+340849820+342301370
4477+342393514+341163865+338888103+337248918+337890978+340268843+342137434
4467+342106460+340943754+340227851+340368694+340263646+338927161+336991020
4457+335942396+336329878+337325647+337713331+337017116+336009599+336081564
4447+337668558+339542663+340098931+339198828+338241338+338408305+339432334
4437+340330531+340655170+340517070+340062674+339551959+339502885+340105166
4427+341034656+341976558+342476362+341639218+339096726+336032750+334300064
4417+334566420+335896209+337073262+337673754+337865229+337830848+337609669
4407+337408351+337902265+339708447+342187028+343391534+342130044+339550053
4397+337616222+336792039+336147814+335115558+334117307+333783229+334499997
4387+336206443+337964416+338509657+337728573+336721979+336329618+336512404
4377+336838746+337002191+337240720+338238999+340029650+341376009+341024408
4367+339373185+338144575+338396209+339387561+339571877+338566207+337595929
4357+337786220+338834757+339754980+340067841+339682438+338435180+336396503
4347+334269985+332922212+332686888+333224017+334101661+335484998+337496337
4337+339058852+338841599+337406301+336697038+337562068+339217505+340517012
4327+340634010+339321773+337380321+336181935+336287617+336943880+337021099
4317+336207280+335443891+336054949+338064556+339862193+340028669+338730894
4307+336976586+335691888+335630892+336789182+338044464+338540371+338678904
4297+338849739+338672900+338274073+338577898+339566652+339850213+338633323
4287+336870558+336038437+336518553+337463891+337944267+337825710+337507884
4277+337284684+337126175+336936259+336886290+337313580+338101419+338442974
4267+337808072+336735431+336140193+336341685+336884905+337207407+337364502
4257+337761365+338463239+339261296+339884420+339724988+338348463+336723798
4247+336702205+338729652+340946496+341042335+338759559+336017421+334717539
4237+335122948+336256845+337019771+336841748+336146024+336080842+337023293
4227+337965455+338161693+338183950+338499957+338404119+337249322+335860212
4217+335678407+336897346+338244715+338513005+337816040+337157294+337141561
4207+337457222+337529419+337359219+337361615+337627249+337976021+338421872
4197+338884582+338904298+338260823+337300215+336445924+336035579+336494132
4187+337907519+339466714+340044690+339541047+338868618+338382555+337503583
4177+336150989+335183337+335036520+335154557+335135418+335347158+336105177
4167+337087898+337822073+338345403+339125852+340386014+341823967+343035574
4157+343648393+343068627+341001286+338304123+336476638+336218971+336965963
4147+337746441+338180197+338462084+338774310+339306185+340301809+341342465
4137+341221050+339527248+337547605+336715138+337156312+338211951+339280118
4127+339771406+339417467+338934089+339235201+339958811+339884103+338704249
4117+337292882+336495979+336552789+337151001+337415048+336535296+334754171
4107+333208371+332886474+334075248+336296739+338347395+339091645+338554083
4097+337551993+336402421+334943048+333703354+333818677+335496574+337595553
4087+339111708+340047490+340361794+339499998+337623150+335956743+335343694
4077+335452436+335640967+335685710+335577632+335469727+335706899+336292871
4067+336787738+337086021+337517295+337956651+337861880+337346142+337157727
4057+337515130+337913899+337953533+337629790+337030799+336192962+335271584
4047+334693926+334895187+335673442+336157369+335975333+335911335+336668056
4037+337703487+338095415+337869588+337752272+338272283+339378410+340308506
4027+340136256+338967055+337994784+338036180+338759992+339490963+339931647
4017+340065070+339916376+339399252+338421352+337389731+337215346+338306750
4007+339837021+340497989+339919927+338943499+338489363+338642532+338994248
3997+339293916+339406209+339233295+339059198+339228763+339394460+339067743
3987+338608526+338669753+339148051+339461345+339349803+338937351+338495570
3977+338300284+338297542+337949146+336773622+335043217+333729911+333671196
3967+334824289+336412871+337824844+339136158+340605836+341998093+342659668
3957+342131170+340629507+339095629+338689989+339885921+341859618+342975011
3947+342369583+341026285+340688338+341883693+343361801+343535840+342161048
3937+340380356+339523063+339978411+341105986+342163039+343041492+343798299
3927+344095456+343624202+342628318+341801393+341753012+342406186+342889276
3917+342185296+340075058+337525233+336099577+336881065+339495033+342194043
3907+343536475+343773329+344258064+345889802+348370837+350493949+350710654
3897+348273266+344321283+341087800+340027716+340773063+341851593+342663016
3887+343485265+343944568+343459285+342848776+343326150+344333725+344453667
3878+343856408+343717702+344284824+345305360+347024103+348978979+349266350
3868+347469435+345753752+345494757+345622234+344876483+343794546+343183143
3858+342968054+343326525+345325048+348777920+350616692+349303213+346300205
3848+343441329+342183420+343246996+345904524+348487575+350150259+351309443
3838+352178427+352035449+350555205+348444332+346558767+345259693+344498065
3828+344216756+344503001+345678871+348189379+351504238+353533157+353369539
3818+352614031+352119972+350844309+348488557+346402452+345956947+347842715
3808+351619129+355153550+356721665+357044399+357106809+356480828+355101821
3798+354161708+354093524+353955944+353002004+351661967+350773007+350849187
3788+352192341+354779376+357793412+360259638+362341470+364776780+367274384
3778+369018675+370468463+372890177+376743954+381468073+386134198+390116347
3768+393432130+396054036+397298522+396925156+396082268+396227325+397789089
3758+400117532+402425076+404495449+406932490+410862102+416152736+420507616
3748+422800178+424553389+427557956+431310901+433987799+435744560+438230646
3738+442829107+449288192+455312106+458917974+460652363+462401994+465282404
3728+468958591+471909379+472574332+471163686+469671694+469593695+470390165
3718+470752475+470923080+472521158+475990254+479126224+479345527+477003227
3708+473833454+470811162+468823176+468719659+470430290+473004075+475534588
3698+477427659+478361248+478841999+480301026+483845204+488611758+491642334
3688+491120996+488871907+487390798+487614575+489129517+490470102+490694745
3678+490889540+492608976+495178719+496886088+497877555+498004397+495794510
3668+492059982+489583191+488935299+488374355+486686558+484695887+483726157
3658+483701129+483446262+482541396+482105533+483660427+487796206+492815086
3648+495615881+495345628+493266624+490380210+487009637+483707480+481431603
3638+480714835+481408307+483215441+485887056+489022362+491926213+493468520
3628+492931247+491069266+489198451+488462631+489584230+492034810+493657195
3618+492855154+490840754+489754661+490473624+492920105+496644183+500419067
3608+502407024+501793080+499796289+498391389+498597788+500033345+501801855
3598+503752285+506221109+508701942+510045298+510165212+510044952+509929541
3588+509063761+507643907+507202069+508055551+508881841+509156944+509912106
3578+511475775+512589869+512439530+511611335+511005300+511309155+512966873
3568+515194195+515977415+514724182+513016004+512145663+512147338+512746213
3558+513827110+515110885+516213432+516965303+517401542+517753142+518385792
3548+519515186+520728409+520902073+519332977+516995844+515493431+515078843
3538+514920709+514720487+514933122+515526917+515653470+514463166+512060737
3528+509963027+509672394+510637419+510699483+508743568+505956976+504316462
3518+504751662+506564280+508102200+508049258+506305285+504061451+503144692
3508+504526383+507307260+509728223+510863621+510852132+510051360+508777227
3498+507354833+506006396+505159957+505560458+507476825+509964239+511361404
3488+510851728+509265369+507933732+507320597+507153457+507184402+507429368
3478+508026453+508813715+508989804+507751697+505340087+502964792+501552617
3468+501011360+500700289+500210878+499696005+499500575+499587985+499584001
3458+499211385+498426722+497426999+496711096+496973729+498387694+499895130
3448+499873364+497799614+494575975+491173360+488060802+485806864+485188878
3438+486480043+488969709+491237561+492079266+491518495+490698613+490633143
3428+491329416+491936720+491495805+489876076+488000123+486749603+486021981
3418+485249614+484291951+483475158+483197255+483648909+484600453+485523101
3408+486175322+486794520+487373882+487106919+485373454+483064553+481862386
3398+482344465+483446233+483814981+483143476+482043295+481370463+481848299
3388+483563780+485522350+486363766+485976833+485767778+486809704+488571228
3378+489773598+490016427+490116481+490700461+491258865+491165797+490973139
3368+491676801+493364253+495586206+498058956+499949573+499875847+498031243
3358+496738693+497619195+499704492+501216547+501806763+501971478+501812594
3348+501347892+500678697+499540585+497932403+496848042+497150106+498490922
3338+500114173+501591934+502332778+501842731+500843008+500466235+500369531
3328+499272757+497023034+494698025+493090305+492181801+491733208+491681709
3318+492040699+492745517+493673534+494705300+495634991+496178326+496189527
3308+495525585+494007757+492248369+491719467+492907692+494340998+494680301
3298+494619911+495314105+496328089+496459145+495552836+494620315+494722562
3288+496232596+498964226+502520298+506099002+508417486+508727287+507599394
3278+506095364+504752643+503682080+502998278+502823690+503004283+502915026
3268+501803991+499701548+497723810+497058540+497736857+498470715+497845744
3258+495949180+494500690+495023299+497087638+498688084+498482608+497164193
3248+496159447+495806173+495586725+495229409+494624760+493570190+492370418
3238+491780665+492005424+492625083+493421005+494392900+495181375+495255390
3228+494660440+494086217+493933049+493674746+492671848+491261405+490365776
3218+490266993+490371838+490030284+489254396+488799451+489333722+490377150
3208+490658834+489598664+487775884+486093686+485104125+484878789+485109956
3198+485452203+485700575+485634470+485172886+484642368+484328929+483976521
3188+483233397+482205124+481083669+479707606+478049686+476781297+476670881
3178+477543733+478350740+478314656+477675511+477117714+476672469+475671504
3168+473962951+472426590+471696168+471224798+470332835+469282249+468615622
3158+468270286+467873335+467247931+466488613+465945826+465835987+465636112
3148+464554031+462755442+461170382+460232578+459647501+459051715+458403852
3138+457993622+458251982+459266572+460461407+461053932+460760325+459778500
3128+458292425+456369390+454282217+452613645+451905623+452263863+453272275
3118+454217872+454464686+453842745+452746404+451730516+451084616+450750249
3108+450425177+449853091+449241340+449149803+449809559+450774295+451342485
3098+451161431+450415940+449572128+448885121+448198461+447360653+446610803
3088+446292429+446357293+446394127+446098154+445556983+445038214+444540258
3078+443731548+442571266+441709239+441788854+442524790+442976704+442674466
3068+441960209+441329060+440987274+440943599+441156060+441656297+442481547
3058+443255011+443155852+441831491+440057410+438990542+438938985+439138485
3048+438744046+437866113+437296076+437361748+437639969+437713464+437562114
3038+437225640+436673501+436025782+435533628+435319002+435205641+434857129
3028+434229444+433754033+433687322+433567581+432881960+431838937+430884852
3018+430008103+429097608+428455028+428463255+429043915+429617676+429535434
3008+428776058+428106891+428166762+428662322+428867653+428544516+427986314
2998+427541242+427357474+427340587+427321477+427328347+427418990+427264667
2988+426383068+424875112+423518996+422978721+423141560+423374834+423341089
2978+423310807+423599044+424021513+424171911+423924116+423343254+422344685
2968+420854771+419292141+418431932+418557821+419057221+419209177+419070875
2958+419118246+419395427+419545824+419385786+419043221+418646790+418188525
2948+417761986+417615977+417712421+417619845+417246190+417135831+417586273
2938+418124267+418230123+417888279+417234326+416372385+415526263+414825430
2928+414208685+413754982+413633308+413742165+413836128+413796955+413498672
2918+412862443+412185944+411846496+411693357+411297243+410694038+410293796
2908+410176914+410050996+409819511+409710336+409835330+409991616+409955792
2898+409716629+409392510+409119428+409006817+409055603+409136055+409113625
2888+408948419+408621067+408102153+407515806+407150812+407129970+407256407
2878+407302219+407159154+406679326+405830751+405042825+404879265+405319227
2868+405779858+405856472+405659800+405456923+405368734+405416884+405533219
2858+405520113+405289061+405034743+404826929+404300885+403261239+402275112
2848+402073851+402583412+403000512+402747723+402101592+401790492+402044407
2838+402339832+402224681+401919413+401818724+401926543+401979456+401670088
2828+400786382+399548708+398599473+398356817+398686796+399277271+399841102
2818+400018172+399671104+399218613+399183944+399520216+399754125+399644026
2808+399308736+398801975+398026636+397165128+396753426+397056934+397656300
2798+397915324+397651277+397102082+396444058+395650965+394759349+393966430
2788+393377282+392845436+392218329+391655018+391532881+392032223+392870897
2778+393445553+393324514+392731065+392360614+392545219+392834034+392569294
2768+391618501+390408250+389511525+389259256+389508609+389744540+389535369
2758+388870966+388081394+387576885+387600845+388032523+388457474+388576580
2748+388488853+388436690+388415155+388247697+387908423+387515485+387107969
2738+386693381+386424918+386437763+386551875+386407222+385914029+385358108
2728+385021172+384881542+384767228+384659121+384681984+384828167+384866964
2718+384591976+384061343+383458166+382775461+381928358+381139941+380773215
2708+380783722+380828697+380860335+381101866+381542954+381883383+381851369
2698+381338575+380460036+379617552+379230358+379315429+379503383+379486726
2688+379331884+379317768+379559414+379897677+380126247+380177312+380059766
2678+379756662+379265028+378695308+378259329+378140195+378364694+378735866
2668+378891633+378548115+377778404+377034587+376818806+377240958+377862667
2658+378074782+377674396+376960053+376336842+376025511+376009490+376070890
2648+376015264+375849971+375562109+375019034+374379860+374111974+374261822
2638+374270858+373828875+373376297+373480363+374105796+374698061+374810123
2628+374528612+374282895+374306768+374424430+374397959+374320480+374476593
2618+374846033+375002117+374612701+373836236+373108844+372748526+372810706
2608+373105149+373356264+373495374+373663755+373867990+373933893+373842760
2598+373743630+373617857+373298963+372821358+372395280+372062616+371734571
2588+371551988+371809366+372415574+372818153+372715213+372495304+372643883
2578+373070509+373339001+373242816+372912375+372622752+372617210+372905361
2568+373227199+373326559+373185169+372954030+372774766+372685336+372628583
2558+372523507+372306399+371972234+371655447+371534581+371611078+371777670
2548+372035251+372362343+372509536+372241015+371709342+371369461+371523553
2538+372011637+372378393+372349353+372041919+371710439+371488220+371394143
2528+371381874+371380027+371374398+371390563+371384588+371254773+371014426
2518+370882215+371086189+371581057+372104329+372485172+372717898+372844624
2508+372968493+373207137+373462379+373462206+373136759+372737412+372573245
2498+372761285+373155695+373481893+373578886+373418155+372978712+372362054
2488+371878964+371726922+371763410+371808327+371881274+371962246+371901221
2478+371774610+371936352+372479716+372985005+373035118+372692697+372286596
2468+372030401+371991863+372130598+372272105+372288414+372283651+372418605
2458+372671133+372911134+373032722+372912866+372479716+371908236+371503000
2448+371360484+371370529+371505165+371848567+372342944+372714116+372698240
2438+372279292+371725969+371404939+371497458+371891579+372355472+372750980
2428+373074348+373380079+373695365+373978406+374180879+374331883+374450180
2418+374411758+374098839+373678593+373516505+373764328+374206715+374556988
2408+374740467+374830994+374879721+374917941+375010576+375216975+375555787
2398+376009692+376491743+376909305+377432837+378588962+380905599+384594690
2388+389760878+396756977+406072686+417907909+432018432+448016310+465719480
2378+485050605+505596600+526401936+546189536+563819903+578909509+592254391
2368+605145138+617687748+627642775+631672381+628843066+621761810+613388119
2358+604070533+592186958+576631900+558117798+539220226+523620078+514218605
2348+512211422+517310784+527369097+538365531+546839275+551858270+554363005
2338+556237226+558961235+562412519+565549269+567894773+569568945+570380513
2328+570131852+569206144+567810135+565303553+561133363+555883258+550395751
2318+544497812+537722489+530710571+524752012+520102283+515511963+509518533
2308+501832570+493335790+485097716+477636368+470862257+464405885+457987214
2298+451698185+445993886+441234203+437237649+433486003+429720645+426125227
2288+423016941+420516883+418398677+416250682+413959188+411914074+410519219
2278+409671741+408925499+407984289+406861246+405697790+404619202+403750391
2268+403200272+402932703+402733780+402371961+401771642+401083481+400642941
2258+400678361+400937443+400882307+400343965+399620153+398954220+398374714
2248+397984952+397938331+398115055+398157923+397905827+397616262+397660544
2238+398087776+398596500+398871920+398840859+398689971+398735754+399112556
2228+399516838+399482631+398948158+398291952+397801357+397402299+396948163
2218+396475350+396054613+395631422+395163719+394740413+394462221+394344732
2208+394362024+394460835+394554451+394584588+394554365+394524083+394611637
2198+394879148+395199947+395367607+395304821+395091638+394925797+395092764
2188+395759246+396730823+397571027+398003369+398116614+398184567+398383519
2178+398727498+399170116+399616025+399886452+399873231+399721390+399707592
2168+399960929+400401873+400908143+401420417+401873196+402144142+402189088
2158+402155978+402212990+402301468+402221246+401953591+401749386+401874034
2148+402342372+402930047+403412646+403741990+403980923+404160389+404278109
2138+404347794+404369473+404361708+404450503+404741396+405108123+405341541
2128+405472511+405721576+406200162+406818610+407365842+407637394+407670129
2118+407804823+408329655+409155829+409965549+410542601+410880317+411102102
2108+411361761+411760097+412262470+412693628+412933311+413096929+413371657
2098+413791095+414343292+415054374+415768544+416191331+416319962+416463605
2088+416794508+417212300+417561245+417754394+417823011+417947515+418274491
2078+418685067+418920103+418936153+418995561+419367368+420011709+420644417
2068+421114979+421580257+422216227+422897287+423321892+423379770+423235089
2058+423122825+423242883+423757034+424679104+425811529+426896410+427739818
2048+428218809+428376481+428494402+428873022+429540111+430281820+430924516
2038+431504137+432165134+432971535+433880817+434832968+435762948+436600611
2028+437363509+438180822+439150696+440237713+441373602+442632984+444203437
2018+446081844+447908203+449331665+450458779+451686551+453197105+454825581
2008+456359056+457811760+459353491+461020100+462654349+464158206+465591166
1998+467009461+468440168+469956207+471530990+472926336+473967570+474852373
1988+476019410+477731773+479761328+481489539+482512414+483122028+483919653
1978+485039924+486184906+487372438+489034948+491247145+493493000+495428996
1968+497306623+499415764+501621032+503648768+505451976+507187924+509051926
1958+511153042+513483708+515960038+518389602+520536617+522441783+524477890
1948+526868658+529445041+532058489+534825278+537737442+540406430+542472963
1938+544048122+545610694+547617184+550180634+552993033+555546149+557559047
1928+559317627+561468914+564338412+567605121+570754283+573602074+576167660
1918+578355204+580069906+581445420+582750036+584219137+585967152+587887444
1908+589716979+591291733+592651832+593908472+595110957+596264657+597445030
1898+598758191+600157492+601493516+602806677+604281090+605748228+606603500
1888+606634734+606540974+607055558+608034150+608857784+609389804+610020202
1878+610903187+611663429+611963761+612096377+612755873+614243160+616012651
1868+617122011+617194179+616526080+615404019+614043458+612903268+612375983
1858+612292672+612191176+611879354+611366329+610586746+609624666+608913613
1848+608877241+609445171+609837531+609001831+606950424+604939893+603816561
1838+603261621+602515871+601373487+600356212+599972512+599909755+599162792
1828+597401210+595532474+594336339+593541803+592535036+591279436+590172963
1818+589433332+588852007+588122364+587275752+586535543+585854224+585072735
1808+584481423+584593600+585422488+586496515+587392779+587798245+587355252
1798+586117376+584935790+584759759+585681541+586856487+587451321+587560150
1788+587761411+588351742+589289689+590449509+591744542+592963192+593709405
1778+593953505+594444302+596095265+599018456+602090717+603925274+604570857
1768+604962929+605429074+605891293+606611236+607867125+609376294+610792915
1758+612181303+613500873+614636098+616044694+618375187+621420139+624031624
1748+625321634+625340051+624717909+624459260+625475265+627653109+629707691
1738+630820862+631961571+634552676+638240555+640904982+641861982+642058162
1728+642172071+642710672+644140052+646230372+648244713+650093070+652468653
1718+655633750+658446900+659548235+659188436+658479404+658206264+658708666
1708+659994115+661671290+663226299+664827842+667218436+670385785+672991727
1698+674284047+674845222+674538307+673142702+671939004+672276980+674149353
1688+676693693+679614055+683113028+686079058+686704318+685565860+684720980
1678+685745298+688845386+692316473+694232956+695089152+696300759+697626160
1668+698124867+698353205+699348021+700915558+702096508+702689033+703450084
1658+704900652+707128898+710343877+714353623+717159037+717626972+717721598
1648+718880782+720498087+720870125+719873577+719015880+719427235+721621880
1638+725976530+732188542+737642275+739277130+738144099+737198531+738022107
1628+740775041+744922887+750123514+756335237+762773567+768098783+772363541
1618+776953861+782071235+785615183+786739554+787527162+789819551+793175690
1608+795917827+797682584+799431002+801271218+802378269+802653602+802455170
1598+801524844+799864008+798407955+798174478+799821227+803756958+809310629
1588+814203129+816331380+815938037+814985194+815050896+816661676+819664540
1578+823235277+825751212+826312560+826755554+829159889+832973570+835434311
1568+834704899+832561868+831952254+834230325+839269354+846532357+854318200
1558+858224371+857374872+856299229+857598707+860728529+863255202+862900542
1548+860031217+857540685+857976461+861807925+867307614+870545167+867930160
1538+862598650+859812520+859800627+860433450+860568894+860842784+862048272
1528+864105163+866489638+868744038+870774140+872477930+873631053+875035780
1518+878201050+882984260+887251096+889508498+890531950+892082340+895476584
1508+900704519+905172673+905762658+904116544+903908470+906476251+910788754
1498+914330681+914919569+913132526+911831374+913201923+917312069+921822023
1488+923571942+922314783+920949026+921950308+925443623+930109805+934662252
1478+938128490+939853641+940442182+941866482+944677957+946219053+945032791
1468+943178200+943047836+944757053+945775482+944379241+942299256+941983913
1458+943651446+944895961+943964422+942224260+940918431+939463821+936809324
1448+933289682+930336469+928107530+925586746+923465538+924220873+928532568
1438+933697920+936055606+934705033+931800317+929597762+929694871+932724581
1428+937115314+940299059+941201789+940351251+939034279+938631065+939126827
1418+938434191+935434849+932262189+931561875+933880879+937515873+940043644
1408+940348595+939532640+939735344+941859784+944244490+944039649+940418107
1398+936101504+934602901+936570363+939956408+942792074+944598284+945412623
1388+944865131+942640291+939845212+938980009+941683465+946756961+950881656
1378+952282977+952986640+955951977+961153123+965827966+968140850+968695270
1368+968718133+968784758+969281848+970800947+973582343+976921797+979543732
1358+981186382+982535627+984114307+986618580+990464823+994688878+997899123
1348+999786911+1000317257+999483808+999323307+1002929261+1010007919+1015570365
1338+1015093828+1010326727+1007053667+1009045723+1015283658+1021459817
1330+1024871323+1027222947+1030828208+1034472152+1035706275+1035244287
1321+1036105910+1039997186+1045973932+1051264797+1053321400+1052369943
1312+1051589147+1054106006+1060522223+1068414585+1073539176+1073741823
1304+1070681456+1066839254+1063621503+1062109102+1063074415+1065403061
1295+1066575525+1066215033+1066870430+1069004281+1068627855+1063076840
1287+1055225123+1049505409+1047636442+1048668150+1050040027+1049018596
1278+1046114110+1045332276+1048845740+1053759371+1055354332+1051742142
1270+1044643970+1037198008+1031486839+1027941390+1026671702+1027253315
1261+1027041431+1023510762+1018576578+1016489492+1017841393+1019004734
1253+1017793242+1016043785+1014613597+1010639530+1002461962+992826724+985228690
1243+979701000+974322379+968208630+960771847+951273555+940243288+929861260
1233+922017972+916819308+913542207+911595184+909634593+905595691+899133171
1223+892435038+887245034+882702171+877686178+873393304+871435888+871314589
1213+871346631+870878293+870559023+871124240+872488958+873630129+873449652
1203+872309982+871939676+873476441+876436755+879996118+884512769+890275264
1193+895520692+898077214+898730649+900542170+905084860+910926450+915681774
1183+918456762+919705319+919981230+919843592+920109111+921394617+924291713
1173+929881987+938028552+946311947+952793000+957904774+962625457+967153193
1163+972421196+980248896+989629065+995240469+993960967+989846838+988394710
1153+990700840+994303215+997047661+998576805+999129205+999751809+1001814878
1143+1004692228+1006482793+1007122717+1008502561+1011473441+1014858851
1134+1017603759+1020477876+1025226850+1032268673+1038317009+1038549909
1125+1032795670+1026618818+1024864972+1026117455+1025638955+1023384671
1117+1024560252+1031655076+1040985709+1047681128+1050487119+1049552405
1108+1045167041+1040211149+1037809412+1037106557+1035133322+1031833243
1100+1029417534+1028581430+1029226319+1032282068+1038633161+1047526863
1091+1055778331+1058671154+1056277615+1053712375+1051242627+1044187294
1083+1032655953+1023006166+1019734723+1021447231+1024122628+1026646068
1074+1031347122+1038628081+1043331559+1039386475+1028362271+1018438709
1065+1014180822+1013648745+1014575954+1017152972+1019874324+1018966283
1057+1013483510+1006881389+1002904551+1003196570+1008478544+1018297723
1048+1028921252+1035276849+1036499310+1036011573+1036394234+1036298280
1040+1032093277+1022508499+1010417254+1000273263+995246705+996262593+1001836355
1030+1007969907+1009493509+1004940600+999248022+998198301+1002211973+1006183730
1020+1004416837+997105049+990556505+990000526+994100106+997530549+998045652
1010+998064935+998914781+997627427+991520548+983362725+979008075+980278918
1000+983014127+982478701+978696427+974050798+968181379+959241952+948186687
990+938576275+932489488+928281541+923003146+916464475+911251031+909417513
980+910424799+911750373+910862019+906739922+900074178+892732541+886958615
970+884023415+883307917+882997308+881872475+880092014+878582557+878074959
960+878423846+878598203+877090536+873391456+869518829+868759741+872166686
950+876813412+878587753+877037825+875843422+878390765+884316647+890389000
940+894361623+897303116+902028245+909754737+918654501+925926915+930752847
930+934033701+936211661+937456176+938849704+941547501+945738186+951224250
920+957367327+962320159+964757461+965756722+965945916+963309433+957120687
910+951276730+950042953+952143665+952145685+948123757+944242585+944848215
900+950330930+957584812+962144590+962556176+961812273+962053139+961756155
890+959818138+958240093+959440096+963135884+966901646+968541525+967541571
880+965405757+964198884+964758211+966325980+968180918+970344963+972998421
870+976272289+979774553+982937918+986324944+990374181+993842266+995644146
860+995987433+994260722+989973275+985254555+983009739+984091329+986262591
850+987154236+987051701+987619457+988933600+989308756+988104424+986278988
840+984382770+982824759+983545511+988094378+993637772+994225620+988325776
830+982158508+983577726+995664122+1013579464+1026260867+1026749066+1019774675
820+1014604128+1015958223+1022830078+1031000487+1036120806+1036144246
811+1032361163+1029491434+1030476493+1033817332+1036343082+1033893541
803+1023616069+1010286544+1004500782+1010560319+1021377489+1026338808
794+1023597941+1019240173+1018349914+1021530368+1024769827+1022653180
785+1015227541+1007876147+1002977296+997929145+990780744+982676844+976107862
776+973539505+975736401+980821849+985047174+985965838+986203010+989753424
766+996004291+999767628+998470806+997204467+1001973531+1010414944+1013387440
756+1008315965+1002721534+1002294533+1005761348+1008739502+1008470461
747+1005748185+1003506717+1003163892+1003762017+1004982862+1006649529
738+1009581726+1014858851+1020867697+1024557943+1022230221+1017207011
730+1017175950+1024849500+1036810843+1046090555+1047063836+1039955618
721+1028828185+1016940279+1006397577+998672644+994001612+989481843+983410067
711+981896972+990245549+1001895129+1005183892+999969351+993769174+989119850
701+986214557+988393671+998238599+1012000668+1018591589+1010328459+993655438
691+979517983+973250257+974478722+979514980+983070821+982310233+979923045
681+978959117+976863024+969217417+957135756+948339683+950158306+960998165
671+969953873+966370320+953096046+948302617+957830932+968526225+971222175
661+968535001+967432395+970540566+975076616+975564007+967659868+952888665
651+938688799+931116803+929936084+931459859+935016854+943208164+955483753
641+965662962+968810623+965058486+956748014+945204781+932152206+928116768
631+941209641+963416010+976386949+971736701+956144808+936360211+913950849
621+894359487+887384058+896523937+915768837+937238692+952191526+947802005
611+922232801+892437982+876413892+876603491+884657682+894662418+900823451
601+897568520+891721387
##END=
