##TITLE=<SNM>
##JCAMP-DX=4.24
##DATA TYPE=INFRARED SPECTRUM
##DATE=29/4/2025
##SAMPLING PROCEDURE=Instrument type and / or accessory
##ORIGIN=Admin
##XUNITS=1/CM
##YUNITS=ABSORBANCE
##RESOLUTION=4
##FIRSTX=4497.3318
##LASTX=599.83466
##DELTAX=-1.4281778
##MAXY=2.0809197
##MINY=0.53230244
##XFACTOR=1
##YFACTOR=1.9380075e-09
##NPOINTS=2730
##FIRSTY=0.54174674
##XYDATA=(X++(Y..Y))
4497+279537993+281056583+283419046+284510563+283490122+281666713+280592296
4487+280490433+280710889+280862730+281189816+281969963+282732949+282650370
4477+281762763+281078850+281396063+282568775+283836799+284549746+284683133
4467+284656129+284625897+284277005+283453277+282627672+282354655+282446060
4457+282331742+282056048+282023601+282132784+282155973+282335771+282777575
4447+283068647+283070861+283026788+282781758+282141457+281751414+282515753
4437+284401350+286371555+287233851+286510110+284808893+283199696+282244611
4427+281910236+281919555+281808312+281257847+280593680+280457770+280912554
4417+281358449+281462926+281582596+281890798+281759349+280717286+279527382
4407+279379324+280214739+280706276+280059854+279136293+279228068+280246602
4397+280868819+280315895+279177537+278484581+278668162+279419337+280121857
4387+280402257+280400257+280464629+280658143+280664110+280079138+278854695
4377+277599342+277306425+278570943+281004021+283344709+284311482+283685574
4367+282482229+281782262+281619042+281306534+280583192+279906291+279748515
4357+280095285+280501474+280358030+279360779+278173642+278093493+279341741
4347+280416896+280041862+278937550+278625473+279366284+280041462+279521600
4337+277788458+275971631+275326593+276071925+277279360+277966318+278175241
4327+278692859+279808273+280883213+281208116+280698495+279652434+278482951
4317+277873129+278507494+280202068+281588963+281196213+279107690+277228983
4307+277441412+279647267+281992476+282767549+281703004+279807965+278526471
4297+278652815+279570255+279946058+279430040+279009211+279575422+280878938
4287+281858167+281557469+279946151+278074793+277017415+276628233+275995344
4277+275036291+274664794+275483939+277122968+278698302+279483678+279355120
4267+278886004+278906456+279748484+280795529+281064610+280487942+280024362
4257+280236514+280658697+280911754+281256310+281687042+281751814+281360540
4247+280850643+280466659+280284432+280116783+279558968+278770117+278524871
4237+279050731+279686788+279933725+279877104+279606670+279160375+278860384
4227+279234834+280650147+282863999+284885935+285724457+285382301+284726591
4217+284415221+284337347+284011522+283228176+282311904+281800592+281729700
4207+281383115+280173896+278789770+278863737+281108713+284138266+285621426
4197+284599354+282136751+279875997+278843746+279306987+280700432+281831163
4187+281879234+280972681+279563889+277969824+276661726+276203959+276777275
4177+278129262+279763216+281045234+281647060+282044915+283016116+284490603
4167+285423544+284988690+283513096+281973777+280952136+280544409+280883859
4157+281912112+282879223+283054530+282814451+283120747+284147308+285221387
4147+285767115+285588794+284659082+283316752+282201123+281522161+281022936
4137+280862853+281583027+282930646+283732507+283349753+282437572+281940469
4127+282017204+282144594+281813571+280973881+280046660+279514095+279439298
4117+279561920+279747131+280102727+280811245+282000196+283487292+284606767
4107+284813168+284380620+283893636+283393980+282698287+282113346+282187529
4097+282978994+283877366+284163609+283739704+283078888+282393007+281462096
4087+280427384+279905338+280180139+281025704+282177226+283341634+284061500
4077+284106557+283750930+283442358+283367714+283328839+283101463+282876547
4067+282964016+283134833+282838072+282056909+281281868+280858270+281091090
4057+282455872+284776230+286725737+287133772+286338585+285410288+284670554
4047+283794172+282915391+282789170+283744471+285005360+285448887+284883198
4037+284065344+283609300+283522877+283674717+284020749+284305792+284131500
4027+283544037+283185795+283547635+284274637+284601261+284274544+283645100
4017+283183519+283266713+284006017+285011388+285654888+285688073+285441198
4007+285400231+285657533+285851785+285742726+285580428+285629022+285699576
3997+285528451+285234766+285107161+285217235+285355697+285295170+285200689
3987+285558315+286439033+287229914+287399931+287111351+286833044+286790539
3977+286984546+287331469+287587572+287525537+287334822+287399716+287642255
3967+287684237+287626108+287887931+288432306+288887674+289151219+289237334
3957+288913631+288089165+287290657+287318952+288411546+289801731+290288316
3947+289437769+287995914+287049533+287086562+287781055+288545671+289117295
3937+289414149+289305919+288965332+289019308+289859213+291108692+292112309
3927+292559066+292470520+291982059+291172479+290171690+289477167+289747417
3917+291015625+292272946+292373209+291381432+290483460+290469343+290663842
3907+289899073+288316849+287412449+288200070+290057433+291810104+292920106
3897+293303167+293136441+293005822+293546598+294544126+294850791+294053512
3887+293103379+292833929+292877755+292511548+292056980+292210850+292690023
3878+292661297+292042525+291401301+291199175+291747240+293120756+294490365
3868+294663335+293667560+292650564+292553345+293220250+293633637+293016709
3858+291751453+291464965+294039488+298711268+301004531+299503257+297000025
3848+295574778+295295886+295195069+294579126+293717599+293484041+294470282
3838+296297689+297961384+299108631+299998391+300565802+300499524+299899051
3828+299120872+298130141+296887767+296276314+297428420+299664539+301062013
3818+301539618+302112072+302409971+301478076+299868787+299018948+299857715
3808+302057235+303963899+304517901+304699267+305720507+306970078+307260288
3798+306899063+306610883+306542482+306669165+307083166+307854425+309029198
3788+310715130+312900471+315128101+316806467+318163098+320264292+323686163
3778+327714597+331306117+334012612+335881017+337503376+339889706+343436599
3768+347511997+351610062+355865534+360294745+364571992+368683804+373239544
3758+378619995+384242832+389573091+395464116+403523814+413115419+420330967
3748+423287014+424695529+428191399+433978440+438448402+439837449+439883767
3738+441065429+444781447+450572241+456494484+460658581+462594002+463394171
3728+464538465+466559233+468856002+470819503+472300848+473032924+472621322
3718+470866959+468065121+465580189+465684727+469603917+475381701+479768408
3708+481971925+483018939+483763656+484615341+485540993+486036713+485945491
3698+486168039+488045547+491962554+496818222+501225842+504889361+507903444
3688+509186784+508203249+506262415+504812164+504659647+505926994+507819911
3678+508979060+508641517+507767750+508007613+510084510+514118972+518858507
3668+521446963+520517466+517823642+516239481+516850164+518460898+519971123
3658+521418790+522490255+522410229+522014650+523940937+529909313+537395357
3648+540581886+537892060+533375411+530698195+530635146+532239298+534367034
3638+536298672+537675417+538228773+537619627+535897619+534163555+534277105
3628+536575842+538953560+540282757+541524792+543924469+547536841+551050180
3618+553277441+554496533+555179185+554900293+553760243+553532037+555825176
3608+559601783+562130142+562379816+561787771+562190792+563971174+566460228
3598+569757108+574513405+579814630+582910553+582390599+580315209+579739463
3588+581397807+583597450+585033492+585980458+586998407+588220759+589579481
3578+590358952+589040766+585224792+581262544+580172626+582681178+587482317
3568+592978901+597672149+600176703+600351149+599661423+599315361+599397171
3558+599922908+600866860+601808289+602568015+603694102+605827435+608550723
3548+610393232+610303179+608829246+607542123+607738652+609610316+611827551
3538+612595643+611633606+610232749+609562399+609651529+609628401+608873227
3528+608132016+608581049+609931221+610649303+609865035+608449722+608070813
3518+609090362+609565106+607545445+604301033+602975650+604341877+606262443
3508+607076299+607140455+606963856+606381283+605951688+607124646+610310007
3498+614109373+616954269+618530434+619309166+620065755+621834511+624942368
3488+628048194+629013860+627018434+623518382+620798477+619700808+619085634
3478+617879398+616541590+615639466+614851384+614534539+615605573+617061975
3468+616422689+613255166+610088013+608957190+609327180+609940017+610379822
3458+610507028+609897267+608312306+606426247+605558324+606331090+607650875
3448+607693749+606269886+604725584+603389867+601521524+599578937+598914123
3438+599156970+598591558+597353090+597326333+598923042+600773055+602190151
3428+603255773+603066564+600890603+598304239+597405867+597945936+598309775
3418+598320970+599120370+600710683+601260347+599169149+595378886+592950606
3408+593756711+596323023+597814179+597213398+595545582+594277343+594431859
3398+595916618+597015270+595498341+591050585+586428075+585250995+588226049
3388+592142533+593500209+592353209+590739953+589206354+587297906+585714360
3378+585657216+586838478+587621517+586875692+585143043+584003732+584577878
3368+586477715+587825057+586844506+583947449+581646559+582046443+584802086
3358+588062245+590792053+592750510+593519155+592972566+591585425+590033127
3348+588700424+587912219+588425346+590744628+594073002+596677512+597838537
3338+598288492+598576795+598321216+597178091+595829579+595506584+596574911
3328+597819161+597768045+596814190+596645280+597517202+597980013+597565550
3318+597350691+597523415+597257194+597001184+598222860+601074891+604254654
3308+606540351+607265323+606281019+604203661+602249756+601672411+603044912
3298+605690450+608114424+609209632+608926557+607930997+606903759+606045923
3288+605208201+604739117+605604580+607882465+609917135+610323109+610142635
3278+611227017+613204850+613872001+612373464+610259998+609259210+609623603
3268+610412608+610455727+609523340+608792524+609586143+611807991+613775736
3258+613805446+612286918+611358713+612161496+613604981+614459126+615269291
3248+616753189+617628371+616304341+613793267+612726662+613748179+614676753
3238+613795481+612077718+610989768+610193874+608679282+606877802+606314235
3228+607618520+609909015+612070705+613814365+615065381+615386532+614611367
3218+612916608+610185447+606298489+601857006+597996560+595767084+595925598
3208+598390047+601643931+603646554+603818170+603386668+603256449+602759561
3198+601208862+599408428+598394599+597835708+597055683+596248594+596037795
3188+596861800+598551330+600142995+600491579+599097427+596286854+593292916
3178+591610645+591188493+590266501+587810110+584785294+582589342+581822973
3168+582418402+583530587+583640815+581804766+578716593+576170764+575577181
3158+576938487+579110203+580862167+581482631+580868687+579719841+579077664
3148+579066407+578718930+577405172+575635986+574001139+572440106+570955040
3138+569945886+569606775+569913962+571090918+572982513+574310110+573897062
3128+572310502+571056472+570538117+569767381+568126014+566401300+565403772
3118+564567218+563015351+561259389+560525682+561060461+562170248+563336071
3108+564429987+565231540+565505819+565390424+565189528+564807051+563941034
3098+562772812+561688184+560467985+558762524+557023969+555859807+555184475
3088+554805197+554848378+555249739+555828129+556733944+557916498+558568825
3078+557965030+556521914+555315679+554825003+554766814+554921022+555314571
3068+555442638+554434161+552468261+550679882+549435202+548109019+546517292
3058+545324958+545029765+545408429+545888524+545966643+545434386+544518361
3048+543665569+543087732+542644851+542077471+541284222+540502782+540046553
3038+539939647+539975385+539922362+539634305+539103217+538420503+537603757
3028+536565693+535345248+534203230+533423697+533168610+533479427+534250778
3018+535194114+535904570+535998620+535286935+533999135+532750149+532109386
3008+532212110+532634508+532593849+531661584+530295727+529267996+528800080
2998+528601091+528285354+527461841+526026291+524505733+523442941+522692627
2988+522017295+521693930+521825749+521784659+521083123+520103618+519381968
2978+518846143+518104133+517170084+516651914+517038819+517899547+518260802
2968+517704433+516419216+514635574+512882534+512079074+512506977+513398368
2958+514080651+514620197+515025648+514822753+513762145+512371868+511528087
2948+511528702+511693183+511219546+510300353+509657960+509233932+508365854
2938+506942453+505575980+504945398+505301056+506144529+506401123+505538981
2928+504257548+503508710+503324268+502997244+501972589+500373358+498908836
2918+498194813+498124998+498157445+498006897+497671445+497153951+496522784
2908+495864029+495151944+494590192+494681352+495368863+495631393+494563742
2898+492485922+490496925+489203497+488276092+487245132+486395231+486448469
2888+487463036+488575375+488952070+488563503+487938979+487568343+487603312
2878+487878606+488121729+488142397+487885218+487420562+486806772+485943585
2868+484808948+483779219+483306566+483308227+483233644+482669125+481570134
2858+480143411+478986384+478964886+480237861+481644624+481765186+480451306
2848+478708876+477396564+476625490+476074748+475399693+474502367+473636350
2838+473135156+473063772+473165420+472981931+472130677+470731142+469431440
2828+468774530+468613125+468371416+467855122+467471137+467536985+467768360
2818+467684089+467137101+466266101+465336758+464652753+464226880+463736420
2808+463097594+462674366+462653760+462676027+462243172+461281259+460336908
2798+460111407+460586028+460953343+460683154+460045221+459346453+458503841
2788+457606546+457054913+456884557+456600590+455867622+454870586+453912395
2778+453142673+452693856+452573940+452447565+452013665+451446623+450996699
2768+450500273+449787172+449146471+448936564+449067614+449108334+448702329
2758+447850460+446870339+446036862+445311336+444438676+443234285+441891095
2748+441026985+441102982+441771025+442168634+441852650+441147916+440630298
2738+440479842+440361525+439909017+439152337+438308064+437445737+436688195
2728+436421237+436875589+437632424+437893324+437311058+436265305+435222720
2718+434295130+433602852+433440739+433758199+433939565+433440339+432401414
2708+431447159+431016426+430992499+430987793+430864002+430739872+430574283
2698+430118085+429305091+428410471+427752147+427362319+427048304+426689109
2688+426245644+425604081+424820274+424376747+424683288+425439539+425915482
2678+425717323+424985893+424073620+423288920+422811716+422665534+422706409
2668+422665319+422339309+421788753+421239826+420812077+420467030+420186877
2658+420029439+419935265+419626048+418900922+417974716+417292280+417016002
2648+416883968+416592681+416176896+415897696+415804476+415659863+415403023
2638+415328809+415535241+415535333+414797598+413486824+412343945+411943506
2628+412311651+413103547+413814556+413965412+413486424+412817551+412365320
2618+412142249+412098361+412315127+412666540+412787072+412535645+412090918
2608+411627338+411201527+410820803+410410738+409867747+409250666+408772447
2598+408569122+408589082+408688054+408735663+408632509+408345098+408013613
2588+407916672+408189751+408648040+408980724+409046910+408893532+408584038
2578+408152260+407660231+407161805+406639175+406074040+405560021+405259508
2568+405218603+405275163+405241516+405140361+405098164+405071653+404954781
2558+404871649+405034531+405380501+405622517+405587609+405327970+404994272
2548+404732080+404629848+404626434+404471118+403956177+403273617+402927985
2538+403214043+403941722+404659589+404978955+404760098+404197762+403678330
2528+403431486+403378801+403354535+403330207+403290779+403063033+402573404
2518+402179424+402345689+403042119+403824327+404386571+404690560+404748380
2508+404621667+404474655+404382081+404190412+403696784+402899998+402030966
2498+401419883+401343732+401830594+402525148+402959325+403070507+403192637
2488+403498410+403786313+403821836+403611222+403385106+403416262+403721696
2478+404010860+404058716+403906814+403599350+403103661+402614370+402527024
2468+402951206+403553370+403975337+404134406+404074770+403849455+403632012
2458+403665351+403958207+404161563+403891436+403206970+402637283+402623351
2448+403060911+403501947+403630936+403411710+403010195+402693104+402598715
2438+402612863+402591273+402586782+402780327+403268081+403903369+404360552
2428+404452080+404274405+403950241+403477281+402969382+402766733+403133525
2418+403944889+404720823+405022413+404881429+404758806+405011987+405510628
2408+405861826+405935486+406008777+406367787+406950422+407472899+407722142
2398+407654541+407415078+407298330+407507160+407957054+408398120+408616547
2388+408490818+407989409+407105338+405681967+403343309+399708609+394710788
2378+388686006+382157693+375585429+369282063+363377597+357817871+352568869
2368+347785845+343690302+340513492+338605966+338221674+339192107+341215581
2358+344335248+348789401+354834574+362838266+372387121+381169883+386161461
2348+385900222+381355739+375383396+370904607+368836168+368285765+368254948
2338+368475958+369133698+370168256+371134505+371879714+372908521+374697730
2328+376947381+378868870+380106630+381144910+382748724+385177280+388049795
2318+390773452+393008802+394908639+396934266+399334128+401915541+404372239
2308+406563270+408389816+409734975+410695012+411658186+412953029+414450121
2298+415669459+416299303+416487128+416674983+417281761+418422734+419807106
2288+421021062+421921217+422595319+423061236+423230915+423059268+422600702
2278+422036674+421661886+421670744+421904394+421928691+421473908+420740509
2268+420113217+419688113+419382156+419327595+419662216+420089228+420214618
2258+420189952+420464139+421037454+421470309+421557594+421581214+421873854
2248+422433268+423025222+423446174+423634429+423717838+423943308+424338487
2238+424518192+424105790+423270252+422544757+422185962+421976239+421628024
2228+421138702+420679982+420337056+420105805+420013938+420038542+420030638
2218+419922563+419827835+419793543+419722713+419647269+419759435+420107742
2208+420546779+420952231+421262616+421452348+421602866+421797918+421952650
2198+422020804+422254701+422924251+423923440+424931732+425789476+426498424
2188+427029882+427328980+427424661+427434595+427482389+427630047+427885442
2178+428247374+428702096+429190465+429632515+429976609+430199957+430278014
2168+430200541+430061618+430076196+430403067+430979766+431601983+432073005
2158+432229675+432039082+431744504+431682962+431935097+432337227+432738188
2148+433074163+433333217+433548322+433715541+433766287+433719662+433717847
2138+433857970+434144520+434545328+434963727+435316064+435697157+436265090
2128+437001288+437774023+438489460+439036173+439306914+439385895+439510609
2118+439824778+440315822+440924045+441584000+442212983+442739274+443163947
2108+443600647+444176976+444824229+445274060+445398805+445445954+445757539
2098+446338021+446864096+447066806+446948489+446681100+446453016+446394457
2088+446556570+446944952+447514424+448077221+448358819+448279070+448076944
2078+448073776+448380441+448830980+449121990+449037781+448622364+448203073
2068+448238626+448972425+450130590+451112494+451587453+451748797+451949847
2058+452281208+452570957+452709111+452849418+453188807+453670532+454125100
2048+454576593+455140282+455766867+456343658+456896552+457526950+458281078
2038+459162258+460166614+461248566+462304991+463254756+464115883+464947146
2028+465786406+466753762+468052265+469665736+471240486+472503835+473601842
2018+474816536+476197033+477665153+479213576+480766951+482088336+483079528
2008+484030615+485326012+486980695+488654201+490072405+491277441+492432746
1998+493469211+494115663+494393602+494807142+495782003+497196209+498736697
1988+500320274+501841140+502992231+503731565+504569841+506086216+508370529
1978+511067583+513758885+516157732+518089493+519564595+520930698+522678356
1968+524929177+527288872+529349437+531122438+532836511+534615047+536542810
1958+538797690+541454423+544276744+546874919+549038393+550893511+552771942
1948+554916717+557351394+560062257+563059270+566064526+568495881+570132634
1938+571481330+573262820+575752672+578660433+581545065+584246148+586837002
1928+589305203+591537508+593484278+595136532+596649463+598529616+601087254
1918+603723627+605543253+606608259+607636174+608894940+610250095+611720214
1908+613310649+614672755+615444906+615743727+616086960+616887099+618042465
1898+619094799+619847943+620649927+621905741+623421932+624441666+624468731
1888+624010226+624074259+624938554+625952013+626529358+626871607+627471403
1878+628306357+628849748+628720943+628038106+627102274+626041266+624995636
1868+624330085+624203617+624219180+623875393+623087926+622111004+621084074
1858+619864613+618360232+616816853+615608895+614822781+614191983+613447266
1848+612572883+611577877+610202362+608300680+606410316+605135003+604317395
1838+603420992+602275098+601143414+600255807+599598497+598980801+598103097
1828+596848636+595474967+594236499+593045272+591766391+590622159+589940922
1818+589642408+589273217+588554212+587616104+586682916+585848085+585260468
1808+585198465+585666627+586202759+586427152+586552389+586991088+587708493
1798+588386225+588949422+589584218+590480375+591598035+592608850+593323241
1788+593972923+594794898+595722796+596686308+597956208+599839991+602051813
1778+603787599+604734011+605670028+607648169+610443363+612491627+613274050
1768+613900296+615101488+616544973+617787931+618765530+619503542+620097925
1758+620841289+621988535+623635069+625908771+628755820+631427808+632999482
1748+633592881+633954444+634349839+634839714+635847761+637719241+639970061
1738+641769696+643201678+645096717+647552124+649404597+650237275+650956957
1728+652166576+653594929+654724337+655448263+656115599+657146773+658762982
1718+661041298+663784761+666267171+667866956+668703263+669284729+670060755
1708+671400040+673391160+675342851+676470413+677301062+679223719+682306848
1698+684709478+685600100+685952129+686886854+688827165+691658959+694834724
1688+697673961+700327310+703574059+706894683+708435971+708232861+707987308
1678+709134493+712361620+716990773+720901105+722872357+723826396+725023467
1668+726561679+727984066+729455538+731437369+733874507+736040380+737243971
1658+737505825+737572134+738635663+741637782+745183045+746521530+746137208
1648+745825346+746253341+746667681+746378271+745981031+746166118+746733498
1638+746984464+746708155+746542813+746957707+747544463+747911931+747997001
1628+747676281+746831855+745832912+745470426+746198535+747702854+749510978
1618+751419488+752894220+752983903+751831305+750821475+751048144+752462596
1608+754171194+755525549+756667997+758168442+760473207+763435959+766367093
1598+768739398+770611862+772142140+773282805+774473540+776734017+780436810
1588+784754347+788902175+793026751+797062566+799977831+801336738+802490505
1578+805110823+809061568+812084539+812607016+811157319+808585225+805606481
1568+802966909+800725808+798389610+795865926+793481688+791392704+789488193
1558+787622925+785670742+783529105+781512581+780369086+780386433+780950183
1548+781464356+782135382+783326056+784828837+786482691+788836788+791890515
1538+794175904+794915823+794531685+793636758+793036531+793372137+794599778
1528+796572691+799202420+801805331+803492585+804506167+806285257+809706452
1518+814182934+818587018+821971921+824255404+826510345+829929326+834649331
1508+839775802+844214578+847643831+850383850+852326745+853386030+854506950
1498+857517803+863008237+868676992+872004813+873259396+874531695+877479315
1488+881604137+885111878+887475879+889989352+894030765+899473897+905059427
1478+909652965+912741815+914929463+918581079+926266911+937230248+947923550
1468+956338968+962696218+967725563+971737205+974539535+976012053+976610742
1458+977324088+978541150+978851597+977277155+974773647+972304708+969447694
1448+965518047+961520430+959111465+958331748+957612620+955392309+951822626
1438+949427562+951340501+956863043+961339157+962642519+962631508+963502139
1428+965399269+967228798+968546677+969558476+970025408+969397378+967943313
1418+966864283+966542886+965942106+964471679+963223308+964106179+967650335
1408+972008531+975099841+976879915+978190659+978822134+978042171+975959830
1398+973507068+971767714+971950833+974779982+978886474+981447496+981195176
1388+979275595+977463534+976736717+977369976+979559961+983620135+989457369
1378+995795551+1000438790+1001974788+1001081952+999706191+999375691+1000590600
1368+1002841543+1005091195+1007118421+1009668432+1012722036+1015063585
1360+1016679547+1019448784+1023953931+1028154227+1030619660+1032506149
1351+1034764228+1036425401+1036749442+1036571428+1036868159+1037655011
1342+1038396468+1038684217+1038623813+1038905904+1040285355+1042689708
1334+1044669140+1044673446+1043826682+1044701618+1047558939+1050257684
1325+1051241864+1051513129+1053402878+1058205924+1064480318+1068411134
1317+1067818411+1064657471+1061859077+1060383668+1060514441+1063076385
1308+1067751979+1071941142+1072896535+1071295274+1070744748+1072628469
1300+1073741823+1070731339+1065127171+1061291821+1061183438+1062599550
1291+1061367848+1055433734+1047309449+1041699253+1040629080+1041667636
1283+1040446761+1034727075+1026090955+1018205642+1013798298+1012916411
1274+1013325400+1012639980+1010310979+1006971286+1002960937+998761071+995762151
1264+994901977+994787136+992537915+986872604+979460989+972966630+968435649
1254+964827214+960619598+955262151+949134276+942825374+936933887+931949321
1244+927434272+921900473+914606898+906610557+899081886+891992774+885145402
1234+878980128+873818226+869439547+865511930+861769277+858226290+855653704
1224+854791563+854912248+854312697+852308968+849972463+848836288+849381340
1214+850862039+852324530+853578007+855128952+857297777+859777481+862265304
1204+865107370+868784944+873158764+877932899+883239906+888848749+893788227
1194+897705694+901305825+904919920+908207635+911139815+913541892+914173489
1184+912469812+910594211+911653927+916570891+923961407+932241931+940511259
1174+948015017+954753884+962373714+972119190+981812565+987149467+986642921
1164+983709511+983146867+986673800+992247336+996992991+999868950+1001024808
1154+1000609976+999779328+1000489906+1003399266+1007285855+1009844847
1145+1009371148+1007163940+1006998105+1010548781+1015123682+1017241207
1137+1016717561+1015512556+1015262082+1017385143+1022925709+1030963201
1128+1036673414+1034206689+1024506486+1014870440+1011641713+1016626525
1120+1027012271+1036644012+1040426462+1039418785+1038754094+1041131996
1111+1045190756+1048828778+1051664816+1054162542+1055416757+1053651753
1103+1049396527+1045555025+1044315204+1045522178+1047440468+1046853528
1094+1041538463+1033539784+1027346461+1025527204+1027136770+1029137177
1085+1028777644+1025581703+1021439596+1018477829+1017649149+1018999568
1077+1022181115+1025601264+1025568970+1019159128+1008884102+1000846302
1068+998296169+999056694+998711800+995309612+990035329+985840015+985483065
1058+989503995+995903626+1001953567+1005199824+1003479661+996459319+987380257
1048+981265668+980142042+981271266+981725527+982758239+986838097+992848977
1038+996823773+997090794+996539161+997352217+996892974+992954838+988074719
1028+984799367+982565832+981169772+982798898+987950159+993709520+997911539
1018+1000342279+999776068+995476923+990389203+988025449+988314182+988972968
1008+988353304+985030158+978179341+969604240+962471763+957812962+953576435
998+947391970+939102774+930062156+921035624+912291983+905103469+901176098
988+900452787+900633261+899439328+896609195+893070144+889455127+886061551
978+883276690+881174789+879127878+876479757+873291075+869901989+866328984
968+862551577+858692730+855015894+851998951+849856514+848027231+845858959
958+843837637+843235442+844355992+846194256+848113100+850678181+854374947
948+858640691+862915232+867829305+874329446+882243670+890493191+897974929
938+903780608+907646345+910929693+915802800+922673915+929640312+934974138
928+939020226+943243097+948450394+953969554+957498147+956365356+950582375
918+943552006+938756711+937132814+937779666+939183846+939399689+937450766
908+935192257+935428091+937951467+940093105+940710986+940980897+941719340
898+942410296+942781701+943465460+944649490+946083133+949222114+956574986
888+967402998+976436419+979165489+976317579+971573892+968585245+969635119
878+973376972+975494497+974999762+975538293+978560465+980804088+979255050
868+975089815+971370106+969603810+969920962+972259681+975361079+976278089
858+973465979+969436930+968369525+971988663+978268532+983447842+985567766
848+985416817+984056557+982090903+981141846+982788257+985751685+987448350
838+987887294+988952792+991782310+996032800+1000616127+1004830817+1008585342
828+1011567961+1013900223+1016167466+1016905909+1014243824+1010362710
820+1010063888+1015296344+1022486826+1026395313+1025736773+1023193159
811+1021641661+1022599576+1027347569+1034459870+1039118241+1040741523
803+1041959938+1042710991+1041938040+1041019677+1041719060+1042117284
794+1037941038+1029186632+1020947014+1016347879+1013375593+1008960130
785+1004141768+1002033224+1002797317+1003186437+1000001630+993440223+985463689
776+976775838+967871468+960937734+958334454+959941313+963455452+966876339
766+969417861+970630248+970297226+969947719+971305088+973632182+975146405
756+975533065+977418077+983843482+992944935+998500509+996880610+990252525
746+982946771+979063012+981357320+989314909+998876650+1005375992+1007533499
736+1008257364+1010951434+1015423241+1019132124+1020166990+1017149493
727+1009540796+999487088+990951724+986926796+988165879+993596093+1000919808
717+1007534053+1011630334+1012171448+1009299303+1004245845+998266274+992740840
707+988687802+985776474+984567224+986662236+992462933+999251869+1001177356
697+995533083+987333631+982147494+981529121+985132635+988762784+985447081
687+974593972+963114618+955961350+952935365+952945330+956268783+962385156
677+967514764+968918943+968812406+967265521+959496710+945219577+936298783
667+943495847+957655924+967210899+972693336+975528944+972713266+963698421
657+952651675+943907357+942135463+949629627+959656762+961159728+955474488
647+952924293+953997664+951129333+944910544+942462888+944131258+945173013
637+947033359+956959432+974759253+986301226+982713028+971560544+960510969
627+947643797+931210325+918122082+914861739+919731093+928622300+938150087
617+943803157+945436035+945554075+941879454+929922402+913293448+903047763
607+903623447+907082471+906206551+901008111+897409087+902008653
##END=
