##TITLE=<SNM>
##JCAMP-DX=4.24
##DATA TYPE=INFRARED SPECTRUM
##DATE=29/4/2025
##SAMPLING PROCEDURE=Instrument type and / or accessory
##ORIGIN=Admin
##XUNITS=1/CM
##YUNITS=ABSORBANCE
##RESOLUTION=4
##FIRSTX=4497.3318
##LASTX=599.83466
##DELTAX=-1.4281778
##MAXY=2.2321749
##MINY=0.65881902
##XFACTOR=1
##YFACTOR=2.0788749e-09
##NPOINTS=2730
##FIRSTY=0.67809391
##XYDATA=(X++(Y..Y))
4497+326183132+325102041+322840111+320009422+318083035+317927062+319139784
4487+320963412+323049127+325118441+326611055+327011655+326246324+324845717
4477+323739682+323584253+324083368+324288972+323694782+322643768+321711970
4467+321195938+321293594+322276427+324134375+326100099+326876182+325913762
4457+324189052+322984587+322404618+322010728+322138718+323201573+324442279
4447+324874360+324802595+325029846+325232009+324416733+322560849+320701726
4437+319621438+319224050+319062256+318982119+319309119+320515218+322724851
4427+325598203+328496241+330573068+330992619+329808110+328336913+327641799
4417+327160632+325815677+323887599+322536278+322059183+321833423+321633410
4407+321972623+323038805+324142718+324617434+324606195+324449762+324042626
4397+323477796+323469051+324352336+325379525+325638859+325135443+324389007
4387+323591851+322662949+321660074+320766409+320148881+320139390+321080621
4377+322481630+323011624+322078249+320661701+320013924+320425476+321448593
4367+322595255+323714078+324792531+325389961+324743962+322805303+320593720
4357+319278698+319453509+321035005+323247448+324820113+324667695+322828470
4347+320901539+320798149+322586568+324250438+324042425+322300540+320419713
4337+319162836+318525954+318488366+319288676+320832096+322178743+322337268
4327+321450944+320606336+320681427+321518752+322170830+321903869+320872408
4317+319902362+319719266+320330945+321126439+321603964+321852461+322283194
4307+323133966+324116713+324461317+323809899+323056008+323536773+325317279
4297+326853101+326662062+324870690+322779040+321448076+321029529+321155426
4287+321544413+321970473+322040546+321731352+321744397+322551732+323545374
4277+323851759+323627175+323845451+324908995+325908143+325580312+323946318
4267+322410696+322129743+322870847+323726923+324322002+324781063+324935631
4257+324311737+322976817+321798472+321507283+321969957+322740764+323564527
4247+324032333+323676920+322664268+321660476+321070185+321023020+321719052
4237+323020828+324111896+324231543+323749316+323982559+325547655+327320247
4227+327771739+327069571+326531119+326348080+325544587+323904658+322479881
4217+322267568+323172673+324080186+323948440+323091475+322670146+323021831
4207+323560312+323888516+323963779+323667974+323160975+323098757+323884617
4197+325105367+325865336+325522711+324294534+323146409+322770668+322823911
4187+322514115+321697175+321027378+321191064+322076730+322733080+322522372
4177+322040145+322238151+322969305+323126282+322035873+320176061+318627824
4167+318127734+318607869+319454225+320156106+320558655+320624944+320445804
4157+320416903+320773778+320920319+320151461+319038631+318871217+319834525
4147+320882415+321071360+320242608+318829156+317528126+316911342+317142923
4137+318087308+319404050+320671793+321766474+322810493+323772998+324718559
4127+326195547+328370258+329981286+329402378+326845188+324260731+322990092
4117+322801003+323283287+324662764+326645834+327853682+327372659+325885636
4107+324466048+323298856+322199501+321391937+321094928+320930468+320364176
4097+319560998+319260119+319702407+320321828+320692752+321040051+321601699
4087+322221464+322718429+322984415+322772245+321991919+321092491+320758410
4077+321303314+322518960+323930463+325058518+325534523+325222204+324332725
4067+323350752+322814450+323065785+323903253+324362859+323482039+321543237
4057+319856058+319323168+319821451+320632628+320891016+320184261+319182792
4047+318956114+319537889+320125886+320431497+320699490+320877569+320758123
4037+320387170+319952710+319852302+320650605+322321814+323987863+324858533
4027+324862347+324303050+323583995+323113408+323086314+323449898+323862052
4017+323610516+322314130+320763141+320135921+320513182+321002491+321046932
4007+320806894+320636355+320926254+322013165+323665422+325030677+325517521
3997+325379295+325092895+324640973+323883384+323229328+323256709+323830198
3987+324213021+323941960+323171526+322342802+321804837+321661192+321797497
3977+322084901+322532952+323126970+323701893+324144123+324499651+324736593
3967+324738772+324609062+324626895+324818020+324806752+324207602+323102456
3957+322171489+322147463+322904048+323512890+323556614+323662297+324253276
3947+324775959+324713885+324331091+323946605+323524817+323266027+323555266
3937+324268042+325037071+325901405+326864484+327323802+326864340+325997914
3927+325301395+324600948+323537547+322426064+322072228+322946740+324748320
3917+326569912+327551914+327454688+326547491+325192271+323685808+322347562
3907+321659615+322252487+324486577+327719470+330219633+330491096+328715607
3897+326468787+325119875+324986437+325620595+326213266+326221093+326070940
3887+326568736+327528632+327816294+327219266+326749625+326664213+326238210
3878+325542121+325397473+325896330+326633133+327849553+329665268+330929857
3868+330983415+330936050+331681253+332464590+332081824+330396393+328104673
3858+326167649+325846814+328259356+332245969+333951212+332400423+329914367
3848+328174030+327463232+327428712+327742694+328390873+329545162+330997006
3838+331965876+332068950+331746739+331213734+330314364+329381763+329071852
3828+329482744+330234686+331275263+332881790+334547237+334783920+333579513
3818+332998483+333983152+334801926+333704091+331409848+329635736+329355815
3808+330302379+331294588+331854028+332942058+335095695+336861435+336888329
3798+335985977+335121672+334204038+333249818+332947849+333686315+335060429
3788+336675729+338626458+340762750+342424612+343589854+345266053+348025664
3778+351147542+353941817+356885415+360884098+365939415+370641871+373599231
3768+375453766+377580109+379698394+380779686+381067979+381647862+382918529
3758+384362144+385577131+387079350+390081667+395240460+400756845+403720656
3748+404874314+407328144+412122033+416842839+419406222+421476540+425549626
3738+432453659+440565253+446843642+450250200+452604711+455500885+458517653
3728+460146514+459647915+458473498+459104646+461944108+464555000+464564577
3718+462372060+460043411+459001744+459390616+460463479+461208653+460981775
3708+459846839+458736130+458993744+461096031+463813610+465425728+465820822
3698+466116598+466839122+467784941+469305022+472550990+477597706+481692668
3688+481985004+479880452+478511126+478779778+479343232+478687226+477305571
3678+477111493+478411692+478904958+477456699+476031664+476320932+477626435
3668+478074801+477140107+475909150+475346900+475201191+474821293+474576609
3658+475400746+477204561+478811690+479687865+480588067+482180888+483446337
3648+482250101+478506194+474423302+471927899+471441285+472093994+472706620
3638+472867209+472986770+473363400+473722425+474094497+475623811+479223098
3628+482857251+483344897+481125372+479250939+479910012+482809025+485651641
3618+486365048+485049366+483703923+484206651+486208100+487592479+487556639
3608+487805222+489653564+492004635+493168300+493159756+493243419+494015947
3598+495241198+496663538+497866828+498341170+497999348+497184329+496894517
3588+498569626+502134135+505180204+505731444+504235877+502532211+501984928
3578+502703610+503932188+504721631+504677592+504399190+504909545+506548642
3568+508287230+508664376+507484024+505693541+504182777+503427109+503834131
3558+505539689+507701756+508891340+508888588+508960898+509827697+510718523
3548+510720358+510006837+509293660+508734965+507928720+506772854+505874458
3538+505772904+505842403+504813896+502544769+500352769+499564243+500556452
3528+502906375+505327290+505920218+503893825+500583575+497874282+496339091
3518+495570635+495478886+496401136+498223330+500075400+501002181+500724181
3508+499647907+498143566+496153127+493739897+491798945+491503799+492929924
3498+494958038+496657173+498070224+499440038+500454324+500675898+500135840
3488+499043452+497786605+497054332+496936091+496438811+494811010+492979239
3478+492601348+493886179+495181963+495041128+494171003+494327664+495551482
3468+495773859+493622056+490388991+488358583+488328880+489281522+489760165
3458+489302853+488550511+488055697+487430943+486062161+484176832+482649038
3448+482024571+482055479+482173090+482182666+482287776+482455505+482093440
3438+480927624+479877040+480151656+481694045+483319380+484158425+484020343
3428+482614059+479746154+476266169+473658316+472642481+472840373+473643292
3418+474654367+475460411+475569994+474603647+472691051+470776047+470184208
3408+471613257+474391018+476945427+478436780+479407113+480303358+480420653
3398+479091209+476889919+474856415+473469857+472834122+472866808+473198538
3388+473450791+473553464+473651005+473918912+474387119+474814354+474955849
3378+475019270+475571198+476787619+478038331+478609154+478732470+479374169
3368+480870281+482232038+482221544+481073821+480503428+481529412+482953530
3358+483086452+482556830+483544050+486494643+489547938+491104691+491221671
3348+490526270+489464733+488651607+488660151+489266154+489729831+489890564
3338+490125441+490281357+489713029+488475449+487566215+487814053+489072850
3328+490467608+491058931+490384690+488723802+487067788+486587654+487587375
3318+488942910+489192697+488112294+486497625+485048334+484198852+484158425
3308+484571239+484933647+485336827+485920007+486135560+485502893+484455176
3298+483720323+483401782+483219832+483351779+484403796+486347615+488087522
3288+488731257+488882700+489835285+491783519+493522222+493835717+492943629
3278+492217607+492602724+493736227+494574354+494551302+493879412+493000342
3268+492026712+490911158+489975661+489696342+490097458+490823480+491521805
3258+491795103+491306080+490195515+488947498+487776435+486505424+485058369
3248+483940865+483995742+485353285+486807393+486945475+485911406+485127295
3238+485335967+485919319+486026379+485431501+484260266+482769057+481480212
3228+480821855+480614473+480401988+480201402+480225916+480140331+479473717
3218+478366047+477291493+476597842+476440205+476505319+476137405+475356735
3208+474918203+474882879+474366447+473088927+471878498+471384401+471474430
3198+471883888+472389942+472523580+471935927+470728395+469117023+467377231
3188+466201782+466262279+467279891+468370816+469160260+469669811+469520948
3178+468298134+466433505+464879047+464121142+463968867+463979992+463645050
3168+462351101+459894520+457158304+455682778+456223037+457889372+458985974
3158+458599711+457117619+455441392+454169491+453462421+453180264+452913705
3148+452111531+450559595+448885805+448290067+449370011+451293358+452536042
3138+452471531+451640485+450566906+449337641+448195881+447474475+446922174
3128+445910210+444324585+442736638+441826057+441913821+442713127+443300723
3118+442765998+441178223+439553490+438735719+438727174+439084422+439431148
3108+439527456+439376328+439334181+439601170+439782948+439550967+439337134
3098+439665481+440211273+440143379+439100163+437455819+435917904+435026188
3088+434774538+434733366+434688064+434914943+435661838+436610896+436995267
3078+436252472+434692996+433433310+433305692+433900341+434071425+433313262
3068+432182913+431459959+431391118+431632218+431499526+430411611+428513638
3058+426801084+426221000+426713005+427525615+428248139+428856951+428931153
3048+427862907+426085298+425066080+425607314+426775881+426942091+425690518
3038+424217630+423799828+424408268+424999648+424846656+424232683+423870905
3028+424062001+424553833+424915325+424758520+423816199+422261540+420834268
3018+420226115+420393557+420724198+420754475+420480575+420049011+419435295
3008+418560754+417586523+416852673+416484329+416260519+415934093+415578307
2998+415566925+416104173+416750029+416742116+415980942+415228026+415060040
2988+415145366+414862435+414179678+413501366+412992273+412476529+411760083
2978+410809104+409819533+409159283+408984989+408992587+408830105+408605606
2968+408697613+409287101+410214828+411012815+411146769+410547131+409631963
2958+408608903+407379007+406247741+405934991+406608057+407460635+407543610
2948+406729853+405678409+405111170+405246730+405698536+405877619+405630298
2938+405323569+405220610+405143684+404868953+404448340+404063883+403902204
2928+404111134+404607496+404998978+404801087+403732468+402028430+400533894
2918+400067408+400545592+401142564+401367464+401440117+401555635+401478423
2908+401067272+400616153+400427408+400466545+400520906+400328893+399648745
2898+398574392+397553196+396829955+396280952+395947759+396124175+396720258
2888+397219918+397454308+397685343+397795586+397261921+396117868+395084142
2878+394578375+394350952+394107531+393811726+393419929+392928239+392590459
2868+392646111+392998313+393339533+393456513+393419384+393456944+393575357
2858+393535618+393324567+393248845+393394325+393432085+393176191+392949227
2848+393118475+393542729+393772274+393625791+393259912+392836634+392383594
2838+391831924+391117141+390428278+390161718+390324343+390340829+389789991
2828+388909515+388121104+387537866+387110029+386841921+386711809+386601022
2818+386426240+386254210+386170059+386093277+385860922+385450288+384990797
2808+384651727+384576005+384693042+384617034+384016508+383043939+382202313
2798+381884230+382129745+382716480+383355943+383778247+383795564+383472321
2788+383089785+382768147+382382256+381957715+381710251+381603564+381343455
2778+380862891+380422495+380199086+380040188+379697247+379179209+378697957
2768+378316825+377983547+377839959+378077503+378519648+378762869+378699046
2758+378515433+378293257+377966974+377549373+377098311+376575141+376000304
2748+375669463+375908326+376571356+377059375+376930238+376275179+375441696
2738+374636511+373873904+373135869+372487404+372044772+371883236+372007355
2728+372300207+372455894+372209003+371731477+371466265+371452761+371237093
2718+370615235+370020558+369915677+370134785+370153422+369854262+369624116
2708+369655339+369610640+369198371+368640823+368266688+368057012+367884696
2698+367824658+367956691+368109338+368007353+367624674+367267168+367200621
2688+367269777+367097776+366631920+366233413+366228769+366556083+366826256
2678+366709735+366343168+366204054+366486297+366873564+366997999+366789126
2668+366332072+365735904+365161010+364750175+364570834+364633739+364811704
2658+364832176+364567164+364202261+363950237+363797160+363655207+363532779
2648+363437446+363294346+363065146+362813094+362557171+362207492+361789145
2638+361584086+361831808+362401857+362947449+363241763+363252887+363082119
2628+362860172+362557028+362041398+361429919+361061059+361044458+361188991
2618+361344133+361455895+361406838+361140164+360829134+360699998+360777812
2608+360911651+360964894+360916439+360815802+360705216+360601797+360498780
2598+360365687+360208911+360087257+359997830+359850860+359636339+359499432
2588+359564861+359749993+359843577+359797215+359812124+359998920+360148643
2578+360102539+360089895+360331138+360587289+360514865+360228579+360099958
2568+360162434+360110452+359838359+359619910+359676164+359863848+359926209
2558+359808655+359612628+359454762+359412156+359425746+359337610+359157839
2548+359088740+359180031+359246291+359203513+359161136+359122114+358927463
2538+358544066+358120386+357771510+357572529+357654329+358012982+358364697
2528+358497675+358606886+358975975+359521911+359921965+360033928+360001328
2518+360027247+360140271+360211405+360211921+360303269+360555464+360782342
2508+360797395+360639328+360473492+360445623+360584336+360715480+360606958
2498+360270870+359953590+359833169+359879302+359964141+360014775+360062513
2488+360124759+360093479+359892548+359671318+359640410+359836467+360179063
2478+360523782+360596407+360230644+359709480+359513997+359754810+360128057
2468+360372281+360530892+360761957+361048558+361209520+361164707+360996662
2458+360727494+360311670+359880248+359672121+359701366+359770207+359756444
2448+359656151+359462990+359228686+359129024+359271292+359519416+359644596
2438+359573778+359376230+359093958+358758214+358512327+358521874+358783675
2428+359174124+359612197+360003737+360165301+360052679+359957031+360203463
2418+360722447+361145267+361272540+361260756+361381665+361731343+362185903
2408+362601755+362993639+363415226+363753980+363855162+363763413+363627137
2398+363529969+363622005+364187466+365371058+367062395+369256460+372373491
2388+377081882+383930263+393245290+405217829+419864480+436898730+455797292
2378+476065496+497355097+519232666+540891987+561245719+579291043+594283532
2368+605834282+614264418+620492403+624970962+626645096+623472528+615097041
2358+603358261+589321110+571939361+550331305+527223381+508409772+498295640
2348+498119654+506803991+520939486+535161225+545465278+551455518+554474579
2338+555625112+556114479+557663892+561229605+565594969+568337636+568483288
2328+566945172+564485436+560746546+555312936+548858503+542578450+536710752
2318+530567061+523953845+517493562+511564392+505788501+499452940+491986686
2308+483363477+474298753+465804680+458449615+452110441+446304760+440647110
2298+435109049+429926660+425239658+420885906+416635027+412539147+408888365
2288+405846023+403293478+401037253+399010143+397250883+395811139+394685980
2278+393793061+393069619+392531081+392109723+391551889+390676746+389666273
2268+388891595+388466453+388155108+387760014+387383957+387168203+386991615
2258+386630439+386051674+385387812+384763747+384251701+383889005+383703270
2248+383720846+383880375+384008594+384021439+384053666+384232290+384432475
2238+384420834+384164883+383849381+383624166+383489180+383412483+383382120
2228+383304133+383021546+382521399+382006400+381687428+381576756+381521191
2218+381365963+381051636+380636557+380286993+380146617+380132138+379982358
2208+379621985+379339225+379465638+379970086+380441877+380439584+379896314
2198+379204698+378833114+378895332+379200168+379638585+380307035+381242273
2188+382249736+383090043+383696590+384090824+384224405+384105504+383967909
2178+384066568+384378314+384708238+384990912+385298500+385649240+385967724
2168+386183908+386297418+386364768+386444131+386575562+386796132+387085830
2158+387297570+387277872+387074275+386910016+386972634+387297885+387758265
2148+388095414+388130967+388037755+388219562+388826109+389563370+390085566
2138+390380625+390632935+390890148+391056472+391122417+391242923+391574482
2128+392084435+392585213+393002212+393528594+394374148+395392276+396140088
2118+396400684+396494211+396876289+397562600+398235723+398775609+399288257
2108+399726761+399921928+399932737+400014365+400275076+400603108+400905048
2098+401250455+401696298+402045547+402020201+401702663+401487798+401559334
2088+401758143+401940609+402110660+402264483+402405031+402608542+402902340
2078+403239948+403666208+404260513+404847965+405048179+404770466+404466891
2068+404689755+405477106+406337913+406845515+407096735+407464764+408033293
2058+408512452+408697441+408730070+408826893+409029258+409343613+409879571
2048+410701356+411677681+412588233+413341378+414019806+414699953+415334369
2038+415924201+416678493+417781145+419059898+420126252+420866036+421578468
2028+422559438+423750857+424913203+425979155+427085162+428356001+429770457
2018+431194517+432529008+433807388+435067131+436218152+437236883+438376750
2008+439919683+441794060+443646445+445234421+446638526+448151726+449964430
1998+451887147+453503049+454691515+455767330+456991177+458259264+459423703
1988+460560159+461757599+462968257+464135506+465237499+466280485+467412009
1978+468872368+470738889+472847598+474923708+476751894+478419147+480331800
1968+482733275+485360797+487808834+489951405+491813624+493414990+494937279
1958+496744507+499074704+501798563+504492144+506766087+508613799+510433929
1948+512656723+515371291+518317010+521109566+523468607+525392241+527147630
1938+529053488+531274619+533766581+536346107+538881650+541438812+544085830
1928+546633473+548899388+551099531+553545275+556125890+558526448+560695798
1918+562728728+564613082+566375869+568231551+570331516+572399139+573837420
1908+574456096+574819021+575557773+576772473+578318273+580124067+581991620
1898+583544989+584587947+585279162+585950536+586821579+587804441+588595776
1888+589029922+589268011+589629731+590363093+591383974+592219177+592492475
1878+592386963+592392411+592716113+593132826+593408991+593778166+594731783
1868+596083706+596737361+595997863+594396784+592926505+592091015+591742369
1858+591552276+591386726+591182871+590779691+590112733+589331145+588555177
1848+587851978+587456081+587418693+587010352+585433759+583104078+581096034
1838+579900888+579160415+578297401+577240336+576374971+575944839+575724412
1828+575334536+574725895+574065875+573280389+572033576+570265972+568394176
1818+566760985+565252057+563816700+562901560+562795303+562967677+562649652
1808+561815079+561061590+560914046+561591039+562908556+564089998+564229972
1798+563352908+562473436+562544427+563759185+565437390+566442960+566398577
1788+566073670+566330568+567300642+568567754+569891751+571283183+572493640
1778+573224078+573868156+575373587+578208519+581553748+584043015+585511918
1768+586625063+587542210+588199822+588882034+589759786+590543036+591134531
1758+591944790+593272629+595089490+597408907+600244412+603085021+604954982
1748+605489249+605361259+605465222+606310690+607937344+609847387+611180043
1738+611863746+613239867+616529875+620565573+622437025+621985619+621281502
1728+621434781+622456464+624040512+625809434+627500657+629244577+631321662
1718+633553745+635150867+635635302+635499170+635478870+636000693+637268551
1708+639356932+641883415+643824998+644595862+645027484+646482911+649071038
1698+651298821+652254731+652293381+652206735+652747596+654342138+656904919
1688+659905630+662895962+665513965+667055120+667442072+667627061+668144411
1678+668974855+670086625+671426620+672862207+674511339+676555967+678527024
1668+679637934+680158266+681045021+682559167+684169650+685533730+686907271
1658+688349796+689598157+690895489+693158021+696204206+698210586+699013448
1648+699468810+699632066+699240355+698840788+699290760+700951762+703779354
1638+707544278+711437765+713827828+714481483+715550131+718467637+722765737
1628+727062060+730613266+734028568+738056009+742252211+745897574+749905059
1618+756050642+763909983+769956936+772722540+774381937+776450535+778497056
1608+779805225+780505787+780898703+780837747+780202098+779248309+778379903
1598+778235628+779736758+783147071+787435366+791239512+793671895+794143199
1588+793227199+793200936+795627928+799245079+801670466+802174971+801676716
1578+801354849+802153009+804275222+807189804+810830064+815315676+819594853
1568+822283388+824226577+827208250+831002877+833971075+835662182+837448078
1558+840048763+841715672+842300057+843346570+845132121+846528829+846717890
1548+846211320+845931772+845902126+845084125+842639471+839669438+838644830
1538+839864807+841343458+841999349+842094825+842357973+843251093+844615746
1528+845652167+845527732+844403060+843519230+844116402+846625854+850591077
1518+855189484+859315670+862091940+864391458+868022600+873360964+879182271
1508+883869846+885901974+885772550+886467263+889330752+892914184+894693600
1498+893932083+893043780+894395989+897511329+900608320+901999064+900928696
1488+899458990+900935577+905620859+910342668+912130055+911425766+911219560
1478+913414313+917208424+920834405+923844177+926471010+927813701+927453700
1468+926789437+927355586+928810956+928908210+926539134+923175269+920684052
1458+919770689+919503298+917885704+914556761+911382759+910539814+912798390
1448+916566181+918920634+917996319+914176346+909740335+907496898+908392541
1438+910196042+909511307+906389888+904037901+904027865+906090098+909338188
1428+912558695+915031505+916953820+918815352+920552678+921261727+920334946
1418+918628299+917127685+915316787+913024781+911830953+913061652+915635673
1408+917111400+916337496+914164534+912201791+911494750+912093241+913545285
1398+915316558+916875776+917698766+917410043+916206180+914864006+914051912
1388+913828159+914118028+915692443+919579278+925012888+929384674+931071825
1378+931004505+931055139+932673994+936680619+942264468+946789074+948466821
1368+948541539+949968639+954546173+961157898+966030348+965771960+961462792
1358+957540003+957019212+959621273+963197366+966171068+968182552+969181126
1348+969828072+971872700+976513140+982658035+988050472+992091217+996001448
1338+1000068226+1002647522+1002770007+1002309083+1004374699+1009346352
1330+1013020788+1011704304+1008415099+1008578298+1012593582+1016423532
1321+1017611912+1017896679+1019993031+1024447334+1029442269+1032842146
1312+1035031738+1038855954+1045694128+1053440159+1059643773+1064911776
1304+1070458238+1073741823+1071075136+1063570864+1056620641+1054249845
1295+1055911306+1058089888+1057446842+1053265033+1048465638+1046573428
1287+1047688524+1048852017+1047942325+1045405462+1042245624+1038718904
1278+1034936433+1030873899+1026126342+1020876460+1016950975+1016884572
1270+1020869578+1025353471+1026072554+1022690339+1018180413+1014002618
1261+1009474916+1004892049+1001678767+999586429+996185634+990165862+983377118
1251+978617061+976393637+974705797+971294796+965229149+957004417+947846540
1241+938515429+929155187+920174099+912007971+904259819+895979464+887070226
1231+878961958+873563328+871236743+869921405+867191812+862529181+856995507
1221+852000401+848223320+845191070+842243746+839477167+837385460+836336022
1211+836560693+837889621+839659002+841637514+844517689+848641696+852918465
1201+855923477+857629207+859287572+861690881+864174587+866051601+868434095
1191+872926073+878819403+883538804+886309913+889178391+893321091+897089284
1181+898660945+898572866+899138557+902095343+907595242+914917106+922546329
1171+927858027+929146815+928697646+931068041+937909942+946807940+954913341
1161+961221377+965330647+967540653+969675539+972446132+974084541+973777870
1151+973631989+975379350+978353397+981512089+984433838+986310107+986082110
1141+983597201+980311666+978443770+978518431+978919259+978460399+977922635
1131+978646535+980964576+984454596+988753156+993646249+998679833+1002770695
1121+1004803740+1004357037+1001499512+997350962+994495616+996122442+1003642770
1111+1013515545+1018319413+1014232450+1005569157+1000111922+1002294174
1103+1010786928+1019632342+1022821655+1020290642+1016789726+1016200353
1094+1019568462+1026106387+1034311851+1041272740+1041622648+1032908779
1085+1021483839+1016267788+1020483544+1028732819+1031143182+1024287117
1077+1014652546+1009241070+1008106478+1007276378+1004264256+999407633+995256331
1067+995559905+1001261194+1008032964+1010721556+1008061636+1002005737+995737325
1057+991088858+987211083+983192244+980133100+978843452+977892014+975683843
1047+973224853+973375550+977630644+984629378+991787986+997121704+998605860
1037+994519241+986349330+978418424+974227555+974603841+976964545+975968609
1027+968236455+957370095+950814279+952415931+960492431+969882663+975122453
1017+975457796+975582345+978533684+981233745+979100579+972061359+963440271
1007+956052865+951228526+948890759+947365029+945009257+942424628+940918222
997+939565325+936593228+932089151+926929756+920738757+913180697+905686345
987+899176919+892658663+886142242+881764778+880490900+880204700+878631662
977+876410416+875333626+874983202+873164276+869032643+864085991+860242565
967+858215770+857599274+857451042+856691589+854797027+852378464+850608395
957+849831968+849311235+848631145+848602416+850324489+853995656+858855204
947+863689521+867387926+869720303+871728289+874661449+878506940+882166525
937+885054155+888038925+892347576+898062225+903911574+908670254+913114236
927+918562182+923854843+927067437+929007987+931592559+934067662+934000858
917+931307047+928127425+925422146+922564908+919333734+916615209+915592321
907+916940804+920230868+923953645+926551520+927115949+925913405+925138470
897+927540059+933057276+938146827+940103835+940030206+939719463+939389855
887+939047573+939403789+941257235+944166885+945966314+945019177+943079028
877+943518850+946687462+950244402+952245564+951768412+949166350+946720607
867+946548233+948619182+952632975+959075710+966311674+970088066+968578794
857+964812952+963535002+967409452+975013616+980627627+978996214+972612771
847+968658615+969294666+970178324+968176359+965597866+966099045+970597044
837+976549151+979461382+977221328+973340342+973099042+977122124+980821906
827+980915949+979257355+979527785+983780126+991038396+997205884+999598127
817+1000851190+1002855907+1003046057+1000700951+1000043339+1003605039
808+1009251392+1014301491+1014962543+1008050052+996754479+988914519+989186670
798+993599113+995298765+992708000+988250141+983635277+979307817+977789025
788+981191196+987006138+989847149+987071510+981258976+975514566+970661727
778+968481425+970349322+972186482+968130829+960127671+955321108+955252641
768+955708175+954408721+953285655+952522188+950233851+948920692+953289210
758+963456098+973749313+979996050+983834487+986569986+987384145+987103392
748+987033434+985570953+981458874+977153778+976103709+979155399+983448453
738+984960134+983127331+980644142+978228848+974125484+969660859+969506262
728+975150322+982495180+987011070+988628148+990540772+994465683+996849324
718+993074193+986272490+984454138+988411849+989908735+984040693+975693247
708+971188138+972276282+978132855+987311663+995299453+996255822+991851293
698+990092807+994415336+998658731+994809513+984669748+976746871+976992987
688+984009613+992040525+998930423+1005203308+1005399880+992910765+974563472
678+964485523+968963681+983718081+996957359+994781988+973686924+943952823
668+923270630+926984690+944343101+953288579+949804924+941551463+938204915
658+942096567+945347180+941571304+935628429+934535239+938247120+944363802
648+952224634+959425217+959357609+947981755+931507978+920736750+922565137
638+935002528+947204526+949770002+946731559+947417211+950594196+946863104
628+934280578+921640192+916836554+915227561+906689277+891809468+878151986
618+868262295+861381286+859458397+865179640+877452342+894311351+917294554
608+944174971+963815640+964391939+943757857+911966398+885021813+873730426
##END=
