##TITLE=<SNM>
##JCAMP-DX=4.24
##DATA TYPE=INFRARED SPECTRUM
##DATE=29/4/2025
##SAMPLING PROCEDURE=Instrument type and / or accessory
##ORIGIN=Admin
##XUNITS=1/CM
##YUNITS=ABSORBANCE
##RESOLUTION=4
##FIRSTX=4497.3318
##LASTX=599.83466
##DELTAX=-1.4281778
##MAXY=2.1102753
##MINY=0.38737798
##XFACTOR=1
##YFACTOR=1.965347e-09
##NPOINTS=2730
##FIRSTY=0.39594892
##XYDATA=(X++(Y..Y))
4497+201465144+201352219+201602651+202099935+202261128+201645580+200668615
4487+200203099+200419897+200752790+200969027+201335235+201831641+202231012
4477+202771984+203835322+205129485+205849103+205488415+204211690+202733893
4467+201880878+201881530+202203657+202436119+202816278+203537503+204342251
4457+205080839+205843068+206288811+205710930+204145409+202623985+201963400
4447+201998595+202208903+202360178+202340101+202094476+201894616+202073429
4437+202518808+202905487+203207916+203428869+203155206+202107108+200900987
4427+200478854+200790882+200808987+199986649+198899155+198233854+197951017
4417+197651303+197246654+197180782+198095787+200042725+202022402+202807908
4407+202293230+201400683+200881319+200923020+201520872+202400969+202834171
4397+202312078+201250803+200480386+200278964+200345306+200470605+200783497
4387+201358466+201875495+201857586+201239369+200486724+199980204+199448892
4377+198459766+197386450+197104113+197662403+198219373+198415972+198734915
4367+199442250+200266241+200982250+201418682+201235442+200319557+199037253
4357+198022090+198051266+199542559+201707661+203026753+202983126+202406337
4347+202023418+201815385+201723386+201932314+202421577+202892886+203009512
4337+202403213+200954106+199335193+198686512+199425964+200779342+201732120
4327+202070790+202253804+202692723+203411931+204057413+204048254+203057596
4317+201606836+200960262+201997109+204092881+205605889+205593319+204563796
4307+203474331+202659135+202060115+201873614+202379436+203311940+203905956
4297+203702502+203078750+202881983+203595126+204849757+205746899+205763928
4287+205252798+204826693+204537062+204046616+203349244+202862649+202973179
4277+203745158+204795576+205351576+204923802+204015591+203642741+204170717
4267+205046266+205578989+205571771+205151564+204443865+203678922+203363028
4257+203948976+205252192+206443558+206780652+206253661+205539062+205461726
4247+206309373+207461526+207936778+207453717+206727245+206647983+207335999
4237+208051508+208050113+207384145+206589329+205920844+205429503+205400464
4227+206065234+207125130+207986440+208261725+207936323+207376153+207127359
4217+207375092+207807217+208174123+208535873+208774219+208447725+207457644
4207+206460481+206332180+207321184+208742845+209547745+209339954+208690181
4197+208313616+208316163+208456854+208648162+208896819+209130753+209312234
4187+209510775+209840408+210382593+210965372+211111916+210578465+209858392
4177+209846898+210969269+212669749+213872246+214110501+213960439+214102464
4167+214417843+214371366+213828468+213122998+212624849+212514289+212786981
4157+213205004+213277852+212674601+211826651+211665459+212516396+213705913
4147+214442985+214564645+214248796+213617553+212914980+212604559+212943654
4137+213684335+214351334+214704395+214814182+214898508+215218027+215772116
4127+216138567+216023078+215749067+215780896+216093970+216440434+216848586
4117+217444027+218105066+218538845+218561849+218260087+217890937+217619048
4107+217375425+217022121+216695309+216848874+217722845+218904522+219717292
4097+219919594+219773944+219590658+219426706+219132193+218624824+218107963
4087+217849524+217890164+218250003+219073539+220166993+220848216+220723204
4077+220187464+219769456+219483313+219145628+218853192+218800998+218904174
4067+219043135+219491775+220543209+221788938+222331336+221855250+220960641
4057+220263253+219805849+219548108+219759706+220580785+221629369+222290757
4047+222231148+221680107+221278142+221449616+222002052+222475727+222675920
4037+222674647+222568150+222581025+223111837+224294636+225573347+226014814
4027+225192718+223639692+222346894+221973968+222566437+223716967+224835290
4017+225462848+225464152+224978710+224317291+223812909+223602874+223610669
4007+223758698+224094033+224721166+225620264+226440267+226667938+226205939
3997+225532768+225182573+225258802+225498104+225705986+225969185+226335727
3987+226525428+226306613+225920191+225729550+225804566+226222711+227284077
3977+228949483+230465509+231077721+230839769+230242524+229443417+228426799
3967+227593739+227490625+228089144+228875726+229486710+229869113+229982084
3957+229708542+229100576+228584867+228794402+230057843+231970844+233552954
3947+234122450+234092425+234413945+235087814+234954766+233373065+231245782
3937+229975427+230322604+232190417+234583417+235973113+235721983+234907758
3927+234949064+235986866+236988791+237231822+237312858+238254567+239930435
3917+240847184+239674484+236763698+233738667+231978229+231744189+232631429
3907+234806387+239095556+245226245+250725569+253070681+251913190+248138562
3897+243170354+239275779+238475171+240854235+243839066+244330786+242945094
3887+242909231+245185696+247501239+248418761+249191422+249746588+248143369
3878+245171503+244054424+245848344+248888068+251848046+254303172+255045946
3868+253938845+253135628+253609151+253373155+250807166+247597135+246292949
3858+248090174+253725018+263248371+271353020+269621455+260622136+251767860
3848+246352255+245028235+247387646+252092291+257406055+262365044+266405313
3838+267870085+265519195+261129429+257408663+255215114+253960029+253386060
3828+253671596+254467625+255762622+258880289+263979908+267471608+266967014
3818+265253797+264110955+261466401+256507200+251862786+250111249+252120663
3808+256674973+260890810+263785143+267347264+271633128+272775667+269497444
3798+265242030+261872339+258572098+255157127+252800870+252151931+252904636
3788+254636672+256840047+258710696+260199215+262492754+266057635+269022026
3778+269223372+267339530+266006806+267288034+271570561+277147570+281206582
3768+282779533+283197481+283563052+284453476+287021937+292032392+298048427
3758+302489326+305151985+308562558+315283046+325590251+335762043+341137402
3748+342917371+345703677+350406730+352531010+350197043+347977048+350253817
3738+358218897+369436300+378621983+381924862+380032832+376499462+374908739
3728+377058707+382135519+387450102+391205441+393836863+396235488+398560569
3718+401046933+404851373+411749885+422481346+434260541+441666255+443254492
3708+442677808+443274356+446568137+452571555+458908457+462137366+461527929
3698+459276636+458189749+460462878+467045587+477199273+488076428+494511714
3688+492972366+486422471+480303535+477783932+479437858+484021056+490128316
3678+497026676+502234475+501583428+496652765+494111720+496554715+500261833
3668+500993916+499607026+498732039+499224683+500729094+503120774+506799870
3658+511401082+514747208+515564421+516814230+523167296+535813260+547751615
3648+548575500+539476191+529469716+523521707+521761785+522948026+526494498
3638+532092828+538401798+543210513+546089409+549784487+556638266+562975684
3628+561577087+554301813+549074210+550195793+557931929+568989444+576688640
3618+576787448+573064347+571032688+571553901+572335449+572456457+573249711
3608+575198514+576966807+578086388+580114529+584264463+589553146+594026678
3598+596811133+597709443+596259531+593178652+591398653+593619133+599443889
3588+605046829+606576381+604379981+600998068+597830087+595520928+594766676
3578+595965594+598855288+602621029+606252723+609340517+612584439+616693067
3568+620571871+621266074+617641053+612736138+609518359+607562398+604799233
3558+601250031+599877638+603389657+611016249+618642113+622582785+622949024
3548+622312262+622150493+621564560+619651361+617564202+616923315+617613030
3538+618515525+619468485+620843183+622243963+623273895+624513878+626523033
3528+628651014+629599182+628754371+626627361+624287632+622538871+621533019
3518+620683598+619498024+618568477+619154592+621596768+624380314+625519547
3508+625018957+625217058+627831799+631739051+634355369+634460425+633046057
3498+631729770+630840984+629248957+626610256+625077793+626983167+631356435
3488+634515924+634377448+632477169+631379666+631965660+633159969+633659407
3478+633786905+634770011+636494813+637322216+636100976+633454270+631220870
3468+631159244+634047117+639112587+643985294+645961514+644014045+639858651
3458+636694188+636352454+637459540+636969504+633997319+631200065+631672754
3448+635169731+638292402+638770550+637896382+637335318+636210884+633318583
3438+629850053+627682586+626797803+626066843+625444213+626101356+628433503
3428+630944766+631545741+630227392+629216627+630208164+632908309+635574183
3418+636740165+636408682+635264414+633702108+632289197+631873463+632379938
3408+632731679+632341967+631324834+629811173+628409786+628273797+629801711
3398+632211618+634531331+636315273+637857502+639910269+642295065+643348410
3388+641836205+638465756+634987340+632740232+632073688+632395951+632967872
3378+634068165+636754358+640984358+644663969+645460377+643361148+640529138
3368+639061515+639448498+640985693+642869352+644423894+645095837+645051195
3358+645213752+646228702+647998268+650329566+652787148+653885742+652394767
3348+649376302+647030690+646127649+646198859+647289871+649503861+651489725
3338+651381576+649321409+647727259+648552235+651195424+653174859+652801463
3328+651181170+650804499+652453482+654381238+654495331+652408597+649264817
3318+646416673+644536774+643686565+643771301+644906410+647350405+650893177
3308+654429580+656563626+656596320+654676995+651702444+649210834+648482845
3298+649215080+649774992+649761829+651120575+655405226+661105214+664698209
3288+664067330+660422353+656616821+654632413+654658313+655610424+656576728
3278+657331647+657731550+658022515+658876424+660066426+660558040+660424779
3268+661007922+662992513+665728990+668395349+670325531+670504829+668687588
3258+666242136+664832925+665098718+666493675+668008184+668929482+669206496
3248+669122124+668545775+667105629+664743761+661565408+657893197+654647941
3238+652971056+653383999+655390608+657975810+660648113+663412492+665650562
3228+665938979+663692296+660258522+657679507+657202876+659142399+662699122
3218+665698116+666263062+664788646+662857311+660943324+658573874+655711294
3208+652645154+649483420+646905254+646092469+647026808+648259572+648636183
3198+648263697+647989958+648807717+650959110+653437801+654937571+655140464
3188+654307238+651981278+647502833+641929736+637989610+637258103+638160476
3178+637923556+636223258+634781232+633979729+632704506+630857725+629544956
3168+629141354+628834376+628141810+627943891+629274735+631596085+633357948
3158+633899239+633346485+631334417+627745729+624155706+622823467+624224368
3148+626196039+625911625+622919667+619574511+618434792+619765333+621626368
3138+622084378+620848035+619138154+618471307+619304836+620553067+620526076
3128+618532205+615634141+613711844+613782265+615460242+617476494+618655700
3118+618665283+617797120+616274968+614111322+611597087+609552751+608752158
3108+608885661+608641218+607218299+605215573+603533775+602080224+600474671
3098+599272113+599240087+599942175+600129904+599310023+598189471+597776588
3088+598436279+599422539+599355575+597829905+596185835+595830150+596462788
3078+596824114+596327708+595076990+593368989+592031169+592064712+593229845
3068+594036565+593679970+592963506+592987041+593822936+594443988+593579343
3058+591092645+588466258+587183150+586886422+586110395+584524190+583114797
3048+582719444+583354387+584256821+584120709+582144793+579184072+577032011
3038+576509039+577001138+577703893+578358853+578549675+577379143+574783266
3028+572337329+571770624+573188812+575198090+576329498+576079961+574903364
3018+573454059+571847778+569842019+567814302+566650503+566343283+565862041
3008+564777883+563961459+564046680+564187037+563332400+562080711+562005559
2998+563498839+565408216+566565282+566697147+566016713+564809970+563386140
2988+561873693+560194382+558517862+557410412+557252465+557731159+558108133
2978+557803521+556558868+554425490+552046941+550568158+550536132+550948529
2968+550131195+547744943+545237987+544250028+545122499+546939255+548494161
2958+548865373+547581355+545153615+543112857+542574114+543088292+543512456
2948+543393026+542815706+541767213+540420901+539239816+538297349+537220106
2938+536044722+535436164+535702745+536098038+535592292+534121090+532521784
2928+531389405+530699205+530337455+530171986+529790887+528905316+527895036
2918+527412399+527537593+527718710+527416767+526659542+526127653+526506023
2908+527461227+527628333+526120071+523651813+521586066+520538786+520305869
2898+520277543+519741772+518635596+517879342+518149502+518782504+518749022
2888+518119417+517579279+517218438+516696072+515935937+514949555+513559086
2878+511974277+511037391+511158095+511509109+511017920+509833741+509009250
2868+509003002+509252357+509039699+508328057+507736028+507815366+508379766
2858+508621751+507974223+506680985+505320358+504043285+502657275+501261832
2848+500259771+499735282+499328708+498795121+498304477+498161239+498521928
2838+499239696+499727124+499267051+497709082+495607214+493595480+491983801
2828+490908862+490402995+490328843+490545717+490978252+491448030+491752976
2818+491793008+491338152+490061958+488138145+486260581+484826198+483699065
2808+482803667+482280574+482040620+481740375+481230201+480710109+480492659
2798+480717054+481178947+481372377+480751294+479106315+476894903+475055097
2788+474140290+473793582+473418700+472967089+472626114+472283470+471822215
2778+471414427+471090526+470519333+469486065+468233011+467209539+466633432
2768+466288817+465789470+465103910+464564106+464228984+463774309+463120108
2758+462545912+462152743+461743105+461202967+460597230+459938268+459145438
2748+458236908+457413660+456868124+456542464+456222233+455860695+455521994
2738+455044089+454238340+453399898+453025077+453035236+452877016+452341579
2728+451719313+451221179+450775543+450358869+450093288+449972523+449733055
2718+449108302+448154493+447130384+446063088+444755263+443279391+442077106
2708+441480406+441380203+441328828+440862599+439918222+438917101+438221230
2698+437776715+437491876+437448477+437479563+437128731+436285042+435375330
2688+434822333+434615558+434389555+433811052+432961450+432227668+431728625
2678+431139204+430207473+429117735+428214694+427664669+427452799+427439577
2668+427363969+427029211+426558220+426277142+426295612+426354296+426117891
2658+425500781+424672499+423838545+423105158+422596349+422525200+422867661
2648+423110405+422722634+421779257+420758666+419933447+419336535+419076141
2638+419240032+419570271+419571576+419043902+418335536+417908915+417815748
2628+417783297+417622469+417324346+416952285+416647612+416549744+416564241
2618+416381031+415835403+415154969+414748000+414692531+414552204+413884052
2608+412828220+411956569+411619445+411640098+411654504+411613531+411745366
2598+412045187+412149848+411819275+411198192+410536531+410003792+409723048
2588+409678375+409701212+409710674+409766083+409854610+409851638+409650929
2578+409241564+408783705+408546299+408573473+408559310+408223278+407611354
2568+406942110+406438851+406355571+406811094+407519582+407998155+408077098
2558+407941138+407729723+407426263+407110612+406956213+406913481+406708647
2548+406244996+405737672+405383110+405178731+405116498+405224799+405353722
2538+405237537+404829992+404380776+404210304+404472397+404992427+405362851
2528+405384808+405268744+405257432+405348840+405495292+405728119+405974441
2518+406039646+405850279+405527834+405230531+405074373+405149313+405439216
2508+405760994+405934196+405981083+406004648+405968709+405826897+405733821
2498+405881456+406227527+406538751+406618664+406427387+406076191+405723267
2488+405396727+404974655+404466725+404225923+404594102+405345473+405869507
2478+405954941+405896923+405860924+405785802+405822317+406178729+406631675
2468+406774944+406637953+406604016+406837601+407158105+407377921+407429478
2458+407209086+406708859+406338314+406636527+407558402+408476818+408951479
2448+409081767+409073184+408875204+408358115+407639650+407090899+406963764
2438+407093719+407133357+407025118+407018263+407232620+407451860+407414799
2428+407129991+406811913+406657514+406783890+407211876+407786224+408249936
2418+408467720+408473421+408335248+408118101+407936862+407910750+408036974
2408+408145699+408068515+407906534+407985993+408427748+408947506+409238076
2398+409345012+409477332+409658571+409803083+409998455+410439269+411075061
2388+411532738+411446152+410737240+409548694+408039279+406263101+404138366
2378+401569389+398672782+395759251+393015586+390392171+387911296+385848794
2368+384410710+383455961+382712596+382104463+381756270+381808222+382371075
2358+383646905+385945934+389518973+394370268+399892566+404584700+406718898
2348+405471394+401586464+397314885+394950287+394861002+395797403+396619044
2338+396909736+396716942+396325926+396137317+396402655+396941125+397355463
2328+397550532+397678576+397738958+397771136+398203914+399400527+401078716
2318+402659522+403905964+404945359+405965919+407021296+408007071+408848698
2308+409631367+410383951+410983168+411506959+412328145+413620867+415088581
2298+416301572+417056249+417411448+417574581+417711238+417809500+417818871
2288+417840980+418004781+418239700+418354096+418269057+418021431+417627139
2278+417146595+416836008+416966266+417434982+417756548+417537581+416881348
2268+416260478+416028834+416118180+416230423+416252835+416366170+416751940
2258+417334688+417917043+418484627+419175252+419967748+420647120+421078048
2248+421269902+421229323+420966108+420523444+419899207+419135674+418442047
2238+417970359+417602149+417179592+416757095+416457184+416257778+416045332
2228+415813325+415713789+415828216+415968087+415903368+415693287+415562392
2218+415614071+415858998+416306606+416892630+417513592+418169218+418911430
2208+419708748+420490599+421232356+421893987+422370134+422613575+422783865
2198+423183919+424010989+425194197+426444612+427416315+427898193+427960942
2188+427912660+428074459+428558157+429197103+429727081+430100022+430504322
2178+431012312+431448881+431712005+431948683+432313466+432779452+433213383
2168+433467226+433474323+433405539+433582593+434111631+434766439+435333417
2158+435909584+436750938+437911644+439133005+440121600+440859172+441514313
2148+442140885+442704315+443344838+444289337+445487558+446644624+447656844
2138+448745703+450099415+451620050+453153697+454799162+456785784+459100402
2128+461480102+463817921+466294974+468953266+471424648+473327747+474667174
2118+475626746+476298749+476822905+477445110+478277699+479293801+480490839
2108+481747047+482804001+483731425+484993759+486795291+488820763+490698175
2098+492235036+493268577+493727619+493682552+493038298+491456158+488803689
2088+485489891+482200023+479276605+476454725+473351676+470066994+467043646
2078+464543695+462542728+460900356+459451415+458175070+457306512+457054610
2068+457259201+457480776+457360102+456859026+456229057+455741932+455470225
2058+455371508+455449177+455711543+456120180+456655253+457295352+457949886
2048+458572971+459278092+460189018+461282850+462539968+464131692+466267982
2038+468933219+471940887+475200640+478795243+482808490+487139997+491454550
2028+495330109+498563598+501284214+503688450+505812366+507624361+509090528
2018+510021167+510087645+509202256+507767751+506391536+505387504+504598951
2008+503686509+502522407+501216795+499855532+498480075+497308695+496619435
1998+496349002+496178923+496042206+496099434+496268845+496340207+496461427
1988+496943336+497787722+498839793+500071709+501390877+502562106+503568655
1978+504742553+506426413+508645741+511037391+513122609+514858208+516727128
1968+518966411+521033433+522341956+523232380+524580996+526657177+528937220
1958+530981071+532923749+535006783+537199240+539466668+541929103+544566529
1948+547179208+549815240+552810049+556101464+558954825+560888525+562401700
1938+564186552+566272862+568359050+570372209+572425947+574640483+577040746
1928+579469699+581862684+584393114+586875504+588686256+589877289+591231729
1918+592777536+593647338+593749482+594066589+595223049+596903694+598484015
1908+599690212+600645780+601456563+601998946+602262676+602533867+603009711
1898+603643258+604331396+604862982+605135325+605639009+606832408+608080276
1888+608410667+608058985+607867010+607882174+607611650+606871713+605842569
1878+604898283+604445974+604558854+605180574+606756285+609625477+612399136
1868+612374995+609019285+604795472+601630948+599285396+596968049+594736530
1858+592942338+591501585+590225816+589100109+588019226+586782701+585592093
1848+585370275+586984745+589515175+589931151+586715616+582259129+579275965
1838+578024216+577111410+575628138+574457060+575158178+577527143+579019089
1828+577866450+575147018+572103623+568532586+564607198+561667464+560555041
1818+560676594+560976051+561238750+562004770+563416165+564656511+564761870
1808+563779249+562731788+562740401+564377496+567317654+570295480+571931301
1798+572169252+572585047+574978031+579445316+583202869+582977594+579825323
1788+577605935+578103007+580334284+582886550+585578688+588472870+590901398
1778+592616738+594790574+599055087+605713312+612248831+614881648+613218411
1768+609926268+607344826+607009826+609594846+613767769+616706350+617490506
1758+617574574+617799425+618446620+620948299+626663512+634180438+639394939
1748+640022057+637944239+636223743+636777044+639927253+644148275+646911198
1738+647954050+650257143+655873366+661732332+662621179+659613875+656749657
1728+655539820+655998013+657748958+660075161+663107091+668760132+678808641
1718+691083877+698238023+696292798+690179138+685422891+683900678+685645011
1708+690298266+696760574+702996879+708521815+715564900+725039485+732742261
1698+734732553+732577702+728067898+722969371+720495168+721986143+726077545
1688+731892172+741249390+754521258+763791071+761316140+753484472+748671269
1678+749372387+754607874+761388927+766803955+770891111+774613848+776364065
1668+774476585+771710993+771836610+774960252+777821013+778160805+778052353
1658+780941015+788769408+801858461+816039799+820727445+816778524+815395819
1648+818640954+820561734+816161050+809046452+804211898+802751554+804843990
1638+811043962+819234105+821904649+815180067+805918200+800199227+798344985
1628+798047652+797906142+798583301+800044616+799961760+797311171+794431850
1618+793233417+792288706+789149112+784713429+781463684+780117737+779581299
1608+778576054+776912331+775114439+773475707+771815745+769880164+767885869
1598+766570128+766543136+767738719+769511075+770922531+771048876+769618921
1588+767466436+765939856+765768382+766612223+767640396+768660320+770695315
1578+774881643+779772606+780976741+778053142+775608297+775584641+775289491
1568+772468460+769427188+768587472+769882894+774100944+784049372+798189707
1558+803268400+794512340+784154427+778220308+776091661+776065943+776743405
1548+777718383+780294972+786264029+795728667+806495823+814107797+813243516
1538+806420550+802129955+803266095+806398168+806312158+803321231+802682528
1528+807242069+815396850+824220662+833128906+841925484+847456121+847807560
1518+845839104+844192911+843515934+844651164+848587288+855836662+867454210
1508+883982799+898463715+898532802+888264113+879587695+877125199+880938555
1498+888122846+893155077+893547216+893794812+898958847+908929777+917878297
1488+919627119+915369097+910699162+908889320+910296894+914351902+920607738
1478+928458089+936873324+945109202+951987243+954072400+949822808+944020494
1468+941724195+943524574+946836006+949520016+952560984+958137538+966672690
1458+974980383+976749282+971543031+965728222+961719008+958285962+955208358
1448+954320663+957167473+962634908+967825328+970969047+973018114+976254818
1438+980970730+983987193+982883140+980738176+981508927+985143713+988863600
1428+991064852+992619697+994597130+997640464+1002697624+1009281122+1013200444
1418+1010464270+1004328107+1000496372+999938098+1000799529+1001838862
1410+1003133192+1005655312+1010025608+1014233530+1014719624+1011769942
1401+1009719965+1011057057+1013774791+1014528316+1011877242+1006630472
1392+1001335542+998323082+997918145+998868073+999527338+999197190+998903495
1382+1000058014+1003071020+1007986367+1015013864+1022919350+1028096548
1374+1028318790+1026388850+1026005628+1026700741+1026268631+1025931507
1365+1028667074+1033720777+1037225336+1038272615+1039817271+1042983371
1357+1046033984+1048223044+1050898926+1054686140+1058211565+1060171954
1348+1061152512+1062575249+1064376721+1065317731+1065391003+1065323797
1340+1064210160+1061039450+1057832467+1057678159+1060380851+1062901334
1331+1063946187+1065057398+1066974721+1067950548+1066781836+1065569937
1322+1066814954+1069963465+1072546059+1073162562+1072472423+1071841241
1314+1072043466+1073093900+1073741823+1072377557+1069734672+1068649907
1305+1070103215+1071719080+1071331370+1069828931+1069200781+1070417533
1297+1072445613+1071804726+1065838156+1056998938+1050026941+1045785902
1288+1041242556+1034316779+1026394188+1019827249+1014490467+1008571027
1280+1002005180+997193432+995930340+996558368+994945415+988785900+980534252
1270+974293095+970503333+965835461+958259092+949615427+942451152+937189583
1260+932623005+927250436+920324598+912692001+906310912+902249656+899331394
1250+895086109+888446141+880876990+873840820+866644397+858071032+848812077
1240+840766416+834676291+829559325+824202344+818675163+814204118+811668654
1230+810500912+809282705+807339967+805281377+804119580+804163495+804776601
1220+805195307+805426041+806252170+808429463+811801914+815198203+817450406
1210+818570957+819589789+821542111+824888298+829457484+834688725+840055896
1200+845225512+849931537+853978114+857306590+859872746+861792010+863489761
1190+865207830+866863243+868691706+871156749+874200811+877777186+882977978
1180+890979058+900460073+908194450+913372314+918845875+926950979+936265191
1170+943505892+947115021+947599902+946138284+944577677+945287286+949467731
1160+955765844+961328022+964782176+967899813+973202022+979907437+983483448
1150+980083520+971870389+965194028+963826183+966604149+969879672+970814314
1140+969587252+969201846+972335071+978341128+982966299+983073720+980921295
1130+980272038+981552053+984015155+988489597+994494501+998495769+998878809
1120+998791768+1000817725+1003131312+1002609674+999220421+995382681+992867475
1110+992511609+994661183+999057864+1004638057+1009232900+1010793993+1009052996
1100+1005297687+1000783394+996081737+992335526+991682568+994612961+997891760
1090+997397053+993061149+989079230+988848921+991025365+991148860+987041930
1080+981662810+979423648+980473657+980888056+977772664+971699401+964746935
1070+958412975+953429451+949923739+947247008+945266785+945533548+948748537
1060+952610661+954037280+951882308+948708383+947624468+947295047+944801314
1050+940386982+936851306+936486281+939355655+943455366+946628988+948496756
1040+950103219+952099213+954154346+955595583+955437636+952532172+946888169
1030+940317895+935621393+934769606+937119647+939674885+939904648+938930095
1020+940798712+947306754+954826652+958333455+957157404+954048866+950447136
1010+945571337+939272435+932977961+927266024+920471142+910932989+899928669
1000+890964864+886329200+885166189+884593419+882289052+877986326+872616123
990+866759158+860565858+854522074+849398374+845673696+843551114+843011704
980+842960632+841431080+837949813+834177459+831506976+829394887+826320740
970+821677615+816355330+811458118+807142655+803362173+800754893+799722171
960+799565012+799575687+800310227+802813180+807084061+812155354+817095510
950+821239864+824350889+827268181+831594016+837865380+844528155+849786934
940+854234263+860253057+869041628+879299520+888228812+893844064+897239807
930+901432139+907378450+912838181+915497505+915350051+913753050+911929318
920+910513070+909426001+908339417+907495940+907376752+907399073+905769378
910+901742939+897195589+894773490+895345472+897842784+900717738+903079727
900+904624868+905432437+906231513+907773136+909741349+911728669+914867596
890+920253510+926278915+929637719+928936843+926151781+924574432+926608518
880+932175003+937625818+939088042+937188733+935600345+936671220+939944074
870+943535250+945443717+944715668+942775660+942021832+942454488+942044032
860+941137959+942973275+948473221+953861440+955200533+953485193+952699825
850+954187767+955487313+954068579+950915822+949142010+949884556+951522985
840+952870509+954174847+956093869+958988172+962239251+965155997+967539701
830+969491113+970861565+971836968+973539874+976152067+977977679+977431779
820+975508511+974665459+977031331+983931633+994298947+1003971210+1007210461
810+1001989531+994221975+991728788+995266647+998408061+996603981+993137271
800+993408099+997792831+1001277555+998032056+987430429+975316476+967864572
790+965457516+963744298+959989171+955932950+952707225+947947580+940609345
780+933494990+928962500+926570608+925157757+924281587+923394256+921796103
770+920113031+919298973+918616597+917408095+918099872+924263208+935246056
760+945772834+952120321+954943475+955117435+953012929+951517283+953936592
750+958698663+960079245+956237744+952296950+952805851+956315686+959898916
740+963671269+969199905+976356355+981601305+982003027+979164042+976945867
730+976727810+975446218+970476463+964216199+961532189+965190995+974151888
720+984124578+990132333+990282031+985552411+977335701+968613123+964701747
710+969179828+978544688+982815570+976201987+964256778+954321998+948768068
700+948558079+953424356+958565160+958425227+952545759+946088244+944577070
690+947230752+948775347+946373446+942741814+941972519+944178017+946229025
680+946505069+945781084+942379821+933392542+922523788+916426688+915674619
670+915246936+912428331+912416625+915317843+915330702+914239568+915799691
660+917164320+913516250+907978880+907624105+913351874+920483455+925487602
650+928446503+930428182+931016299+928677844+922686891+915026211+909382935
640+906808955+905433043+903465922+899738635+897689022+902676974+913655637
630+922498858+923576102+919711795+913656304+904717671+894181734+887229875
620+886481324+884916895+874729606+861844538+857283662+862118338+868421060
610+871107193+873160749+876569836+875853918+867598025+858679529+855775400
600+857651599
##END=
