##TITLE=<SNM>
##JCAMP-DX=4.24
##DATA TYPE=INFRARED SPECTRUM
##DATE=29/4/2025
##SAMPLING PROCEDURE=Instrument type and / or accessory
##ORIGIN=Admin
##XUNITS=1/CM
##YUNITS=ABSORBANCE
##RESOLUTION=4
##FIRSTX=4497.3318
##LASTX=599.83466
##DELTAX=-1.4281778
##MAXY=2.0669279
##MINY=0.53451395
##XFACTOR=1
##YFACTOR=1.9249766e-09
##NPOINTS=2730
##FIRSTY=0.54661965
##XYDATA=(X++(Y..Y))
4497+283961710+285863880+286782236+286270342+284952955+283912942+283743910
4487+284255773+284759276+284820275+284938928+285712529+286453090+286127382
4477+285366415+285610750+286710307+287253010+286702504+285611246+284469671
4467+283566240+283286017+283747378+284421306+284697689+284758192+285161775
4457+285677570+285498104+284477320+283043756+281459244+280223230+280140061
4447+281155365+282209126+282529106+282203429+281770771+281906176+282865374
4437+283823333+283609961+282271271+281006615+280570768+280591916+280548660
4427+280621487+281172086+282057496+282890176+283460467+283700437+283699013
4417+283667677+283577418+283223315+282698757+282318150+282281736+282689468
4407+283444459+284065532+284088693+283644269+283180400+282784094+282246438
4397+281575235+280991226+280458741+279681208+278754833+278384536+279126058
4387+280584919+281568856+281280428+280372011+280302993+281548885+283063573
4377+283710160+283460498+282805335+281809383+280339840+278705476+277672956
4367+277934260+279447865+281254821+282187575+281944262+281245532+280851734
4357+280795689+280648487+280209420+279585561+278867572+278245044+278144907
4347+278745079+279686039+280643595+281568423+282133822+281833752+280793955
4337+279739544+279142097+278934763+278872371+278796014+278816110+279345715
4327+280579005+281895989+282220366+281195680+279648232+278617941+278315920
4317+278326665+278412404+278575119+278668505+278693153+279063047+279956817
4307+280900285+281357993+281237791+280775811+280388732+280470941+281040025
4297+281688996+281926798+281502656+280576032+279764966+279959635+281667414
4287+284234377+285973244+285649641+283719108+281556068+279986728+279158167
4277+279211518+280214994+281623384+282430022+282104035+281150411+280440101
4267+280336558+280849102+282061243+283738151+285047147+285338207+284866906
4257+284298906+283919042+283695452+283596708+283552182+283497841+283488861
4247+283391047+282778954+281682524+280996118+281449584+282598373+283496912
4237+283888666+284119192+284257414+283812464+282389955+280509491+279440465
4227+280096836+282155497+284231869+285031139+284499335+283693470+283441301
4217+283639036+284028220+284711592+285467883+285437787+284109748+282140820
4207+280700166+280201370+280104917+279963165+280073303+280808137+281933455
4197+282938820+283477869+283370641+282716871+281941692+281428435+281239525
4187+281183295+281029002+280828914+280920133+281352481+281703022+281747518
4177+281808516+282147880+282458664+282327625+282026997+282332053+283391821
4167+284376749+284700785+284811946+285124030+285245656+284980822+284961346
4157+285495534+285758076+284971440+283733599+283258057+283675480+284024535
4147+283763139+283348316+283259729+283336241+283246414+282901106+282292295
4137+281541794+281166946+281692804+282861379+283750598+283909505+283823611
4127+283959728+284073706+283834975+283508740+283493134+283518370+282956562
4117+281980335+281695189+282703773+284262616+285471630+286398594+287193528
4107+287238612+286175716+284791355+284019984+283746511+283241460+282402557
4097+281901222+282096201+282518981+282837104+283445760+284477722+285229957
4087+285215095+284844179+284622416+284433877+283944091+283253288+282841748
4077+283011987+283483535+283730410+283724310+283876405+284238867+284454747
4067+284533147+284896167+285571705+286039166+286001669+285768202+285762907
4057+286043996+286334561+286321463+285976309+285629453+285518509+285377995
4047+284930320+284428335+284168858+283972733+283662073+283563051+284013822
4037+284703386+284995375+284856936+284991969+285916859+287325930+288498499
4027+289001723+288885082+288460197+288073799+287949077+288127893+288440442
4017+288516303+288018622+287009139+285983338+285508322+285895958+287036387
4007+288271968+288672485+287948427+286995824+287001212+288049400+289085852
3997+289203421+288460878+287380457+286271797+285460142+285531328+286663211
3987+288114207+289031696+289442710+289854250+290259660+290217735+289790310
3977+289739715+290553692+291655509+292008806+291371416+290414231+289802912
3967+289774859+290349950+291356460+292424836+293205899+293440419+292948001
3957+291884486+290806419+290211604+290271581+291076547+292649943+294503252
3947+295720285+295955053+295838103+295920559+295772583+294718513+292975094
3937+291396125+290685257+291249697+293100529+295417924+296851982+296874214
3927+296269584+296032679+296243543+296294943+296003109+295936877+296691745
3917+298087037+298999850+298317376+296239611+294167109+293393416+294399957
3907+297258816+301774674+306759881+310187422+310976845+309454941+306131191
3897+301835610+298404818+297729466+300054943+303094135+303935856+302978145
3887+303146123+305469618+307912045+308867310+309161250+308953420+306908662
3878+303662105+301870878+302765888+305541330+309265350+312735064+313505568
3868+311217000+309049439+308847679+308765315+306707862+303452294+300917038
3858+300439699+303587048+311900991+321672834+323092433+315615071+307131509
3848+302684546+303045801+306351747+310199343+313618245+317168495+320962060
3838+323190279+322134815+318872094+315491587+312688649+310352273+308869632
3828+308467969+308475803+308988936+311809710+317243335+321311982+321221382
3818+319855691+319349526+317666580+313526592+309132856+307133181+308670628
3808+312673167+316218773+318203957+320640717+324204282+326024460+324512341
3798+321519037+318050903+313946338+310091867+307821321+307343425+308166010
3788+310207239+313386697+316582908+318675288+320453820+323349278+326588063
3778+328069094+327968926+328510112+331227250+336076712+341666240+346183243
3768+349346663+352222180+355155755+358319670+363065651+370270872+378179467
3758+384215648+388849788+394828408+403890963+415261902+425557561+432210263
3748+437459282+444813315+453182745+456632889+454098283+451556060+453660764
3738+461121808+471131454+478410028+478935794+473960216+468413016+466056080
3728+467485866+470834944+473745668+475934346+478605038+481149986+481352737
3718+479018591+476939463+478469571+485053813+494023228+499184403+498060014
3708+494388725+492130503+492600410+495271845+498444894+500322262+501019598
3698+502368630+505733036+511039338+517383857+524078392+530451367+534586091
3688+534459077+530752397+525769079+521423739+519541943+521555769+527359443
3678+535257448+541841039+543189019+540530650+539067981+540380228+540545822
3668+536418344+530570640+526590549+525638535+526934681+529427022+533200893
3658+538280199+542483663+543959213+545368005+551116935+561806701+571164775
3648+571807522+565417331+558185048+553229845+550292864+548144903+546824667
3638+547714444+551475744+556668130+561517561+566604608+573334473+578755248
3628+576812639+569580852+564686461+565775892+572476960+581528740+587205029
3618+586522153+583424841+582607334+584177881+586396006+589550786+593832774
3608+596327096+594888207+592086538+591316839+592605492+593900833+594799465
3598+597107571+601333390+605243069+606690504+606303951+606904526+610239020
3588+614070546+614265247+610690845+606559713+604337624+605085896+609113919
3578+615137746+619506061+619225776+615995382+614390217+617063015+623528262
3568+630864398+634571697+632480709+627637781+624344530+623476924+622944222
3558+621064842+618437189+616982694+618107053+621742949+626851671+631961013
3548+634443506+631762287+625833209+622216201+623494263+627467851+631330651
3538+634104700+635158152+634028096+632270032+631915000+632415314+632115460
3528+631583254+632501022+634525313+635843443+635527612+633660679+630822596
3518+628819980+629819740+633400397+636337935+635975101+632644570+628989104
3508+628101681+631471970+636837320+639322229+637060507+633405475+631890167
3498+632594718+633769734+635001722+637599588+642466915+648607352+653656252
3488+655904845+655043741+651696366+647027206+642618267+639453206+636880731
3478+634020664+631742222+631571797+632836422+633001645+631326316+629910340
3468+630469051+632089265+632674419+631873075+631619420+633620054+637191980
3458+639528324+638025216+633048772+628188256+626782622+628657358+630723388
3448+630766304+629788343+629836646+631015873+631405212+629405382+626092005
3438+623894006+623381307+623418340+623372761+623292937+622756272+621247466
3428+619380038+618773828+620514367+623837219+626809870+628246716+627977083
3418+625739513+621883587+618369193+617032236+617731400+618935955+619137653
3408+617634669+615136197+613616988+614401240+616759817+618913784+619646574
3398+619043771+618437251+619001722+620164723+620547188+620176118+619993493
3388+619763556+618480848+616259194+614515063+614548999+616214172+618054043
3378+618711033+618124516+616779076+614644182+612058703+610769059+612518887
3368+617059237+621938641+624420825+623767860+621561811+620128991+620493683
3358+621689815+621920372+620473556+618575474+617792151+618110087+618224901
3348+617400087+616283098+615952714+616893642+618530824+619623785+619862516
3338+620784681+623919645+628230738+630442670+628497089+623886266+620155000
3328+619836754+622431956+625049267+625366213+623652984+621921858+621712419
3318+622692672+623440015+623498413+623506154+623685930+624277834+626488899
3308+630693973+634931496+637028305+636806666+635152578+633445418+633769362
3298+636522728+638846191+638090550+635323189+633416374+633860334+636446061
3288+639903420+642368636+642915148+642525871+642497632+642433165+640984182
3278+638346992+636397448+636328089+637723629+639844217+642318351+644306043
3268+644537591+642999369+641508895+641820638+643746403+645684553+646495743
3258+645916781+643540989+639315293+635102417+633484123+634825476+637136059
3248+638972957+640644818+642054849+641910000+640141346+638628577+638618483
3238+639523742+640409059+640608467+639026772+635626263+633134727+634345413
3228+638332192+641293882+640844782+638049678+635449088+634528843+635058696
3218+635535539+634942272+634545935+636290561+639501076+641278214+640223338
3208+637654889+635072134+632562764+630063983+628540934+629250129+631906392
3198+634157710+633840207+631133845+627843505+625592187+625006103+625629405
3188+626543643+627550711+629145038+631143196+632203335+631248535+628789697
3178+626358603+625140115+625198574+625470623+624735418+622922795+620942906
3168+619420043+617923499+615875118+613948982+613248581+613710004+613976850
3158+612750744+610588045+609573732+610631022+612135864+611767457+609221673
3148+606458337+605504341+606496484+607900570+608363046+607779502+606649198
3138+605273165+603657039+601668976+599533153+598185236+598365631+599477170
3128+600136948+599660600+598378264+596744427+594828323+592819762+591403724
3118+591103870+591496553+591656884+591251630+590661335+590168453+589387112
3108+587722311+585384480+583505595+583033087+583793063+584980464+586064012
3098+586827951+587160379+587221935+587440664+587980920+588459250+588567561
3088+588670051+589193216+589883214+590101261+589353051+587435647+584706000
3078+582129624+580535049+580223305+581096918+582416349+583053708+582699173
3068+582110117+581840298+581603115+580872864+579517144+577976384+576926091
3058+576606792+576782604+577369493+578291843+578883872+578433596+577125126
3048+575611800+574363339+573849773+574223939+574852877+574967629+574454186
3038+573598284+572555546+571403135+570312279+569397670+568651441+568152428
3028+567967636+567766309+566984163+565631539+564525449+564213272+564103536
3018+563372852+562186937+561316730+560998731+560797342+560308362+559465279
3008+558345255+557087319+555934783+555062842+554476882+554142349+554136032
2998+554535651+555233886+555869883+555862761+554884304+553317411+551782286
2988+550423531+549078524+547857435+546993978+546264408+545316296+544532663
2978+544770403+545999543+546987599+546904554+546300264+545768120+544883112
2968+543287298+541577599+540365118+539634433+539334517+539538569+539976026
2958+540120565+539753272+539094114+538437000+537697646+536504486+534951402
2948+533777935+533489600+533776572+533828839+533031583+531702058+531043148
2938+531735623+532887353+533187950+532574123+531797179+531107738+530266079
2928+529193183+527953886+526565345+525169867+524013430+523241997+523068042
2918+523753148+524923704+525445940+524715813+523536834+523047668+523354829
2908+523754696+523794515+523413413+522309862+520094957+517316109+515419048
2898+515131703+515549529+515336715+514296237+513213123+512662090+512447511
2888+512052506+511414310+510988248+510991220+510980909+510386744+509249072
2878+508332109+508500521+509791496+511176012+511550179+510760571+509410579
2868+508042256+506756267+505501736+504540464+504307957+504740119+505186339
2858+505159896+504834806+504724513+504993682+505056600+504158711+502516328
2848+501185441+500618462+500208656+499315752+497922410+496330560+494891299
2838+494021278+493994649+494544566+494940284+494665263+493867635+493056383
2828+492537305+492219802+491896354+491541261+491195983+490700686+489883365
2818+489006159+488566040+488531856+488265938+487396907+486312957+485570506
2808+485168255+484686365+483928432+483072159+482313576+481720680+481330877
2798+481087253+480767273+480187878+479362940+478419286+477613452+477357382
2788+477839334+478611262+478923346+478475795+477486470+476271047+475246516
2778+474925823+475316246+475705554+475486671+474739111+473729629+472460143
2768+470922014+469375371+468276744+467941529+468126600+468117125+467437438
2758+466263290+465082639+464197724+463549558+462937775+462410058+462199318
2748+462185539+461834317+460859730+459627091+458787693+458624421+458709633
2738+458281032+457152400+456043090+455738623+456224074+456846849+457070811
2728+456927417+456821954+456941289+456898899+456197011+455050018+454267500
2718+454161604+454121630+453518764+452482993+451514847+450832157+450327106
2708+449866643+449518764+449494705+449745884+449801247+449333167+448611400
2698+448018566+447515497+446938177+446352898+445817689+445232596+444642921
2688+444311360+444349353+444576070+444792445+444927850+444869328+444370997
2678+443322066+442073883+441204016+440792940+440287797+439349345+438401016
2668+438018303+438197367+438479695+438503723+438231210+437756658+437092608
2658+436263242+435522123+435160651+435079433+434870551+434331347+433660639
2648+433223337+433239531+433559512+433766845+433657295+433433798+433288702
2638+433093568+432654656+432002279+431313117+430727467+430262762+429802299
2628+429219219+428582665+428159327+428144681+428463702+428843008+429009532
2618+428880010+428632733+428461348+428249773+427734751+426957188+426232758
2608+425720585+425325858+424952280+424597372+424279343+424029248+423861548
2598+423712147+423531257+423402633+423412015+423456077+423392848+423292742
2588+423210286+422836119+421880885+420745998+420255036+420696735+421560750
2578+422182813+422294221+421973436+421409398+420801300+420309811+419971191
2568+419674557+419315377+418931890+418588098+418246815+417927423+417831404
2558+418078929+418464522+418683808+418701240+418707557+418773417+418773231
2548+418670524+418615192+418680804+418756882+418752114+418662381+418468826
2538+418197180+417971113+417829701+417643918+417338120+417074370+417088737
2528+417359361+417569296+417506749+417348616+417324619+417308735+417064740
2518+416684535+416430817+416348423+416357247+416509868+416818639+417019564
2508+416859264+416505193+416380563+416679891+417201879+417525451+417316909
2498+416661219+416047330+415869629+416132853+416684969+417334528+417712689
2488+417503374+416843163+416159110+415735339+415660252+415938555+416447135
2478+416956738+417283778+417348245+417159954+416853876+416632671+416564426
2468+416492002+416252063+415944004+415799341+415807980+415723108+415466139
2458+415255338+415266516+415403778+415450038+415299028+415047199+414912475
2448+415031283+415366715+415833216+416364988+416839726+417135337+417250802
2438+417178656+416805046+416189083+415662822+415363711+415040356+414624697
2428+414548681+415108972+415895329+416238130+416025501+415760853+415912297
2418+416474043+417129083+417642061+418023039+418377885+418689815+418787908
2408+418546885+418082490+417665098+417501640+417703431+418301528+419108724
2398+419751007+420033273+420097647+420105883+420044482+419975959+420135516
2388+420527796+420701751+420253271+419375539+418535955+417738265+416550586
2378+414892689+413286441+412036896+410634637+408522935+406145934+404487233
2368+403792219+403486854+403207281+403222051+403829840+404907877+406230528
2358+407878794+410055025+412786499+416086593+419834392+423241249+425208815
2348+425296319+423990667+422231643+420701101+419576928+418872408+418547071
2338+418466720+418625348+419134641+419871859+420492436+420821024+420981850
2328+421206585+421648718+422263629+422850827+423357364+424008626+424920201
2318+425802237+426304006+426401604+426281340+426136739+426168694+426521217
2308+427177650+428002681+428774176+429221263+429263652+429179802+429359702
2298+429927114+430692602+431413099+432000638+432456456+432729186+432824926
2288+432971911+433434170+434189811+434935173+435341108+435272493+434872533
2278+434433156+434129153+433919218+433683769+433390480+433175498+433250245
2268+433596606+433851129+433696929+433242504+432789565+432425833+432140532
2258+432120034+432541204+433196616+433699995+433974365+434180770+434374325
2248+434610362+435058904+435673164+436130469+436293277+436282347+436101766
2238+435706760+435307760+435134549+435081415+434883525+434431887+433810566
2228+433248790+432986836+432981665+432882704+432473301+431968126+431703292
2218+431706141+431735835+431620681+431424153+431362102+431635203+432248844
2208+432971942+433563382+433982478+434329025+434729728+435303271+436034884
2198+436724572+437267461+437842119+438604324+439413378+440073744+440616292
2188+441146176+441592736+441764523+441598310+441317406+441326323+441855186
2178+442686564+443358572+443647620+443702983+443738282+443808322+443916819
2168+444144744+444542288+444964759+445188751+445233927+445369797+445714331
2158+446068031+446256818+446354539+446461612+446603272+446894951+447424154
2148+447953666+448132266+448026617+448061606+448415832+448841988+449134410
2138+449410669+449791834+450156588+450411265+450681765+451037849+451334390
2128+451527325+451854149+452465963+453129549+453561556+453876056+454402162
2118+455212300+456144001+457087407+457904883+458350205+458444211+458585902
2108+458962948+459242180+459102409+458699756+458460963+458703843+459445798
2098+460360346+460976030+461072359+460871063+460787337+461010772+461383236
2088+461706653+461994926+462261741+462319892+462042208+461630977+461452564
2078+461744646+462475175+463314790+463812069+463740048+463297791+462978523
2068+463174772+463821513+464536561+465149211+465802053+466481740+466885446
2058+466873122+466675202+466557539+466595284+466816087+467293952+468026463
2048+468866759+469633052+470253165+470823054+471500574+472288510+473005973
2038+473528457+473920583+474303512+474789304+475539155+476635553+477894759
2028+479008528+479867960+480647970+481603482+482855938+484413666+486293790
2018+488381929+490224338+491355571+491866691+492309659+493107783+494284470
2008+495628146+496967734+498327541+499809903+501359860+502744748+503719551
1998+504255504+504792788+506026666+508060463+510059736+511207781+511651741
1988+512037643+512657477+513452814+514406190+515657531+517381876+519557549
1978+521838345+523818481+525438942+527004783+528871902+531182237+533720156
1968+535987328+537642282+538868264+540113877+541637050+543483547+545634108
1958+547967914+550261467+552328488+554088038+555647005+557430955+559926887
1948+563151275+566681337+570273760+573919751+577211268+579505254+580894167
1938+582157677+583806006+585808870+588038142+590450100+592925348+595283306
1928+597547505+600137443+603490330+607272190+610471125+612671291+614297883
1918+615334118+615241041+614401364+614176505+615471598+617959727+620416707
1908+621802895+622183627+622229081+622100272+621624482+621154637+621396154
1898+622728156+625017684+627571952+629559768+630970480+632307993+633237094
1888+632951731+631823533+630982370+630701342+630507570+630318010+630496795
1878+631053710+631476738+631561827+632086602+634059679+637193714+639472156
1868+638895424+635849450+632404972+629793111+627879051+626201988+624607723
1858+623059841+621527813+620125337+618939051+617863306+616896305+616454080
1848+617205758+619289376+621300167+620782947+617301869+613251367+610606809
1838+609426777+608748174+607861865+607142452+607492962+608722846+609180367
1828+607941628+605882348+603613938+600707549+597249261+594242550+592346325
1818+591333684+590709763+590380555+590556430+591145919+591569938+591376228
1808+590779555+590406255+590916415+592756534+595552877+597797754+598138790
1798+597164482+596954176+599082444+603226456+606643563+606311692+603102044
1788+600616392+600802794+602895267+605264248+607408121+609594539+611601615
1778+613135996+615043925+618963946+625235793+630970851+632375928+629942728
1768+626761505+624461945+623763773+625287193+628222254+630374674+631162579
1758+632000027+633385411+634888271+637232109+641645507+647385891+651584277
1748+652623237+651836570+651234014+651811923+653549489+655606354+656878224
1738+657794815+660714890+666895084+672936375+673589278+669826120+665468147
1728+661977347+659794769+659426609+660949472+664345027+670282961+679315357
1718+689460531+695214230+693238428+686820927+680861876+678250882+679849854
1708+684850389+691089786+696243715+700453247+706106685+713591200+719070682
1698+720091188+718569564+715226771+710619539+707763869+708717307+712684764
1688+718300364+726269401+737055898+745393590+745240567+740219039+736441266
1678+736441885+740178662+745572870+750133904+753973357+758184190+761098381
1668+760376181+758189268+758300799+760967776+763363819+763787899+763865928
1658+765787915+770927291+780394172+792127481+796831939+792717094+789692362
1648+791689900+794708935+792604386+786416141+781500819+779989227+781141329
1638+783824902+786545694+786031942+780934862+775135461+772068618+771603479
1628+771845307+772122061+773382537+775201848+775374316+773973574+773797390
1618+775683335+776361814+773132535+769008153+767620107+769033358+771336076
1608+773123060+774406820+775692129+777007906+777881829+778101115+778439178
1598+780093389+783295730+786997208+790066467+792415011+794653634+797006327
1588+799170947+801190160+803555796+806359137+809243790+812376772+816666748
1578+822435743+827635560+828662630+826015718+824000407+824278152+823957429
1568+819759477+813510853+809121235+808199813+810961291+817688492+825920226
1558+827256006+819668691+810667816+804248395+801188735+801059183+802208374
1548+803458446+805719301+810521357+817878858+826377686+832914521+832212076
1538+824827946+818211967+815811713+815788428+815212872+814519221+816375936
1528+821232488+826654254+830405398+832981155+835668382+838297583+840756978
1518+843964644+847364411+849089963+849391365+850884626+855567720+863591562
1508+873148362+878989069+876644673+870577435+866531082+865926111+868324755
1498+872167118+874956711+876085095+878020272+882909337+890336506+897685647
1488+902184134+903410425+903285332+903854694+905519186+907683496+910757956
1478+916644985+926856298+940828044+955178911+963732668+963413308+959491801
1468+958334187+961623041+966810845+969927725+970363696+971459692+976649415
1458+986167448+993581489+991539486+983316670+975698144+971671670+970845060
1448+970727335+969150286+966519227+964645482+964494998+966117069+969351736
1438+973277021+975348625+974003680+972019456+972704004+975654547+977911686
1428+978219157+978435347+979920434+981668032+982838155+984515652+987017715
1418+987715206+984750977+980328661+977703238+977814274+978980929+979400242
1408+979123611+979160953+979692664+980038096+980226604+981152485+983378412
1398+986577595+989651188+990925659+989497298+987336890+987657737+990918600
1388+994064339+994207949+992604270+992338725+993988601+996207036+998585801
1378+1002360415+1008334329+1014744027+1018165220+1017465190+1015273384
1370+1014368683+1015171018+1017329940+1021146541+1025910574+1028711066
1361+1027603986+1025045878+1025180694+1028611177+1031584076+1030629895
1352+1027217433+1025847284+1029153168+1036093648+1043136185+1046964676
1344+1046992048+1045422925+1045227977+1048094980+1053472530+1059414241
1335+1064429266+1067771254+1068426201+1065882708+1062159989+1060741970
1327+1062670644+1065366851+1065848152+1064348265+1063690097+1064993551
1318+1066415410+1066204484+1065195311+1065254142+1066063785+1064995161
1310+1061097063+1057197602+1056590959+1059562248+1063824233+1067297012
1301+1069871468+1072261009+1073741823+1072636662+1069168961+1065260087
1293+1061344773+1056362446+1050792920+1046559793+1043852564+1040937877
1284+1037512225+1035273664+1034307097+1032253328+1027862286+1022513161
1275+1017638649+1013504111+1010720958+1009712714+1008303055+1003365253
1267+995903838+990473773+988896600+988178549+985303000+981103252+978001234
1257+976547668+975361753+972807114+967673249+959739883+950279195+940834608
1247+931834290+922810440+913497883+904417803+896625384+890784305+886339634
1237+881975654+876997227+871784467+867069233+863671201+862143508+861707970
1227+860520941+857735993+854415617+851980003+850744422+850146944+849710106
1217+849541973+849982588+850946306+851913616+852701770+853852076+855891725
1207+858574927+861464966+864871483+869402915+874804245+880077137+884647460
1197+888337544+890839297+892485025+894636144+898236989+902574774+906023525
1187+907615065+907841597+908634271+912126867+918578552+925833191+931442164
1177+934951543+937545940+940844393+946693522+955901731+966419462+974782420
1167+980258683+985508724+992278345+998644632+1001820840+1002457332+1003788529
1157+1006804963+1009011941+1008689546+1007405104+1007317353+1008697410
1148+1010311121+1011348657+1011770570+1011359309+1009812789+1007261618
1140+1004833930+1003884641+1004393810+1005137499+1005186236+1005656453
1131+1009077584+1015644145+1021568083+1023266820+1021750584+1019895169
1123+1019013072+1020064293+1023590330+1028061755+1031706321+1035531592
1114+1041479125+1047777415+1049358180+1044130867+1037045538+1034843638
1105+1038043997+1041078576+1040879913+1040267324+1040770177+1040115849
1097+1037348116+1034653396+1034649681+1039015519+1047587297+1056283302
1088+1058361718+1051172041+1038867388+1026451140+1017060493+1013149637
1080+1014367816+1016733515+1017523526+1017958629+1019029978+1018474920
1071+1014624259+1009122358+1003411761+997787801+994113571+994201632+996497229
1061+998152865+999099491+1001280211+1005331580+1009047054+1008310486+1000797114
1051+989078977+979401170+977190353+983460281+993496710+999808686+999097695
1041+993871310+987819368+983549828+983007156+986460490+991233316+993375703
1031+991248674+986925319+983706257+982678010+982207980+981432212+981930234
1021+984415205+986971145+988793243+992400095+998158500+1001046620+997572974
1011+990062759+981535321+973350777+966888254+962511517+957994018+950655715
1001+940582872+930257179+921676792+914633017+907620453+900582932+895646493
991+894288110+895083075+895051430+892873621+889609538+886436365+883281708
981+879803170+876293791+873232955+870784273+868899010+867189745+865037635
971+862615211+860953134+860113953+858544087+855153114+850744113+846633355
961+843183365+840053479+836969173+834453176+833986117+836864701+842704355
951+849488158+855449562+860337945+864732579+869162760+873875454+878696275
941+883068305+886891781+891098712+896758466+904093673+912768128+922094680
931+930345302+935285890+936262985+935479476+935933282+938287214+940592099
921+941150130+940627522+940311010+940358075+940709948+941804953+943664702
911+945152080+944909696+942389116+938418067+934723339+932282337+930673766
901+929166942+928462453+930256683+934748420+939989915+944137891+947384139
891+951493906+957733551+964789402+968924559+968080300+964361420+960761442
881+958386640+957489122+957895368+958090192+957078604+956849719+960097701
871+966253991+972053392+975634854+978033250+980364765+981575265+980514320
861+978790192+979548125+983484123+987692169+988234160+984459359+980023358
851+979173029+983574413+990948635+996743267+998770098+998695289+999250594
841+1000951066+1001489712+998600973+993055785+988037911+986439496+989402177
831+996446572+1005044546+1010236375+1008639384+1002998889+999156464+999306329
821+1001546005+1003965270+1005954449+1007441022+1009017514+1012659232
813+1019233967+1025907725+1030718637+1036285871+1044986335+1054019475
804+1058671480+1058137664+1053997305+1047192570+1039731650+1035462233
795+1036343092+1039778096+1041100994+1037886454+1031220808+1023824603
787+1017014666+1009057644+997971788+985538015+975742237+970133697+968075531
777+969973738+974951792+977574862+973256770+965044172+959366397+958602953
767+961343561+965870473+971564597+978609302+986099142+990380758+988782715
757+985345668+986094373+990256903+991089768+986479935+982382925+983857732
747+990020339+997265627+1003814724+1009376199+1011561812+1007921643+1000961593
737+996000135+995072521+994659154+991089644+987282951+988495309+994474486
727+1000936884+1005451658+1006792454+1003485455+998290654+997450357+1002929221
717+1009648248+1012177249+1011371942+1010251237+1008265465+1003240965+997138242
707+995850209+1002037896+1011113394+1015273260+1011368102+1003104724+996060205
697+993726709+995287162+995886189+992191523+987456286+987287719+991208483
687+992252336+986775578+980456170+977722436+975037314+968332717+960240940
677+956517044+957756526+957667969+951006659+941443667+938511578+948566028
667+965339753+973645614+970106015+961521727+953906855+949658556+946915842
657+943530938+941493209+943290721+946454543+946501360+943778092+942117935
647+941611491+940328040+940528314+944323488+948300854+948001000+943239011
637+935659562+926830226+920392908+920887586+928847891+938279783+941793124
627+939380733+937233825+936469204+930086692+917015869+906320839+903512792
617+905790429+909004165+911248485+911781806+912215114+916640836+926637383
607+937356070+941782844+936135538+922913426+908497411+897196481
##END=
