##TITLE=<SNM>
##JCAMP-DX=4.24
##DATA TYPE=INFRARED SPECTRUM
##DATE=29/4/2025
##SAMPLING PROCEDURE=Instrument type and / or accessory
##ORIGIN=Admin
##XUNITS=1/CM
##YUNITS=ABSORBANCE
##RESOLUTION=4
##FIRSTX=4497.3318
##LASTX=599.83466
##DELTAX=-1.4281778
##MAXY=2.179744
##MINY=0.51825148
##XFACTOR=1
##YFACTOR=2.0300448e-09
##NPOINTS=2730
##FIRSTY=0.52712673
##XYDATA=(X++(Y..Y))
4497+259662609+260033119+260361583+260472568+260678802+261146262+261604855
4487+261877416+262410968+263854955+265964619+267339254+266696184+264291586
4477+261812028+260934157+261874421+263224950+263444807+262412437+261179470
4467+260737172+261358896+262507244+263163380+262742340+261701366+260997489
4457+261279738+262553165+264012713+264458152+263488027+262015531+261208156
4447+261348825+261921223+262255618+261861884+260584552+258840641+257467386
4437+257010995+257378304+258218682+259323487+260589632+261790242+262613532
4427+263028729+263320462+263505468+263125181+261979975+260559830+259381798
4417+258593918+258465991+259415475+261259450+263095262+264105582+264131772
4407+263491169+262524597+261400442+260379875+260075046+260929194+262463143
4397+263548012+263583422+263071009+262829865+263015781+263205102+263020009
4387+262423183+261699340+261142798+260590043+259522673+257896971+256537369
4377+256370098+257483359+259035012+259921575+259672416+258818150+258306824
4367+258536752+259084574+259354169+259187573+258743426+258195457+257829616
4357+257955223+258444558+258854470+259073241+259295241+259592994+260016999
4347+260619639+261095790+261021741+260444587+259711995+259074944+258728804
4337+258690869+258605399+258236269+257996652+258490273+259665193+260636610
4327+260476943+259256161+257837338+256674809+255762232+255576493+256640603
4317+258244989+259075149+258900215+258321652+257513425+256626245+256611917
4307+258179161+260469339+261836222+261580368+260336244+259166521+258548056
4297+257970990+256791343+255562751+255633864+257305224+259374458+260601288
4287+260763215+260286976+259690032+259392309+259490963+259669480+259530895
4277+258953946+258115829+257318671+256829425+256785412+257149668+257718660
4267+258280928+258776399+259056417+258635641+257277331+255770394+255290661
4257+255949468+256836648+257502884+258338916+259438113+260204911+260262606
4247+259908187+259534154+259307221+259455348+260166125+261109707+261577403
4237+261194033+260194283+259061584+258282983+258223791+258837059+259827590
4227+261212208+263141124+265101604+265946474+264929752+262502106+260057577
4217+258846132+259038330+259838688+260419894+260545061+260405889+260322356
4207+260624249+261505849+262715092+263454467+263013637+261567802+260067706
4197+259375603+259596223+260061834+260013623+259466652+259119367+259348502
4187+259881380+260464523+261086453+261586417+261836222+262082093+262396141
4177+262340824+261836545+261578812+261992894+262539747+262574452+262266687
4167+262157992+262234537+261901052+260858845+259780612+259785222+261174655
4157+263019510+264184212+264437364+264364607+264522541+264919124+265170926
4147+264932101+264142900+262979402+261803338+261200140+261602741+262649441
4137+263367352+263269080+262807668+262519106+262481817+262848921+263864556
4127+265044790+265434795+264892493+264152002+263675557+263288870+262832919
4117+262513615+262606808+263070921+263511545+263632661+263675411+264177899
4107+265297913+266493914+266964927+266447465+265403085+264397727+263713639
4097+263562751+264049825+264747859+264801003+263746612+262100884+260965896
4087+260922852+261395363+261475020+261196088+261366295+262361348+263740358
4077+264911548+265593669+265617951+264873614+263675645+262747478+262545237
4067+262835855+263066634+262842256+262085499+261194121+260863249+261301290
4057+261930031+262305033+262850947+263984115+264964222+264632587+263194943
4047+262132506+262307294+263140977+263664929+263595225+263270754+263095232
4037+263142915+263169810+263085749+263195295+263734221+264434487+264783034
4027+264583848+264142284+263921164+264069556+264392119+264728129+265030784
4017+265131288+264830570+264211077+263600892+263272574+263311889+263655416
4007+264104055+264426031+264585345+264805672+265293832+265961154+266488482
3997+266566201+266105905+265347768+264686171+264336039+264239088+264235799
3987+264265983+264424357+264768559+265128822+265341837+265618479+266369687
3977+267647341+268913369+269425752+268970007+268140052+267635714+267456053
3967+267192976+266883185+266988181+267687566+268557833+268946283+268666088
3957+268235007+268199832+268441886+268586108+268756374+269278652+269974895
3947+270372564+270359469+270196338+270141667+270265102+270419248+270438392
3937+270419777+270611036+271063552+271540701+271677525+271282146+270653815
3927+270454570+271093559+272209227+272878957+272552666+271689328+271263942
3917+271636536+272138672+272102763+271788275+271731109+271745437+271233700
3907+270330548+270037464+271037038+272775077+274200448+274941556+275017719
3897+274355065+273292951+272716619+273282586+274680857+275819427+276191611
3887+276390856+276941321+277491345+277507141+277117547+276601552+276093984
3878+275982324+276628300+277690297+278637197+279800372+281640764+283263032
3868+283362273+282167388+280932307+280403217+280301480+279967496+279145557
3858+278290558+278642041+281672504+286508389+288614295+286498025+282832743
3848+279742442+278120263+278253445+279795175+281794852+283515538+284860724
3838+285740211+285915145+285600392+285241569+284798478+283975013+282994083
3828+282497290+282721669+283480217+284939647+287230940+289060204+288935125
3818+287688065+287121246+287479483+287630605+287095115+286363315+286118325
3808+286543975+286996960+287181907+287994068+290087701+292490273+293972605
3798+294698239+295127853+295277184+295495866+296461000+298201006+300011655
3788+301488467+303105714+305363183+307934964+310420951+313330151+317388022
3778+322217801+326768471+330706019+334540510+338986243+344316219+350186648
3768+356293699+362370978+367536443+371256748+374514936+378406828+382202004
3758+384239381+384479321+384548643+386125283+390149741+396031415+401605207
3748+405812997+409718366+414192139+418234654+420926904+423453791+427551917
3738+433789596+440975849+447035834+451081197+453680930+455511046+457151840
3728+459387611+462664179+466492798+469832493+471726175+471598571+469833021
3718+467536884+465493634+464226491+464227108+464980547+465027730+464004784
3708+462931484+462722843+463668246+465554823+467291306+467525844+466615880
3698+466363285+467665280+469755214+471728789+473855042+476676335+479503588
3688+481163350+481840890+482146570+482070935+481872424+482356503+484109898
3678+487066575+490087524+490927961+488976319+486158901+484333131+484075427
3668+484458797+484335686+483592141+482564645+481440285+480580676+480537133
3658+481090504+481031400+479776090+478332984+477823948+478032531+477584918
3648+475856804+473909507+472710364+472358881+472678948+473132961+472860048
3638+471607879+470113069+469305458+469671446+471395979+474232921+476859666
3628+477985523+478301949+478886737+479618772+480034057+480489039+481581454
3618+482767736+483368203+484063830+485620093+487741238+489895619+491999822
3608+493565657+493815111+493115021+492749885+493596076+495263501+496516639
3598+496948660+497391310+498313253+499019509+499107945+499537735+501540759
3588+505185194+509083957+511645021+512291203+511439257+510293288+509909301
3578+510096744+510021931+509586856+509502883+510556952+513372578+517994508
3568+522840581+525069394+523642613+520668613+518942465+519555528+521462952
3558+523067837+524129129+525154130+525723151+525261592+524764506+525603181
3548+527215524+527878854+527418469+527113230+527080698+526149007+524354682
3538+523368497+523997767+525065283+525147729+523871807+521473992+518619550
3528+516495264+515916084+516594152+517811059+519149579+520141285+519976509
3518+518399752+516519223+515599041+515392573+514686905+513379213+512916480
3508+514327053+516823405+518611388+518733530+518201798+518794191+520660861
3498+522185473+522262635+521721331+522082298+523474021+524203648+522604869
3488+519238191+516405947+515428100+515534035+515328037+514435690+513555087
3478+513370581+514113832+515806332+517886223+518852796+517649689+515236488
3468+513332529+512242757+511393395+510815801+510580382+510034439+508754817
3458+507213352+505638591+503334790+500172642+497645403+497267171+498701409
3448+500099533+499982205+498527532+497010906+496343231+496502428+497022533
3438+497388198+497106095+496034762+494549788+493045376+491651568+490505746
3428+489733868+489155863+488592831+488171380+487924804+487784281+488079832
3418+489217492+490868944+492128307+492425325+491966086+491385761+490979490
3408+490432372+489514305+488606484+488183800+488235505+488521953+488965778
3398+489489083+489760205+489432123+488660274+488103144+488219474+488790667
3388+489348414+489846292+490532406+491230646+491298969+490584551+490027539
3378+490771935+492836030+495301436+497412450+498644683+498421655+496923116
3368+495511251+495321284+496114566+497248204+498747330+500674015+502531760
3358+503850961+504567140+504622692+503756065+501950290+499878149+498562765
3348+498602168+499618243+500722050+501664135+502892727+504378289+505121304
3338+504165243+501781463+499350293+498049648+497787335+497757328+497924922
3328+499009996+500873026+502186413+502208140+501628902+501169457+500685114
3318+499930471+499051160+498203560+497472582+497137923+497408340+497956514
3308+498177839+497851519+497307631+497013666+497231996+497930207+498619961
3298+498477089+497276743+496002112+495779378+496647414+498017997+499580896
3288+501100340+502120056+502422830+502275436+502126927+502348898+502897601
3278+503088214+502231747+500687697+499772684+500325967+501692615+502528530
3268+502433928+502109017+502006135+501919049+501886400+502249246+502600465
3258+501910887+500013093+498088699+497324543+497690913+498369979+498822906
3248+498930427+498631764+498226579+498479497+499562809+500445585+500119675
3238+498924261+498092222+498486015+499901579+501278798+501723386+501319963
3228+500721815+500318568+500090725+499817959+499184167+497933965+496002934
3218+493517505+490964545+489270137+489025058+489507816+489237457+487821805
3208+486489685+486341763+486863894+486668407+485295769+483719481+483093088
3198+483568388+484367660+484637695+484117825+483068953+481892360+480877723
3188+480048033+479263618+478620959+478535518+479065459+479503940+479163438
3178+478190377+477154336+476223878+475166256+473936754+472908494+472381489
3168+472028919+471182669+469745965+468379786+467623059+467290836+466873848
3158+466227137+465733956+465808827+466304210+466574393+466190612+465354903
3148+464483490+463691559+462837234+461846733+460785118+459726528+458912752
3138+458870824+459746347+460683734+460597412+459400530+457782314+456324440
3128+455341044+454839025+454478939+454157404+454278930+454832772+454906821
3118+453864526+452224818+450795659+449746875+448945754+448490654+448409147
3108+448396786+448317335+448424503+448669582+448456713+447565804+446639457
3098+446373532+446728510+447068073+446848450+446222527+445789772+445617216
3088+445190098+444524302+444224994+444259787+443887750+442928812+441996328
3078+441409691+440898276+440440975+440504836+441158623+441602682+441148082
3068+440171938+439415357+438973060+438680504+438645711+438691867+438142107
3058+436780391+435390606+434903004+435365473+435990280+436088875+435706504
3048+435191243+434557363+433683396+432693335+431789009+431187925+431287372
3038+432210988+433256689+433518386+432927638+432146775+431678111+431424430
3028+430902681+429770247+428316895+427313239+427159004+427438523+427523407
3018+427209564+426519634+425507493+424574745+424224994+424211458+423769425
3008+422879250+422350484+422519663+422765241+422443353+421645608+420900156
2998+420507038+420251155+419692469+418749591+417898379+417730051+418345845
2988+419153015+419278740+418358265+416948279+415961389+415761145+416046624
2978+416417075+416577534+416181598+415146614+414019788+413482800+413650130
2968+414129394+414496996+414589866+414573629+414613678+414380462+413432651
2958+412182273+411580896+411703039+411637182+410946165+410213191+409937577
2948+409837014+409440549+408683940+407757915+406860489+406209726+405997767
2938+406245459+406743631+407084456+406846307+405964472+404846219+403969639
2928+403439904+403046492+402691074+402463760+402293787+401952110+401485619
2918+401233259+401295828+401389666+401319875+401264999+401473816+401853222
2908+401999969+401705388+401243271+400877812+400360144+399371110+398200184
2898+397470703+397384205+397607527+397703685+397411570+396699824+395810472
2888+395150901+394930926+394953358+394934508+394931249+395169457+395548188
2878+395676996+395420525+395089918+394956294+394826606+394386040+393781228
2868+393366765+392990354+392218593+391238720+390782094+391124182+391782931
2858+392182361+392129218+391700602+391035775+390243198+389384088+388570077
2848+388015766+387865377+387959568+387879999+387374487+386705814+386355740
2838+386407357+386500197+386385248+386198422+386131390+386093015+385843298
2828+385383736+385023326+384959289+384949894+384588633+383804893+382952595
2818+382488482+382558273+382776780+382536752+381672885+380638870+379950496
2808+379649484+379371404+378833330+378163923+377704096+377606764+377817930
2798+378279988+378832361+379107241+378859960+378203736+377367910+376493238
2788+375690531+375086042+374832419+375028200+375410983+375350058+374520544
2778+373348473+372475915+372076955+371895443+371670859+371366383+371107035
2768+370976495+370905764+370803616+370707018+370697270+370735880+370699824
2758+370553194+370392059+370303506+370231659+370018320+369582541+369036862
2748+368569930+368187705+367694965+367023268+366390445+366015325+365880880
2738+365858037+365810266+365573497+365117135+364645770+364299601+363949174
2728+363509137+363175946+363127148+363262004+363371375+363286432+362830599
2718+361968465+361034396+360475445+360347107+360324705+360147568+359804600
2708+359410631+359128909+359070128+359127617+359098520+358992262+358962314
2698+358975526+358830805+358478793+358133769+358076720+358382458+358769704
2688+358757930+358124637+357205483+356606543+356615205+356983366+357240394
2678+357085484+356493297+355636888+354804321+354272412+354138085+354277668
2668+354501489+354702173+354818796+354766239+354490919+354015032+353407460
2658+352823112+352468399+352312843+352011538+351379273+350716501+350406182
2648+350436982+350518607+350454217+350272354+350136264+350178251+350384367
2638+350633380+350778336+350692043+350379933+350068499+350026923+350229340
2628+350288091+349849199+349041384+348382693+348219592+348417868+348625893
2618+348643950+348476356+348209022+347960126+347825211+347763934+347642496
2608+347457197+347354492+347353494+347276362+347055213+346862368+346848627
2598+346972267+347119749+347210945+347168606+346909610+346418015+345818223
2588+345346682+345191831+345352525+345636771+345799520+345770071+345721889
2578+345827619+346033265+346163277+346115712+345897411+345629754+345508169
2568+345559287+345499683+345064902+344413816+343973544+343925040+344066620
2558+344173788+344253944+344392970+344564528+344685261+344742016+344794955
2548+344877871+344913192+344801385+344607894+344524420+344625393+344796041
2538+344883596+344792341+344494883+344112247+343939720+344208464+344792018
2528+345295241+345471056+345395216+345227651+345038976+344910286+344966043
2518+345220076+345498832+345564983+345335759+345001599+344877313+345120747
2508+345639560+346201006+346550845+346556571+346342968+346155702+346033764
2498+345794206+345400941+345126238+345203281+345484562+345626729+345543020
2488+345504704+345759941+346153646+346277668+346023253+345759706+345862647
2478+346325674+346916187+347414066+347651745+347594902+347372755+347119308
2468+346943875+347007677+347324220+347598102+347574055+347358867+347175741
2458+347084721+347092854+347221662+347359102+347316440+347110441+346976290
2448+347047814+347213910+347346388+347480129+347673883+347870428+348005196
2438+348077336+348051557+347922603+347884550+348122230+348457711+348541420
2428+348329579+348069732+347931969+347950525+348174581+348592744+349025440
2418+349316645+349563808+349986023+350574217+351019333+351056035+350777896
2408+350553928+350725310+351354844+352136822+352622692+352687492+352645300
2398+352800886+353116490+353422522+353697108+353985553+354217566+354269359
2388+354137145+353859828+353256660+351932086+349582335+346140228+341698576
2378+336542037+331176651+326068176+321350792+316852796+312283746+307446628
2368+302568168+298408561+295683808+294314634+293573821+293091680+293417472
2358+295456023+299660201+306039460+314510474+324275877+332976877+337755009
2348+337334967+333016427+328043953+325160179+324474389+324727541+325414037
2338+326630943+328200800+329675909+330846014+331978800+333454937+335252139
2328+337063199+338766239+340424269+342103585+344041692+346639927+349905573
2318+353168165+355689856+357426075+358906527+360496762+362161926+363888103
2308+365808035+367804482+369442282+370471834+371106712+371680636+372282278
2298+372837352+373334585+373808475+374227901+374551520+374786264+374903591
2288+374877313+374859843+375085572+375551564+376040018+376476532+376971034
2278+377463598+377627170+377276479+376717529+376473449+376691838+377039475
2268+377194209+377170221+377068337+376833623+376452279+376150446+376185532
2258+376527444+376880131+376992879+376859344+376636844+376465433+376375294
2248+376334511+376373826+376611711+377090329+377642291+377981354+377902020
2238+377445717+376966542+376936622+377530366+378425296+379097874+379292598
2228+379144177+378900009+378688197+378579590+378628153+378704815+378514496
2218+377926713+377123243+376388125+375892537+375625026+375444337+375281030
2208+375223159+375296122+375344949+375264676+375134928+375065372+375114875
2198+375359336+375845118+376462468+376980048+377255574+377370729+377483388
2188+377624351+377806655+378210548+378956236+379771040+380221676+380261637
2178+380276875+380605134+381202518+381788862+382210490+382574510+383017894
2168+383476194+383803337+384031357+384327054+384744071+385207186+385669362
2158+386093015+386384396+386518460+386593624+386659805+386657514+386573336
2148+386503544+386561767+386791284+387114522+387390489+387576375+387713873
2138+387766606+387713903+387751397+388106198+388714534+389309158+389720450
2128+389953755+390114361+390351893+390787878+391442194+392186912+392742192
2118+392880014+392748828+392794573+393265615+394020669+394854088+395727145
2108+396637226+397525785+398363608+399149110+399848084+400478411+401148757
2098+401849199+402337770+402439625+402372182+402576419+403253959+404198745
2088+405042205+405547982+405693790+405613928+405531217+405680020+406168650
2078+406857406+407447860+407760558+407886870+408055227+408393381+408819031
2068+409157478+409384998+409685980+410174316+410679946+410972326+411095995
2058+411315382+411787541+412421832+413031400+413542462+414061246+414757343
2048+415665104+416614207+417414330+418071992+418720289+419421934+420210401
2038+421172246+422252535+423171923+423790124+424349251+425161676+426278696
2028+427570708+428909757+430204441+431413713+432577887+433762319+434958085
2018+436116710+437325541+438804409+440580089+442354917+443882377+445232584
2008+446537897+447796496+449064402+450534902+452327523+454373591+456494559
1998+458503661+460286535+461837807+463222483+464500872+465666513+466698326
1988+467715106+468936417+470369774+471713345+472743396+473654123+474836588
1978+476440094+478328786+480385394+482637960+485061848+487472201+489712757
1968+491782373+493711818+495486235+497163467+498924496+500926581+503196498
1958+505717044+508469778+511274423+513767369+515746611+517482859+519531334
1948+522202855+525256660+528170470+530664296+532800621+534704286+536580705
1938+538872526+541865612+545199405+548225140+550816740+553390958+556136822
1928+558653844+560537661+562054346+563872629+566229456+568815419+571399737
1918+573996269+576503250+578777220+580970974+583309833+585697196+587860062
1908+589706239+591244592+592428496+593322781+594115065+594848685+595562515
1898+596634671+598388946+600430551+601994977+602909874+603608554+604395259
1888+605309216+606486837+607956837+609147024+609332235+608725162+608417163
1878+609066692+610287533+611427043+612316336+613123946+614041544+615088684
1868+615749547+615277829+613836955+612537720+612158901+612386157+612410997
1858+611918432+611219400+610653198+610132212+609331119+608271061+607476370
1848+607385232+607782960+607878208+606932541+605095231+603257041+602015178
1838+601310801+600729214+599898995+598757841+597565129+596629562+595981207
1828+595451941+595013225+594649557+594049002+592850006+591115931+589309157
1818+587907334+587041001+586423064+585679168+584697739+583678551+582964427
1808+582772287+583004887+583412068+583868401+584304709+584546822+584506773
1798+584336360+584207582+584233772+584520338+584874670+584850241+584640719
1788+585067984+586471510+588227489+589451735+589999381+590365986+591010289
1778+592255500+594423475+597530071+600841726+603097375+603826825+603928944
1768+604234536+604760689+605354432+606135148+607283407+608819999+610609038
1758+612332367+613644756+614793721+616703082+619848670+623243652+625112789
1748+625099283+624632968+625077967+626669875+628786821+630620783+631642319
1738+632009805+632616408+634374266+637101984+639287283+640118382+640143046
1728+640101999+640591510+641904956+643852781+646169089+648987417+652471833
1718+656032295+658383074+658935711+658270092+657170807+656340941+656410762
1708+657643523+659709498+661867667+663721771+665634421+667984378+670381195
1698+672420862+674350072+675772683+675757709+674590599+673427248+673112026
1688+674229984+677424958+682631646+687351173+688762627+688002170+687296091
1678+687439374+688509944+690320417+692355915+694220706+695903106+697316027
1668+698297809+699203897+700540714+702070024+702998779+703327625+703979386
1658+705153953+706211956+707204954+709314618+712472538+714549670+715551769
1648+716704374+717785396+717547746+716091663+714673339+714062332+714489890
1638+715948557+717990338+719483475+719736099+719636388+720247219+721633716
1628+723168722+724497083+725757327+726602813+726216596+724944197+724413110
1618+725784457+728341117+729834547+729596662+729091355+729462423+730764300
1608+732645593+734742455+736426793+737121362+737081959+737201518+738034732
1598+739610433+741940835+744905322+747810324+749915819+751351349+752847892
1588+754753906+756852883+758858608+760536427+761653036+762446964+763794821
1578+766236796+768950480+770418307+770744628+771207714+772089549+772754464
1568+772755991+772304239+771881848+771973748+772793808+773995388+774518253
1558+773341219+771562515+770882743+771411422+772003756+771451118+770043951
1548+769506758+771120511+774482784+778045008+780873788+783767456+787230791
1538+789495189+789744408+789293067+789233992+789265878+788844133+788913602
1528+791109060+795812438+801500005+806492004+810599759+814549904+818869531
1518+823508020+828002229+831834459+834974820+838021402+841759323+846837409
1508+853414798+859976097+863762347+864758574+865088066+866564878+870668817
1498+877267287+882807461+883767397+882198743+882620606+886609801+892014384
1488+895831816+897758148+899466914+902314896+906303093+909932554+912099590
1478+913945414+917332998+922515257+928035054+931889011+933418028+934315953
1468+936570780+940805317+945996914+949892036+951097961+950677860+950924788
1458+953525196+957314324+958449488+956240172+953340925+951417176+950236384
1448+949304634+948631087+947501208+944683644+940657630+937890039+938517195
1438+942685611+947699807+949360127+947328623+945003271+944453217+945251432
1428+946282364+946935534+946962018+946791371+947542431+949687799+952145687
1418+953077496+952003461+950345021+949390252+948983364+948077099+946493941
1408+945698251+947079874+950416721+954282188+956868561+956695447+953679930
1398+950111247+949217549+951928943+955952608+958511382+959479363+960261840
1388+961127058+961347795+961387551+962790020+965634772+968136233+968820291
1378+968213336+968301654+970496936+974363401+978538453+982197158+984867622
1368+986505920+988660918+993471700+1000617288+1006470276+1007641907+1004880893
1358+1001711405+1000970210+1003540846+1008520983+1013889510+1017867607
1350+1020903207+1025480273+1032257436+1037680458+1037982409+1034716734
1341+1032552223+1033578809+1036312107+1039300142+1042604926+1045547158
1332+1046015646+1042823726+1037608582+1033612164+1033184664+1036689810
1324+1042981925+1049589497+1052835441+1051240891+1048542827+1050022399
1315+1056997457+1065761554+1071599392+1073344976+1073270516+1073400763
1307+1073085306+1070948629+1068239643+1067809090+1070359173+1073399353
1298+1073741823+1070417543+1064889290+1059227267+1055340191+1055417352
1290+1060573774+1068279809+1073142384+1071469850+1064580644+1056665205
1281+1050408088+1045858387+1042294402+1039526693+1037477748+1035982908
1273+1035051452+1034335508+1032932510+1030860898+1029827499+1031131256
1264+1033693318+1034965835+1032912662+1027714664+1021700894+1016919943
1255+1013117427+1008599084+1002968654+997900198+994677507+992791928+991116693
1245+988701907+984435365+977673881+969757620+962609918+956758339+951689120
1235+946948512+942569282+938412141+933660552+927815491+921507110+915356281
1225+909216316+903265731+898565935+895789771+894270326+892619637+889854630
1215+886449430+884096067+883588587+883743497+883317054+882626595+882345021
1205+882674161+884014090+886796127+890674102+894486953+897167694+898906056
1195+901271339+905318023+909619739+912044978+913038798+914583669+917127821
1185+919472786+921018362+922909050+927171012+934462994+942269974+946840639
1175+947748899+948434954+951684011+956851179+961571528+964698794+967296032
1165+971104890+976564144+982737874+989542578+998175489+1007991306+1015774032
1155+1019742029+1020996928+1020467839+1018505568+1016098533+1014467340
1147+1014265334+1015464213+1017708586+1020891698+1025305632+1030582905
1138+1034234975+1033690382+1030547672+1028370712+1027767632+1026622426
1130+1024460263+1024881186+1030632585+1038234446+1040705371+1037128584
1121+1033653387+1034450486+1039277123+1046078127+1052646238+1058264571
1113+1063339956+1068092249+1071010757+1069281732+1063961357+1060016380
1104+1058639103+1055162731+1048352214+1044662680+1048210223+1054465695
1095+1055089211+1048782063+1043051687+1043958715+1049516916+1053583214
1087+1054934770+1058068790+1064555276+1068339824+1064986652+1058872818
1078+1055117045+1053469527+1050810455+1046385128+1043334142+1045702185
1070+1052004988+1054243489+1049127938+1040958583+1034595413+1032187791
1061+1032636079+1033229880+1033658202+1035483062+1037287370+1035700336
1053+1031817017+1030669697+1033957100+1037274803+1035120157+1026520718
1044+1014938999+1005356310+1001767896+1004540537+1010767470+1017033630
1035+1020417807+1019033131+1014433281+1010677273+1009433530+1008713005
1027+1007590466+1009754272+1017988105+1027843619+1030846569+1024616700
1018+1015850137+1010647911+1008940144+1008378404+1008457562+1009166695
1010+1008965394+1006764710+1003858417+1002469630+1003098195+1003331911
1001+1000425970+995181581+989830905+984262780+977027171+969076086+963113052
991+959459691+956415047+952884123+948673015+944120848+939787774+935557993
981+930627241+924824931+919187865+914882332+912266480+910861955+909662431
971+907903868+905867314+904365016+903356398+901926858+899440254+896008159
961+892312342+889519559+888843311+890330575+892060305+891701393+889188540
951+886571983+885653564+887007469+890360876+894835295+899523112+904319976
941+909824681+916496319+923866873+930730299+936471186+941823683+946937296
931+949799078+949533770+949220896+952162776+957724207+963115930+967558580
921+972180979+976858754+979493457+978517254+975381590+973576050+974799298
911+976774312+975829114+971760292+968307350+968549933+971086568+971880027
901+969552796+966610916+966317715+969584682+973553559+974037843+970676216
891+967871395+969417147+974742983+980245868+982770172+982341908+982017819
881+983773328+985535120+984858578+983578369+985043378+990057104+996905909
871+1002044949+1001916934+996416163+990672986+990073194+993982233+997933317
861+1000050381+1000808958+1000296310+999781314+1001872892+1007110938+1011747784
851+1012150855+1010367570+1010027449+1011600508+1014037491+1016361845
843+1017373281+1016141518+1013128232+1009432238+1005506052+1002715207
834+1005085717+1015282408+1027653593+1031293800+1024046622+1015424164
825+1014650906+1021939072+1030926902+1037673646+1042736347+1045730255
817+1047242124+1050923789+1057403464+1062556010+1064114505+1063770979
808+1062525592+1058564408+1050372620+1039743027+1031116928+1029982409
800+1038343200+1049475106+1053113316+1048134941+1041850107+1039054330
791+1038354827+1037653563+1038678271+1043777732+1049644696+1049028227
783+1039912148+1026922498+1015434499+1008388387+1006433281+1007126441
774+1005820453+1001218841+997731194+998972118+1001594782+1000606835+996739372
764+993472404+990811336+985231760+976954120+972916890+980404360+999219105
754+1019995005+1032290673+1035610020+1035242300+1033518090+1031652594
746+1032088315+1034808928+1036788229+1038194867+1040887763+1040462612
737+1033219428+1027051922+1029199756+1034009950+1035025497+1036006280
728+1038995255+1037479157+1028261136+1019062844+1019214583+1029882229
720+1041763668+1043286225+1034767940+1025728082+1022087288+1023189626
711+1026141841+1030145188+1036882889+1046778334+1055247174+1054793249
703+1043673676+1030803115+1027260387+1035332498+1043518648+1036322324
694+1016426204+1000906672+997665778+999169191+993826736+981999028+974482079
684+978463581+991770627+1003977389+1004671253+996144748+991059732+996481110
674+1005615981+1006433281+995323337+975532507+955913029+953228765+969872305
664+990928429+1004604310+1008907377+1008586165+1008457680+1008841607+1008132944
654+1007095788+1005733778+1001448915+993712227+987363621+988319741+996278987
644+1006132387+1013432414+1016118264+1008850298+988835089+965280969+947201547
634+937298410+935943976+943174182+954307615+958237500+948343700+932627858
624+924101822+929298821+947750309+971718129+985404639+976854820+953270341
614+932170644+924071638+928534078+937344918+938051467+927393863+915614895
604+911684540+917169220+928401952+943603796
##END=
