##TITLE=<SNM>
##JCAMP-DX=4.24
##DATA TYPE=INFRARED SPECTRUM
##DATE=29/4/2025
##SAMPLING PROCEDURE=Instrument type and / or accessory
##ORIGIN=Admin
##XUNITS=1/CM
##YUNITS=ABSORBANCE
##RESOLUTION=4
##FIRSTX=4497.3318
##LASTX=599.83466
##DELTAX=-1.4281778
##MAXY=2.210834
##MINY=0.51123536
##XFACTOR=1
##YFACTOR=2.0589996e-09
##NPOINTS=2730
##FIRSTY=0.52070713
##XYDATA=(X++(Y..Y))
4497+252893260+252759808+254098351+255522812+256001647+255348919+253953985
4487+252539974+251717204+251685940+252476172+253897044+255163824+255561140
4477+255540528+256081486+257208996+258160412+258521456+258267868+257391081
4467+256307544+255927076+256708594+258160238+259400154+259689840+258833027
4457+257710265+257641252+258653113+259374680+259019194+258106018+257091842
4447+255997247+255393963+255895551+256665027+256183616+254474042+253123833
4437+253228511+254265962+254888409+254386966+253473066+253723267+256029553
4427+259509753+262091193+262353407+260606664+258093426+255753328+253937079
4417+252775585+252363765+252691924+253660507+255012974+256096713+256105513
4407+254981188+253663894+253069324+253319090+254139515+255348775+256724198
4397+257929636+258668456+258546670+257310054+255744556+255536997+257507887
4387+260403678+262078369+261655057+259883273+257808169+255977822+254637253
4377+253902457+253758497+254129528+254827010+255457534+255653543+255413185
4367+254943006+254156131+252801754+251263265+250539701+250967268+251679455
4357+251943146+252071619+252337364+252236045+251584534+251146661+251532282
4347+252380584+252965109+253063273+253022543+253223792+253620124+253865808
4337+253801138+253545032+253265970+253192441+253469274+253696721+253303255
4327+252526397+252125318+252189120+252226811+252248580+252695803+253414185
4317+253670957+253230305+252642480+252424210+252494120+252523560+252564812
4307+252947827+253586746+253937919+253781482+253507341+253489943+253662996
4297+253739217+253542282+253239453+253262409+253708735+253993992+253584633
4287+252822105+252379166+252174096+251526955+250218953+248847467+248293077
4277+249080993+250897184+252568199+252931558+251943406+250695385+250380514
4267+251406183+253219102+254818151+255487292+255109835+254137633+253367318
4257+253268778+253459634+253266085+252652351+252115446+252081779+252706080
4247+253767616+254796787+255600857+256174092+256168273+255471081+255019921
4237+255719256+256840657+256819380+255465176+254149676+253951727+254651467
4227+255367736+255465002+254896515+254027196+253308697+253140276+253817899
4217+255228668+256558092+256713718+255455218+253906539+253398495+253974886
4207+254534979+254421762+254147215+254220107+254181924+253428717+252276602
4197+251634180+252046434+253275552+254498012+255095071+255305063+255659217
4187+256091068+256195224+255937729+255558158+255180498+254911249+254931831
4177+255211038+255525099+255826770+256167666+256414798+256487284+256635442
4167+256998512+257259134+257262434+257452741+258189737+259209964+260044081
4157+260316688+259615791+257935686+256155652+255290531+255439875+255976317
4147+256422990+256723792+257033569+257472512+257793289+257484555+256575316
4137+255946616+256396937+257695154+258854073+259132064+258629318+258056864
4127+258019868+258457306+258753101+258451864+257755135+257194087+256974109
4117+256944987+257111266+257607296+258110679+257963245+257089381+256134114
4107+255568203+255340843+255425575+255919607+256555805+256819988+256641637
4097+256521791+256912304+257681751+258239239+258145649+257576495+257109529
4087+257087789+257388273+257868671+258683161+259815100+260599658+260340194
4077+259334007+258505534+258110071+257677727+257115753+256921278+257278645
4067+257759043+258009852+258164581+258460288+258728466+258429863+257268861
4057+255674733+254481019+254215070+254815228+255846802+256889840+257846091
4047+258806510+259532506+259397375+258184671+256657182+255862058+256008218
4037+256394679+256454254+256492640+257168410+258528172+259820137+260157096
4027+259319012+258015757+257315294+257700336+258804947+260020257+260980734
4017+261478877+261309674+260380374+258953915+257695733+257237278+257582719
4007+258197177+258875523+260028883+261732089+263110088+263246637+262296292
3997+261137374+260333507+259921167+259842717+260034384+260242812+260231811
3987+260076619+260023065+260193542+260506155+260790746+260974105+261193476
3977+261663336+262425228+263291710+263942585+264085416+263678547+263053697
3967+262764561+263196470+264165169+264946485+264971699+264430075+263893199
3957+263604671+263484101+263542316+263963283+264819430+265758139+266136465
3947+265834475+265644864+266233702+267161931+267508472+266988849+265891851
3937+264672257+264197099+265479945+268385896+270992174+271344215+269871410
3927+268697467+268874805+269411073+269074780+268353098+268685772+270358813
3917+272020477+272244132+270969739+269013381+267073002+265745228+265786189
3907+267793844+271691856+276527417+280835135+283527794+284158637+282559298
3897+279385083+276452817+275428972+276290967+277058070+275971812+274370128
3887+274979462+278078846+281086812+282241272+282264604+281299235+278703378
3878+276034224+275844005+278439080+282235222+286317489+290082975+291431708
3868+289582863+287050751+285924978+285295931+283366321+280642252+279006641
3858+279754753+283950759+292190646+299947183+298644392+289973898+281642620
3848+277461060+277630002+280817071+285464034+290268273+294310042+296864676
3838+297183919+295269709+292355884+289634362+287453278+285820649+284928895
3828+284840544+285269356+286520330+289728994+294570172+297804108+297825501
3818+297221088+297121014+295191201+290642170+286093429+284125925+285705955
3808+289637981+292884886+294291631+295838023+298155310+298811279+297064796
3798+295277033+294540818+293918979+293001113+292546016+292958704+293960954
3788+295553692+298322949+302607219+307905751+313417199+318462896+322189707
3778+324097953+325033796+326627721+330174357+336185366+343990479+351800020
3768+358235268+363139639+366649743+369519769+373439202+378953284+383851201
3758+385646548+385486464+387116632+393285179+403038081+410774528+412637441
3748+412707670+416310466+423322249+428221699+428434730+428153063+431782173
3738+440437845+451394767+459514056+461616285+459022282+455374731+453879491
3728+456058781+461044729+466005377+468625984+468647898+466783740+463991150
3718+461640544+461127840+463123829+467012519+470583645+471385428+469414103
3708+466345462+463582110+462248054+462718494+463921066+464413970+464357550
3698+465029036+467073021+470332808+474649789+479973275+485411454+488794937
3688+488507770+485612819+482529153+481024071+481909774+485023720+489793250
3678+495767669+500954982+501775841+498875564+496714685+496683247+495666118
3668+490999238+484261828+478082368+473766372+471544499+471381722+473495560
3658+477401908+480714150+481650224+482797476+488639137+499833465+508654085
3648+505184278+492859459+482045455+476811999+475240045+474317085+473325401
3638+473168849+473796623+474273489+474991669+477941274+483728455+488240634
3628+486010395+479380702+474490717+473875507+477414096+484242896+492391365
3618+498836541+502108515+502806750+501949821+500986593+501319094+502156917
3608+500941260+497150589+493258715+491732847+493380935+497410893+501790894
3598+504658344+505681553+505639172+505452282+506264457+509539615+515359276
3588+520379094+520145944+515155132+509995494+507653572+508025037+509559416
3578+511078683+512534033+514426792+516775198+519109766+521525506+524840903
3568+528762420+530499206+527924539+523168325+519735340+518513315+518098543
3558+517660496+517931916+519607910+522239257+524897468+527434502+530551197
3548+534353679+537405588+537801601+534814305+529491224+524370608+521897840
3538+522466444+524130974+524787696+524192981+523189515+522163007+520848925
3528+518956340+516967473+516194783+517291405+519085276+519859239+519361501
3518+518619787+518365736+518363073+518168424+518050546+518554074+519425535
3508+519828786+519751899+520161923+521448735+522693746+522953413+522280306
3498+521206553+520262142+519875161+519904399+519559682+518292902+516498336
3488+515118599+514688311+514739723+514453945+513730757+512968432+512352874
3478+511949392+512166504+513299138+514707880+515455037+515172038+514052026
3468+512791557+512104092+511867699+511201077+509795345+508751178+509235252
3458+510681454+511239636+509901527+507427138+505110691+503610182+503188578
3448+503872049+504842166+504720931+503057442+500725305+498872495+498300070
3438+499235913+500777702+501270808+500159597+498538431+497383160+496633919
3428+496212142+496470998+497179711+497155395+495674397+493696935+492904445
3418+493640428+494311393+493350134+491150522+489131549+487799982+486805317
3408+486080508+485710606+485449695+485373937+486239608+488382192+490906777
3398+492595798+493237756+493432521+493313601+492367337+490671717+489210578
3388+488341606+487208452+485606537+485097596+486848161+489558768+491022455
3378+490980653+490992059+492059037+493477275+493788238+492419097+490231644
3368+488510549+487809362+488123335+489524262+491751490+493618196+493983176
3358+493213671+492735850+493429452+495121773+497244845+499384881+501205616
3348+502227320+502130516+501203648+500009992+498868037+498122906+498228105
3338+499012026+499723982+500175981+500739780+501135388+500728027+499934436
3328+499678128+499835317+499462289+498141955+496385658+495248393+495691129
3318+497542897+499273198+499665390+499237592+499077565+499249866+499241934
3308+499019205+498971730+499277946+499512601+498987304+497813217+497090261
3298+497447831+498212762+498731980+499407055+500493140+501097407+500474207
3288+499372607+499027311+499592267+500308044+500588727+500365477+499923841
3278+500000960+501456193+504116894+506593078+507851926+508262240+508648295
3268+509108574+509116853+508153858+506308400+504541335+503824921+504032423
3258+504248320+504008048+503688401+503659394+503685043+503385311+502814103
3248+502416410+502530293+502889774+502855962+502323544+501809479+501537828
3238+501269592+500940623+500601928+500180555+499998181+500606791+501607941
3228+501933262+501519127+501198785+501139267+500856615+500216683+499293462
3218+497992986+496608676+495933774+496316298+497089971+497143931+495950275
3208+494126529+492819279+492500731+492757561+493145643+493655771+494190968
3198+494241743+493417468+491868210+490033116+488275083+486853777+486029327
3188+485852858+485817136+485074553+483304535+481244802+479940997+479534070
3178+479271943+478637742+477964809+477782579+477981338+477936034+477192380
3168+475887475+474738486+474425149+474608740+474072500+472322081+470402689
3158+469596014+469989509+470646666+470692375+470030645+469194211+468667206
3148+468330537+467636674+466396990+465049010+464124892+463883636+464274670
3138+464843129+464893065+464088069+462794194+461674095+461107663+461055672
3128+461112005+460594322+459174955+457575443+456855382+456932819+456721727
3118+455764058+454668652+453952586+453581728+453519605+453768706+453969202
3108+453638091+452746742+451706310+450866257+450318468+450153231+450433045
3098+450893469+451118745+450981327+450527880+449687133+448554095+447591012
3088+447207707+447507525+448373804+449304494+449500127+448639376+447198212
3078+445772853+444561943+443570375+442812942+442242688+441847746+441885002
3068+442697930+444126329+445347544+445576699+444789101+443513260+442233801
3058+441297930+441006767+441380056+441953089+441983774+440971566+439106713
3048+437163700+435931890+435783703+436510394+437387094+437717945+437438478
3038+436867848+436055847+434900199+433633680+432625409+431936670+431480936
3028+431352116+431599508+431925091+431968253+431739734+431528382+431415802
3018+431080667+430238039+429184434+428553216+428449638+428318010+427887548
3008+427634974+427923299+428250445+427822617+426552653+425093482+424043468
2998+423428026+423056561+423014325+423294024+423298974+422481791+421222769
2988+420333100+420018431+419874500+419520722+418887014+418178966+417708584
2978+417578838+417543347+417224163+416427243+415381166+414732260+415008977
2968+415962449+416646585+416244145+414739323+412881157+411617822+411355579
2958+411613017+411661911+411518124+411797389+412631188+413410767+413591579
2948+413087617+412005238+410683890+409746659+409487455+409488642+409238818
2938+408746927+408310241+408115622+408180466+408318694+408190164+407671612
2928+407044880+406591288+406170177+405395229+404182236+402927498+402013715
2918+401317449+400506721+399711452+399475205+399964779+400612933+400754606
2908+400322494+399701089+399203698+398950718+398974543+399181495+399366185
2898+399377620+399191192+398888248+398647861+398569816+398467078+398076044
2888+397391821+396567951+395686647+394848853+394300021+394245106+394572338
2878+394846537+394688161+394162603+393627088+393294037+393168025+393190662
2868+393188636+392950507+392532058+392202945+392061185+391958244+391761656
2858+391531227+391440185+391526943+391562665+391301175+390783549+390215727
2848+389694107+389213912+388790745+388477668+388293238+388095955+387653074
2838+386990447+386421264+386019172+385486406+384802125+384439171+384628087
2828+384932827+384827426+384278739+383586410+383030746+382774119+382750845
2818+382611140+382087812+381428397+381168731+381464698+381928567+382168983
2808+382183573+382092936+381812716+381211574+380360811+379509411+378939418
2798+378713679+378478647+377844649+376974722+376327235+375958780+375613281
2788+375276786+375134476+375167100+375129525+374808286+374197996+373508794
2778+372986363+372690077+372504228+372321825+372136758+371978758+371797107
2768+371502616+371173791+371007686+370975640+370787649+370272629+369602938
2758+369115361+368983038+369050922+369012276+368687678+368032606+367067844
2748+366001821+365178124+364737531+364570788+364597421+364780143+364906502
2738+364708032+364272967+364038717+364218631+364514194+364620377+364675118
2728+364834102+364805849+364286168+363473385+362733870+362116923+361508545
2718+360937191+360498045+360196461+360003780+359889898+359745880+359468236
2708+359152178+358982569+358909214+358672185+358155283+357488690+356863579
2698+356428225+356239742+356173537+355997271+355628005+355255122+355168769
2688+355423601+355689492+355582180+355117154+354634209+354366755+354298900
2678+354313779+354284686+354118696+353824957+353510318+353292192+353212352
2668+353229490+353316016+353500504+353711972+353689479+353242864+352529171
2658+351874215+351357747+350743376+349860886+348957582+348523385+348752772
2648+349327310+349766283+349825569+349515011+348943107+348282246+347746035
2638+347463905+347430817+347608646+347950440+348308965+348502977+348519940
2628+348488300+348446006+348315739+348111045+347981935+347989751+347965637
2618+347705450+347276435+346949319+346796906+346615573+346332603+346173329
2608+346247032+346293494+346038719+345532181+345018493+344707182+344693316
2598+344900297+345110346+345147718+344961349+344559227+344060447+343755476
2588+343848198+344167701+344358412+344311545+344211007+344214510+344302716
2578+344420130+344556390+344649691+344588899+344387679+344197633+344046870
2568+343743376+343232408+342890905+343152540+343887104+344463147+344464884
2558+344047941+343529534+343002298+342503402+342218087+342257920+342426486
2548+342446084+342339989+342378866+342638099+342838479+342742573+342478333
2538+342301429+342239075+342164098+342065413+342047465+342152924+342318422
2528+342459922+342547114+342600900+342624348+342596587+342572733+342676658
2518+342926569+343176712+343279565+343229571+343144463+343136589+343190115
2508+343202852+343165885+343196020+343372808+343655402+343931569+344041659
2498+343852077+343431862+343059066+342949670+343059876+343221234+343375616
2488+343569541+343769863+343832623+343684321+343455832+343408733+343708927
2478+344239869+344708051+344962043+345070831+345116570+345125573+345157995
2468+345261543+345412480+345596012+345762610+345721677+345364686+344943516
2458+344831342+345052131+345271559+345239455+345060091+344955443+344914163
2448+344777613+344590983+344588349+344820602+345041478+345029030+344850708
2438+344733699+344798312+345014990+345323145+345636482+345831623+345910565
2428+346048620+346332400+346617281+346760749+346824407+346964777+347252640
2418+347630705+347970993+348165005+348203246+348198961+348311339+348590111
2408+348913580+349154923+349354840+349622004+349939683+350213680+350461941
2398+350809002+351291919+351800281+352206368+352434829+352475820+352478512
2388+352663781+352942901+352843464+352021562+350625933+349025726+347424882
2378+345813878+344084937+342130837+339925407+337566087+335304468+333482690
2368+332226332+331291213+330472901+329934636+329910174+330514298+331982847
2358+334496259+337664917+340934228+344509117+348827488+353179728+356013771
2348+356388652+354672970+352366916+351095099+351299474+352290666+353277863
2338+353856482+354014367+354080745+354499193+355470440+356811964+358161160
2328+359266205+360062169+360632510+361277450+362394567+363939917+365247543
2318+365880875+366304679+367137928+368213185+368988075+369459730+370011804
2308+370706420+371293116+371642233+371795168+371798844+371718744+371668663
2298+371696859+371744103+371794357+371968337+372357258+372809605+373029265
2288+372902037+372606127+372394948+372370545+372467464+372581434+372704551
2278+372935877+373322512+373731610+373981926+374065876+374117433+374199936
2268+374256530+374259222+374262436+374280702+374251261+374160277+374062402
2258+373922292+373603745+373094630+372581694+372257096+372187620+372337457
2248+372569623+372696040+372646568+372530543+372511842+372683506+373010159
2238+373363271+373675276+374008558+374394961+374734525+374941159+375039930
2228+375067229+375010982+374888588+374791901+374783766+374750360+374457229
2218+373833739+373110639+372589163+372345418+372211242+372020502+371838127
2208+371850748+372023628+372069308+371838966+371526266+371387256+371473001
2198+371725373+372136671+372684403+373222205+373593989+373826300+374075863
2188+374428165+374863577+375322466+375697840+375919208+376113075+376491314
2178+377053838+377591177+377984615+378326060+378703865+379010052+379090818
2168+379035816+379122256+379479913+380027065+380701996+381470980+382123795
2158+382361895+382154798+381836251+381780959+382034199+382319341+382440229
2148+382555964+382915850+383444563+383803783+383828476+383718038+383777122
2138+384107799+384600934+385104896+385529713+385872895+386209304+386589541
2128+386930031+387095355+387079202+387021942+387087655+387365530+387845349
2118+388479116+389256987+390165010+391130119+392093751+393029478+393823444
2108+394324598+394563827+394724954+394918561+395187433+395645598+396387371
2098+397305699+398134520+398680225+399001465+399356227+399937828+400667587
2088+401270147+401548022+401590374+401713665+402144358+402776504+403329301
2078+403676566+403873646+403970768+404021254+404188459+404611163+405202781
2068+405748573+406150116+406450223+406689423+406859669+406968399+407094816
2058+407385747+407967696+408833049+409845025+410849967+411738103+412433703
2048+412926982+413322214+413794101+414461129+415284594+416082005+416653127
2038+416965422+417250621+417848550+418891269+420186303+421441648+422528658
2028+423506997+424506381+425598284+426704111+427711658+428741177+430079865
2018+431748187+433392598+434731286+435841745+436913181+438022771+439249573
2008+440745364+442562365+444515279+446299800+447779553+449128314+450597617
1998+452227264+453989929+456036462+458383073+460539754+461984624+462838166
1988+463554378+464297887+465065395+465983434+467130165+468396829+469722721
1978+471219988+473002830+475024062+477058957+478934202+480888390+483399746
1968+486396393+489069194+490910483+492441271+494397080+496785087+499193880
1958+501485894+503704438+505735512+507510278+509252332+511236568+513504497
1948+516019125+518959235+522543562+526425304+529634229+531628307+532962652
1938+534397101+536095211+537966086+540034735+542319107+544813471+547484188
1928+550127751+552666464+555447474+558657093+561844480+564643960+567252496
1918+569646524+571341392+572414681+573698367+575726489+578216626+580456591
1908+581892372+582562410+583062753+583907640+585108707+586555951+588368234
1898+590516143+592517806+593925449+594951494+596217926+597819581+598992857
1888+599057470+598403816+597953670+598128981+598754323+599462863+600006918
1878+600479934+601177358+602185687+603539543+605621104+608565556+611170387
1868+611452575+609100232+605955573+603715549+602762685+602809871+603407770
1858+603752545+603119387+601853534+600992320+600910454+601194843+601611004
1848+602460812+603940304+605193421+604451590+601378086+597983197+595904184
1838+594883986+593906748+592803526+592476584+593704746+595827066+596865964
1828+595844493+593782270+591521288+588913157+586235203+584269726+583048279
1818+581904298+580580317+579554445+579372244+579977380+580617949+580497524
1808+579568861+578436807+577761268+577944511+578964477+580252853+581015758
1798+581067401+581318847+583137556+586745215+589756828+588993865+585083522
1788+581543833+580411084+581390639+583432829+585843532+587932735+589021193
1778+589574917+591273490+595486575+601753083+607059373+608256851+606085667
1768+603314267+601363438+600898933+602624949+606044386+609079968+610610410
1758+611403247+611925823+612312573+613855578+617916395+623593803+627820784
1748+628801612+627691558+626501028+626601884+628404382+630951953+632514296
1738+633157238+635325238+640363004+645148282+645192400+641861081+638644919
1728+636534874+635605400+636114776+637836334+640428775+644662992+651608281
1718+659781616+664346250+662921875+658596876+654689427+652780399+653758506
1708+657723909+663238570+667966589+671428638+675512613+680887106+684684030
1698+684638813+681992239+677667992+672713423+669655725+669811814+672272887
1688+676069464+682186656+691101648+697803481+696666621+691224331+687217416
1678+686752795+689218615+692247655+694030989+695613017+698123360+699425920
1668+697036407+693369983+692448846+694786831+697478101+698068647+697694519
1658+698777535+702733790+710333543+720053647+724830703+722496887+720287028
1648+721578182+723179489+720268964+714312146+710070750+709622977+713114206
1638+720109980+728085888+731004113+726517408+720519657+717709988+717980366
1628+719221266+720205625+721275383+722372467+722544594+722338887+723765751
1618+726991698+728730973+726255657+722240463+720438660+721604757+724247163
1608+726421647+727264276+727204410+727085201+727350252+727969863+729025783
1598+730914489+733621855+736378490+738584007+740448802+742271738+743877097
1588+745072433+746136458+747734755+750395108+753884542+757612048+761984117
1578+767943251+773931449+775742227+773716884+772889482+775104900+777116463
1568+775339034+771320887+768430626+767796599+769836763+775951986+785637757
1558+791372715+788357918+782464613+778109391+775682477+774316405+773157081
1548+772378023+773441180+777533609+784290906+792469337+799357597+799143437
1538+791567538+784829809+783553766+786040082+787663968+787000298+787134850
1528+790242108+795371062+800714811+806213145+812292125+817594363+820697106
1518+822283996+823157889+823737088+825383149+829537700+836630394+846843488
1508+859382756+867725902+864400547+855898127+851035267+851064505+854031827
1498+858199405+862531526+866292033+869931014+874950137+881654575+887536649
1488+889600434+888809334+888800765+891010740+893618697+894536649+894425719
1478+896126030+901895204+911825242+923197833+931122270+933512073+934202201
1468+937286995+942720022+946768333+946566389+945120419+947244707+953874169
1458+961252757+962117502+954216454+943820349+936049396+932271462+931453787
1448+931529574+931580233+931875275+931973873+931243564+930857798+932868724
1438+936996701+939839430+939389109+938250165+938728913+939995230+940464830
1428+940435592+941403567+943442052+945508733+947980632+952074392+956026826
1418+955654203+951375232+947594577+945831449+944900933+944099816+943290189
1408+942067816+940724091+940262423+940917524+942243995+944475392+948552767
1398+954597588+960862591+964880274+965414314+963014958+958957963+954545250
1388+951184983+949965910+950912348+953418927+957036603+961165390+965334242
1378+969864486+974966691+979485991+981325254+980147403+978323889+977795755
1368+977822619+977108405+977209030+981442321+989410412+994864745+993340556
1358+988837351+988233141+993710864+1002000282+1008809745+1012705961+1014554140
1348+1015325440+1015749359+1016780500+1018838380+1020937714+1022172420
1340+1023409556+1025475195+1027408829+1028552984+1029589335+1030155912
1331+1028778665+1025729709+1022732860+1020284987+1018463325+1018907393
1322+1023299205+1030447479+1036869845+1041198781+1045232329+1049162125
1314+1050193034+1047251650+1043702119+1043637622+1047165963+1050582100
1305+1050881310+1048912243+1047601578+1048866273+1053250675+1060182647
1297+1067345511+1071025889+1069026252+1063051197+1056868524+1052795028
1288+1050050145+1045975722+1038851417+1030355655+1024024072+1021386414
1280+1021238083+1021261473+1020036726+1017675235+1014707219+1012060760
1271+1011132097+1012979697+1017184155+1020687138+1019469222+1013227147
1263+1006332113+1002701295+1002113760+1001936132+1000380680+996296878+988598238
1253+979165823+972533524+970390246+969751992+966973877+961293111+954490769
1243+948592427+944570111+942466087+941372592+938975205+932923553+923683586
1233+914228765+906634860+900332109+894024264+888345697+885128030+884687957
1223+884979062+883637190+880209647+876010399+872528202+870314174+868738342
1213+866842746+864735248+863521560+863829223+865338416+867675995+870766637
1203+874339443+877933554+881354091+884428985+886762975+888767880+892149105
1193+897993198+904707710+909033694+909316635+906705610+903719819+902772166
1183+904850715+909218269+914912815+921850519+929674042+936753304+941467080
1173+943630853+944508972+946394552+951078569+957842988+964246363+969025736
1163+972852187+975886669+977002570+976752341+978306172+983132673+988436590
1153+991287076+992733915+994915810+997259353+997811919+995934329+993534858
1143+994201596+1000369795+1011336588+1023929121+1033397895+1033978947
1134+1024244890+1010863109+1002921650+1004801440+1014518244+1025924473
1125+1033690158+1037124475+1037201130+1033575638+1026712216+1020064516
1117+1018363974+1023908857+1034377855+1043620716+1046441443+1043401982
1108+1039426911+1039034139+1043729562+1051734013+1059991472+1067359754
1100+1072987661+1073741823+1067791779+1058388544+1049953689+1043702929
1091+1039953423+1040370858+1045379039+1051152267+1051575723+1045687976
1083+1038625041+1034613147+1034868472+1037453559+1039617159+1041291648
1074+1042514194+1039721373+1030962992+1021875062+1018875897+1021906095
1065+1024354315+1021177291+1014975165+1009220117+1003565577+997770465+994379223
1055+995465597+999885200+1003772500+1003915737+1001114347+998962210+999862273
1045+1002729780+1004484514+1004037783+1003321253+1003731625+1004053183
1037+1003013706+1001242183+999549051+997715000+995562748+993697432+992276068
1027+990625548+988600322+986832620+986449923+988142938+990348223+990743195
1017+989573797+989295314+990886315+992325280+992045523+991494115+992766569
1007+995221389+996745462+996806137+994273967+986720879+975754896+965878471
997+959174323+955422906+953119196+949904771+944434980+937290411+929730955
987+923727298+921619106+923107398+924207378+921303800+915572664+910752821
977+908112789+905455388+900408707+893818962+888558583+885639953+883995049
967+883599789+885570882+888858488+890062334+887753298+883926036+880598250
957+877908022+875036866+871735944+869171757+869254549+872668428+877765075
947+882239448+885399218+887814668+889985158+892449415+895785365+899698256
937+903774358+909047184+916223712+923738530+929743229+934109972+937287285
927+939994998+944353693+951702985+959480307+963299752+961915732+957446859
917+952289189+948537483+948633591+953874343+961791833+967360627+967325889
907+961767400+953521520+946462291+943195180+943952759+947521627+952749815
897+958153836+960907750+959104094+955459207+954932521+958427687+962809657
887+966433411+969761951+972801701+974552150+974116535+971171156+966405737
877+962565217+961940627+963553687+966154523+971467414+979832098+986934402
867+989703022+989685306+987132061+980366253+972834702+971008525+976021684
857+982622024+985373391+984235258+982822115+982850137+982820031+981968602
847+982143450+983993250+984474024+981122847+977083973+977451038+982486777
837+987777725+990944559+994132004+997808098+998406981+996138704+997619702
827+1005530360+1012557283+1011594460+1006302470+1004866979+1010850140
818+1020262755+1024745581+1020635146+1013232590+1009061943+1008811945
810+1010102694+1012447163+1015821962+1018346490+1017930907+1014003426
801+1008844946+1006790655+1009788199+1015440075+1020569839+1025775910
793+1033132150+1040515484+1042911945+1038945326+1032260573+1025938253
784+1019704167+1013625477+1011494762+1013963478+1015886806+1012949938
776+1006438296+1001001911+998217890+995570506+992090682+990595558+992832108
766+995770713+995058236+990430784+985625821+984120043+986119911+989118034
756+990409478+990324254+990988561+993309987+997636955+1004134470+1011233648
746+1015023682+1013321287+1009858023+1009528474+1011351410+1009367406
737+1002023093+996257045+997811803+1003512197+1004150102+995212473+984160803
727+981498133+988633555+997359398+999804955+997835772+998571987+1003882735
717+1009672058+1010127011+1005116862+999957802+1000187768+1005714934+1010607437
707+1011574197+1011631977+1012025907+1008179944+999451901+991863033+988122674
697+987554476+991188189+997857889+1002148729+999489765+989057243+974574151
687+961062855+951874243+949369343+955032914+965680059+972085403+968852915
677+963222750+962906460+963750883+958123324+946954124+937020150+936934173
667+953338277+978501284+995601654+998787015+993585344+985024969+975406590
657+965672128+958433708+958772578+969686222+987218907+1002226658+1008161881
647+1003424888+991440618+979147643+970931001+965381949+956638042+940538011
637+920422844+903385929+893987499+894170221+904396110+921160911+936021895
627+942972162+944121064+942316945+933801614+917786865+902961256+897049193
617+899594332+905657969+915246010+932609405+955726690+971979221+967815464
607+944701595+920409759+909312467+911727859+916509143+914775484
##END=
