##TITLE=<SNM>
##JCAMP-DX=4.24
##DATA TYPE=INFRARED SPECTRUM
##DATE=29/4/2025
##SAMPLING PROCEDURE=Instrument type and / or accessory
##ORIGIN=Admin
##XUNITS=1/CM
##YUNITS=ABSORBANCE
##RESOLUTION=4
##FIRSTX=4497.3318
##LASTX=599.83466
##DELTAX=-1.4281778
##MAXY=2.1110802
##MINY=0.49910536
##XFACTOR=1
##YFACTOR=1.9660966e-09
##NPOINTS=2730
##FIRSTY=0.50579435
##XYDATA=(X++(Y..Y))
4497+257258133+256811666+257040099+257722063+257933033+257221723+256636074
4487+257604466+259846503+261675815+262257098+261988163+260968719+259173786
4477+257696354+257789122+259178182+260643699+261567101+261776828+260950226
4467+259392426+258295039+258303346+258721528+258719952+258498097+258756361
4457+259732241+261032777+262007020+262228874+261804810+261234865+260993548
4447+261235077+261769158+262303664+262679585+262660880+261770886+260007512
4437+258421094+258193813+259237238+260245919+260194533+259421954+259163963
4427+260175282+261873689+262857936+262177973+260001661+257348263+255460471
4417+255071817+255908394+257110736+258234134+259436355+260666254+261297074
4407+260851183+259733181+258931377+259140650+260212844+261049087+260456829
4397+258577283+256867872+256450963+257147024+258196784+259206952+259975013
4387+260080847+259489741+258843278+258563065+258313654+257729338+257064049
4377+256667725+256419707+256190729+256300595+256877179+257225816+256714351
4367+255919520+255928827+256819973+257667827+257936247+258090435+258603355
4357+258972910+258351094+256960094+256086744+256566286+257887650+258925435
4347+259107302+258672658+258153190+257857819+257686168+257391282+257018574
4337+256903464+257289935+258085069+258909368+259268160+258858042+258013462
4327+257620382+258129634+258864651+258820480+257931699+256991441+256524965
4317+256378477+256403337+256848985+257754137+258449046+258283640+257534344
4307+256906586+256519205+256029234+255454620+255273966+255774639+256720505
4297+257629386+258099894+257923362+257272291+256883849+257540559+259058463
4287+260178648+259799270+258031773+255897753+254396038+253855970+253865125
4277+253940400+254200059+254955251+255988035+256842922+257460403+258048447
4267+258674841+259242118+259567412+259481132+259122218+258971334+259285349
4257+259744095+259968405+260041133+260249800+260651338+261108204+261526386
4247+261762610+261456113+260467107+259397550+259059069+259441660+259785567
4237+259593969+258987341+258175836+257267683+256587629+256595147+257328800
4227+258246806+258782191+258900394+258945383+259048458+258963725+258534477
4217+258093224+258249929+259299689+260807315+261840947+261737811+260542624
4207+258848159+257566176+257480382+258413242+259154838+258821935+257938005
4197+257621807+258179353+259083989+259879214+260494209+260906146+261020438
4187+260883500+260632724+260275781+259869119+259807698+260436245+261391691
4177+261894880+261775464+261566737+261503679+261197940+260521524+260149392
4167+260814440+262322187+263667955+264125124+263906180+263498457+262814493
4157+261634130+260444187+259992900+260343174+261039356+261800505+262445301
4147+262609464+262130225+261330210+260602772+260103676+259908954+260048530
4137+260366244+260642516+260762569+260635695+260296153+260177738+260714790
4127+261541969+261733598+260983847+260004390+259681704+260242524+261250084
4117+262169697+262869062+263468868+263796981+263440401+262464431+261610938
4107+261537724+262115309+262688134+262863453+262716389+262322884+261569799
4097+260546414+259744792+259610794+260051501+260509519+260502425+260134568
4087+260014394+260635756+261895304+263133813+263633607+263271358+262650057
4077+262348168+262221143+261810813+261241080+261142279+261726898+262478558
4067+262878975+262897135+262626350+262116158+261664446+261693641+262206440
4057+262757407+263066845+263419635+264291803+265598129+266547179+266433463
4047+265395435+264217437+263523620+263258080+262937334+262329706+261645862
4037+261191665+261279673+262162330+263505036+264464090+264715502+264617308
4027+264257545+263482571+262793180+263009638+264106904+265231181+265748376
4017+265819013+265966593+266347698+266645767+266546057+266108351+265691473
4007+265528341+265394889+264938478+264330880+264122790+264456996+264961064
3997+265360268+265677073+265874462+265729156+265183979+264682306+264870509
3987+265812647+266834304+267328701+267301083+267019657+266604295+266096376
3977+265701235+265885436+267049579+268866371+270260463+270433690+269604601
3967+268532104+267824705+267812700+268538379+269658958+270551862+270651391
3957+269844100+268718852+268210873+268761598+270043035+271456772+272433106
3947+272500256+271846153+271459924+271931979+272572561+272441807+271635031
3937+270935848+271021158+272239688+274290066+275902799+275810274+274391838
3927+273458098+274260690+276051924+276940887+276304368+275354499+275211377
3917+275430805+274813688+273249280+271901056+271681991+272331334+273237547
3907+274643008+277259753+280848013+283941785+285328177+284894927+282879959
3897+279821293+277079675+276167490+277410607+279271872+279746897+279136692
3887+279343661+280801387+282144699+282921886+284043890+284762445+283092658
3878+279976391+278731000+280713439+284324831+287602561+289648179+289831926
3868+288657718+287983545+288509592+288698372+287075301+284346234+282142031
3858+281737522+284501150+291447326+299068767+299597694+293323871+286375330
3848+282061269+280963276+282676749+286308209+290541659+294374723+297404012
3838+298931950+298277210+296276642+294330582+292645576+290627788+288359466
3828+286607582+285914038+286880428+290536354+296436984+300793488+300962228
3818+299264580+297681526+295118653+291138040+287776364+287053595+289597612
3808+294120460+297602431+298808745+299814122+301808172+302784416+301527565
3798+299602939+297939972+296247114+294852112+294551042+295254197+296328392
3788+297808279+300211628+303405231+306689935+310042304+314029616+318383240
3778+322133600+325425852+329573659+335498239+342964430+350596906+356687589
3768+360935712+364350562+367324191+369775228+372507115+376415332+380713174
3758+383740371+385783533+389190684+396098147+406339334+416189139+421638058
3748+423742126+425766614+428777895+431729908+433965366+436345009+439996599
3738+445581062+452684458+459143969+462759755+463693101+463762313+464444125
3728+466049491+467761540+468421949+467722462+466289111+464868310+463822249
3718+463127704+463080077+464864399+469423233+475085881+477597733+475450525
3708+471608397+469145324+469384792+471794478+474145290+474747340+474696773
3698+475816351+478087765+480636784+483892990+489169015+495593116+498901617
3688+496393798+491124715+487327304+486764877+489382805+493770170+498322547
3678+503206765+508780678+512121284+510918033+507988757+505589530+501853297
3668+495981224+491167249+489969818+491415175+492531449+491936857+491182346
3658+492311262+495452054+499506578+504479562+511190515+518720158+522824976
3648+519459571+510767967+501771352+495578958+493126072+493605189+495335398
3638+497160799+498860175+500524506+502523013+505862831+510936101+514944938
3628+513816932+509417864+507069690+509009141+513973970+518912909+521262235
3618+521369494+521721041+523210902+524199393+523431361+522103631+521629001
3608+521426427+520435693+519142948+519317448+522455118+527728445+531814709
3598+532804595+532872564+534693539+537538232+539162273+539282447+538853836
3588+538058338+537095615+537216759+538881181+541223595+543655563+546241599
3578+548410361+548682359+546605515+543849587+542630026+544089146+548257446
3568+553773424+557592421+557685431+555621260+554244417+554275704+554311295
3558+553669682+553605594+554901977+556348849+556922857+557596120+559403877
3548+561717248+563518881+564594683+564930890+564562548+564151338+564467233
3538+565227989+564885294+562526024+559731474+558562722+558793126+558949800
3528+558784759+558795612+558735464+558385312+558191773+557884427+556290036
3518+553473779+551421552+551864533+554371564+556588166+556151976+553021218
3508+549668606+548427096+549370052+550963292+551896728+551886118+551252387
3498+550736587+551502011+554375566+559041113+564319108+569040255+572208908
3488+573090686+571721059+569100039+566698448+565392485+564848066+564141940
3478+562853015+561654918+561787582+563455884+565002679+564460867+561734346
3468+558388889+555904474+554914528+554985346+554667511+552807913+549883912
3458+547313581+546155804+546885273+549034148+550846271+550808254+549466882
3448+548387260+547828290+546887577+545373827+544007959+543099503+542134901
3438+540542571+538322635+536097302+534722339+534872587+536659607+538842679
3428+539009782+536374877+533394367+532776583+534066842+534523768+532919918
3418+530880666+530328426+531095245+531438667+530406460+528812917+527836189
3408+527930412+529228977+531584003+533905378+534971296+534906965+534434275
3398+533438022+531529555+529382802+528286809+528699595+529901998+530746608
3388+530584840+529698333+528900531+528636598+528595610+528367875+528018571
3378+527741299+527624400+527795686+528141291+528267528+528458035+529753327
3368+532236408+534270567+534312525+532739415+531172551+530609033+530537001
3358+529647948+527633737+525932208+526028492+527786470+529983245+531667979
3348+532680965+533266857+533656057+533802060+533298568+532255871+531642634
3338+531776875+531766688+531139931+530521540+530218681+529665167+528776113
3328+528344349+528733489+529506735+530432592+531793185+533661999+535490613
3318+536556229+536679980+536293933+535869506+535632372+535962758+537322502
3308+539369575+540790255+540370436+538199066+535930078+535684152+538248421
3298+542165763+544727242+544237514+541590482+539320099+538883182+539508970
3288+540053874+540846219+542665011+545101223+547046252+547972838+548177897
3278+548014613+547205958+545511159+544005049+544446635+547037036+549973527
3268+551475939+551225648+549930660+548677084+548483363+549364777+550047741
3258+549798724+549883003+551753029+554495800+555712208+554635679+552601399
3248+550764235+549132676+547726488+547228392+548050811+549528303+550370003
3238+549835103+548279698+546445748+544772656+543583896+543246779+543707829
3228+544291598+544501204+544630230+545080244+545608656+545623511+544902046
3218+543944720+543606330+544194465+545041197+545279968+544545102+542734799
3208+540061513+537473234+536139199+536197467+536624077+536380880+535157135
3198+533273223+531338745+529730711+528298936+526941254+526262170+526852366
3188+528008264+528356719+527692914+527040145+527031535+527397755+527856743
3178+528214172+528002140+527014861+525806092+525016476+524520320+523715182
3168+522420376+521003395+519590173+517871000+515977812+514774379+514766012
3158+515417144+516019527+516360888+516358766+516078704+515967929+516136548
3148+515763112+514217955+512316278+511322451+511127821+510530106+509157205
3138+507793702+506786324+505614996+504189132+503254422+503270247+503799084
3128+504217175+504348353+504211930+503817486+503382630+503122062+502612052
3118+501116976+498881305+497289855+497260327+498208922+498882367+498523604
3108+497217066+495798569+495347221+496126894+497246806+497689696+497212973
3098+496134139+494919762+494035650+493585939+493099939+492184298+491219120
3088+490863025+490996568+490800362+490031633+489391718+489307409+489309834
3078+489020283+488774176+488863033+489047871+489004367+488677407+488213841
3068+487717413+487122760+486488605+486168193+486171406+485773324+484464936
3058+482823767+481793985+481622728+481984916+482578842+483090549+483042225
3048+482320093+481563672+481321537+481158556+480536195+479975799+480033582
3038+479997839+479155745+478323867+478546904+479304082+479172328+477563142
3028+475128082+473154555+472847422+474368054+476349523+476976796+475723856
3018+473590897+471832646+470999890+470937863+471122064+471015866+470390594
3008+469350717+468167080+467249377+466966497+467127082+466936362+465925892
2998+464667829+464181617+464780120+465621184+465445107+463881608+461906475
2988+460820669+460949300+461484988+461437846+460580140+459440674+458554439
2978+458031029+457754515+457549517+457218706+456838752+456849212+457437437
2968+458051402+457879630+456706149+455097085+453761079+452855412+452086077
2958+451352393+450830408+450500628+450132226+449649621+449119148+448597830
2948+448221030+448122987+448204598+448235854+448104646+447807728+447386120
2938+446935166+446508193+446104956+445836506+445830746+445924332+445762019
2928+445240398+444605061+444112422+443773365+443435006+442985810+442418442
2918+441774282+441049937+440201264+439277013+438520684+438258388+438526383
2908+438848493+438653408+437978660+437463102+437570603+438078158+438339120
2898+437833930+436480644+434608950+432720915+431287230+430657380+430902426
2888+431747006+432811106+433699220+433778012+432536714+430466812+428861234
2878+428424044+428662511+428787990+428617067+428415646+428344918+428383026
2868+428579596+429008965+429442912+429408169+428742577+427886294+427453439
2858+427628819+428007893+427919764+426981112+425380173+423656028+422355310
2848+421812407+421968232+422377986+422602599+422551395+422344093+422044568
2838+421645667+421122500+420480827+419899937+419593531+419363189+418674586
2828+417402698+416085640+415220081+414737113+414389356+414259905+414559430
2818+415139501+415599610+415789541+415811187+415645266+415174728+414390447
2808+413338322+412157202+411217338+410810585+410810949+411003669+411333661
2798+411496793+410940096+409606515+408096251+406949358+406250174+405853274
2788+405588886+405317283+405001418+404729846+404606216+404582994+404483951
2778+404254184+404031299+403869168+403578253+402951313+402038886+401196064
2768+400822629+400952079+401210252+401279464+401152773+400858068+400367370
2758+399843233+399490321+399153508+398486369+397501425+396615857+396153686
2748+396020174+395865136+395471359+394947252+394508030+394146145+393673242
2738+393054245+392498397+392196933+392123295+392126114+392140454+392210666
2728+392249107+391964680+391307363+390750424+390702251+390857713+390609302
2718+389915151+389269294+388945941+388700956+388201859+387468116+386785697
2708+386335501+386060108+385855049+385735573+385800147+386067597+386319797
2698+386192712+385538002+384595198+383728093+383146779+382912131+382958606
2688+383025878+382813240+382344490+381968902+381844121+381679110+381203175
2678+380591151+380139439+379816662+379407272+378843662+378200595+377610974
2668+377298929+377439172+377893825+378279447+378343869+378111071+377634985
2658+376917854+376175167+375818982+375980567+376286246+376242712+375714239
2648+375000989+374501862+374291437+374127851+373884503+373667620+373475143
2638+373187805+372905895+372813400+372767046+372477860+372023541+371807507
2628+372040760+372487349+372727665+372570567+372153052+371692639+371275821
2618+370921636+370723277+370775239+370952226+370922273+370521796+369976922
2608+369582083+369361412+369227505+369216106+369334218+369385483+369174087
2598+368757846+368417940+368439434+368870501+369410706+369609550+369298627
2588+368729197+368148914+367494235+366763462+366350888+366595146+367276503
2578+367911083+368237104+368170044+367680770+366943752+366261516+365732589
2568+365245013+364773565+364465370+364482620+364894314+365599409+366231442
2558+366333396+365856309+365332627+365295095+365666802+365985305+366029385
2548+365908847+365760358+365688842+365787704+365969571+366002403+365821840
2538+365551116+365244709+364933483+364807368+365011153+365399747+365735408
2528+365932009+365976634+365868678+365722281+365692238+365760358+365770181
2518+365673411+365605412+365673987+365765512+365702272+365569305+365633909
2508+365878592+365955049+365767937+365744018+366245206+366992077+367384854
2498+367251402+366928200+366667814+366373747+365958263+365587889+365477114
2488+365696664+366170082+366657325+366874631+366795021+366629009+366466514
2478+366268064+366192395+366488433+367022999+367318855+367128439+366657689
2468+366216648+365976665+366059670+366498771+367062804+367441333+367636539
2458+367868155+368106350+368057328+367638631+367138777+366852986+366816333
2448+366921713+367079175+367226512+367363784+367601281+368012945+368419092
2438+368480664+368098225+367585608+367308730+367243701+367101094+366843012
2428+366763704+367016936+367407470+367752802+368139152+368678326+369221957
2418+369488194+369431988+369342797+369491165+369809364+370044921+370079330
2408+369993596+370004449+370342839+370978267+371563340+371860864+372033575
2398+372343862+372789026+373157337+373299763+373300309+373388620+373623389
2388+373747685+373474961+372783751+371773705+370405048+368630487+366694098
2378+364976896+363471058+361712323+359408471+356821920+354342173+352055935
2368+349963024+348261040+347149131+346593556+346559723+347320024+349230371
2358+352220765+355750544+359384157+363229165+367485504+371619061+374474669
2348+375172154+373788188+371501889+369817277+369299809+369556587+370142661
2338+370844845+371435224+371639161+371442287+371201668+371322175+372038274
2328+373455346+375353203+377041150+377930052+378202565+378526646+379274911
2318+380315031+381336839+382171415+382850529+383484017+384203178+385144134
2308+386254678+387160891+387477605+387254265+386971233+387113052+387759576
2298+388547828+389051532+389174798+389123382+389131840+389332018+389709971
2288+390078465+390260574+390334121+390495495+390730658+390878025+390965699
2278+391184249+391531976+391766382+391732094+391520032+391273106+390989164
2268+390549609+389917910+389302005+388992355+388980198+388945395+388705412
2258+388428413+388345164+388511388+388859206+389241646+389446583+389375947
2248+389201507+389199809+389437913+389717216+389844514+389869070+389967143
2238+390192726+390494646+390876024+391330222+391677070+391667581+391237454
2228+390545031+389826567+389278783+388964949+388793026+388650540+388486377
2218+388214562+387748238+387239137+387050449+387331420+387776492+387935986
2208+387680572+387262329+386967049+386844147+386837326+387023134+387502858
2198+388138408+388656421+388998297+389340537+389804224+390377080+391039459
2188+391717027+392207543+392384257+392369493+392340328+392340692+392428003
2178+392775670+393460847+394300697+394998486+395387353+395552455+395737081
2168+396037666+396274042+396327489+396391275+396620102+396802908+396713688
2158+396526242+396553618+396795057+397028552+397185014+397365487+397587887
2148+397772149+397983817+398438530+399124889+399638810+399636415+399294782
2138+399055708+399075989+399202499+399333677+399530157+399836533+400186261
2128+400474689+400663863+400840273+401193730+401889305+402894349+403912005
2118+404562955+404747975+404805667+405187287+405966324+406759972+407190827
2108+407346470+407652179+408327473+409174327+409941297+410629809+411293704
2098+411810293+412076106+412220108+412424409+412702560+412987594+413277386
2088+413584823+413869068+414097804+414287038+414418671+414423674+414327086
2078+414308654+414500374+414807174+415057313+415228054+415405040+415671884
2068+416104406+416674442+417201308+417647411+418268682+419153916+419938257
2058+420348133+420649809+421159486+421697448+421912814+421862792+421948709
2048+422444167+423293021+424257229+425098626+425676605+426040491+426463736
2038+427261234+428481099+429836720+430985705+431821614+432470533+433101930
2028+433832005+434735975+435837242+437120165+438622758+440407778+442351655
2018+444126549+445538558+446730320+447929781+449217342+450636657+452274219
2008+454124631+456080574+458094117+460157319+462128753+463762162+464944313
1998+465848707+466878276+468386206+470290247+472045345+473239714+474103575
1988+475126263+476412277+477737460+478983943+480182980+481311926+482379937
1978+483630572+485377758+487601272+489881719+491890655+493884190+496423174
1968+499529315+502461986+504590731+506144257+507749501+509640567+511671209
1958+513784857+516068821+518455982+520721939+522847592+525145744+527845769
1948+530733572+533513874+536395977+539796610+543451778+546499832+548613177
1938+550297001+552057101+554000614+556132027+558398894+560494715+562167383
1928+563799488+566268078+569949318+574035461+577364123+579915537+582508545
1918+585113013+586789925+587410923+588046533+589598967+591990736+594387416
1908+595893345+596361791+596550904+597324271+598897501+600841863+602530599
1898+603631684+604336112+605108388+606314307+608031479+609845542+610957542
1888+611079352+610889876+611062133+611502324+611772563+611740186+611780627
1878+612497061+613978979+615461564+616287863+616958943+618520714+620958443
1868+622657789+622102396+619649388+616679246+614024696+611801364+610026227
1858+608847229+608240055+607786767+606979931+605834886+604986517+605048059
1848+606163696+608020323+609513276+608867662+605805843+602356341+600177877
1838+599044778+597830976+596185472+595088327+595585999+597132005+597774891
1828+596686538+594963546+593211934+590870248+588063389+585887532+584779716
1818+584114760+583294463+582416384+581832130+581531211+581081015+580169102
1808+579135197+578689852+579240759+580699091+582609862+584196068+584689798
1798+584181941+583939532+585433577+588736167+591402419+590524825+587022087
1788+584400096+584514086+586762883+589629586+592076409+593591069+594050299
1778+594200425+595505175+599075155+604540565+609437607+611151747+610127968
1768+608469610+607433522+607818599+610167986+613603846+615992583+616520207
1758+616216074+615873562+616013926+617869219+622385367+628382040+632788080
1748+634014796+633375426+632556646+632240387+632742969+634134121+635684796
1738+636891321+638888009+642839366+646909139+647574702+645221859+642575615
1728+641211445+641750529+643886671+646410801+648775406+652099460+657500903
1718+663757932+667302142+666394595+663136449+660083725+658700396+659768376
1708+663358121+668137051+671639364+673244184+675386208+680035324+685259296
1698+687692234+686864419+683327667+678602215+675742303+676292542+679252074
1688+683382236+689347743+697290900+702616613+701321322+697211047+694645929
1678+694854748+697592546+701243227+703735161+705422866+708006839+710713291
1668+711008207+709475722+709109986+710986865+713346013+714019943+713219837
1658+712950629+715397937+722236734+732095997+737184820+734864173+732701534
1648+734262638+736680236+735229120+730392710+726172448+724913354+727148873
1638+732337557+738095034+739723319+735632144+730341233+727520732+727295664
1628+728237105+729515722+731286736+732933574+732895194+731543636+731502527
1618+734120334+737162265+737239268+735104338+733739744+734377233+736671142
1608+739803900+743088482+746120045+748516967+749759266+749807772+749689417
1598+750821183+753891793+758300077+762403925+764992385+766713074+769187364
1588+773000843+777264760+780759616+782870050+783849689+785053001+788531243
1578+795385258+803447558+807559652+806870321+806030319+807275407+808047137
1568+805280053+800304977+796110544+793945662+794576906+799495594+807795391
1558+811072272+804632922+795406177+788082017+783072441+779908518+778549987
1548+779450440+782906733+788410099+794977020+802036398+807983776+808025976
1538+801451840+794757531+791960191+792386801+793318237+793675241+795046505
1528+798544816+803246015+808073876+813689715+820523176+826573205+830278395
1518+832913057+835253713+836560403+837219418+839051367+843316194+850095935
1508+857955600+862026100+858373601+852378929+850329794+853528339+860296499
1498+867303975+871563588+873299920+875507911+880424295+887431165+893238361
1488+895101657+894049441+893160206+894550932+898385936+903249206+907558658
1478+910971963+914371444+919070702+925630953+932565792+937668863+941465425
1468+946201124+952206346+957764706+962082647+966463161+971656514+976713444
1458+980383830+982451336+982554472+979014749+971974349+964918670+961618869
1448+962026138+962615122+961297942+958981478+956548358+954158772+952735970
1438+953246435+954847981+955673432+955355899+954548578+953785094+953814440
1428+955011992+956870923+959016039+961434122+963774051+965565982+966242520
1418+964649765+960612371+956186807+953862643+954478184+956369553+956857159
1408+955323158+953618415+953132871+953495513+954478002+956651615+959677054
1398+962346641+964252077+965300655+964849428+963168635+961913119+962033838
1388+962820544+963115643+962707162+962428131+963219263+965720413+970545303
1378+977724611+985628660+991348666+992724295+990312518+987489470+987867756
1368+992348253+998401253+1002647405+1003966040+1003388576+1002468115+1002691788
1358+1005195303+1009741828+1014096149+1015570730+1013816209+1011359806
1350+1011201919+1014612313+1020924032+1028358421+1034712097+1038156628
1341+1038365203+1036885771+1035673364+1035055641+1034146275+1033165363
1332+1033379153+1035515478+1039616173+1045254507+1051477823+1056739752
1324+1059095565+1057575509+1053455048+1049090238+1045754361+1043975404
1315+1045154706+1049836017+1055008210+1056772372+1055470229+1054399338
1307+1055470108+1058978666+1064736325+1070936844+1073741823+1070850139
1298+1064739599+1059920773+1057953735+1056998531+1055451797+1053897665
1290+1053047477+1051563558+1047681018+1041959254+1036288663+1031859218
1281+1029689789+1030519847+1032823032+1033453246+1031452860+1028549292
1273+1025464797+1021097562+1015523801+1010764213+1008158775+1007341874
1264+1007494850+1007560515+1006062832+1002484182+997511471+991401538+984327062
1254+977790034+973282434+970229165+966643664+961235794+954577924+948541053
1244+944238512+940563093+935480516+928368388+920126920+911870779+904614649
1234+899046224+894694268+890440112+886329230+883592948+882635379+881964784
1224+879528875+874871271+869493716+865242713+862807289+861495445+860129759
1214+858404948+857309743+857864834+859881409+862378739+864712422+866907560
1204+869400949+872951950+877964375+883399106+887555825+890201099+892635068
1194+895704526+898804179+901046731+902651976+904551894+907217904+910491693
1184+914129156+917641656+919944477+920467614+920329978+921345390+924376528
1174+929108892+934957985+941444689+948033316+954746058+962022379+969097521
1164+973719594+975724043+978231984+982837020+987536096+990303423+991489940
1154+991711006+991021675+990961649+993411868+997604300+1000852805+1002157677
1144+1003798937+1008385177+1015496516+1022645509+1027334096+1027643079
1135+1022850325+1015068269+1009550048+1010412605+1016383509+1022342589
1127+1025080024+1025293692+1024137795+1022217322+1022684920+1029783041
1118+1041502570+1048084346+1042787978+1031665922+1025981628+1030254398
1110+1039087942+1043372475+1041508269+1040595993+1045776795+1054085990
1101+1058607353+1056054362+1048968488+1042106348+1038010140+1035176421
1093+1031824294+1029136942+1027352650+1024293135+1020436910+1020069720
1084+1025642935+1034881383+1044017120+1050055628+1051469577+1049120918
1075+1042868862+1032210159+1020046559+1011132313+1006775749+1004830416
1067+1003606126+1003334007+1004247011+1004703028+1003333340+1000624524
1058+998020117+998065895+1001865246+1006251945+1006141775+1000455723+993904931
1048+991251836+992384693+993843631+993746559+993120589+993119498+993967989
1038+995176697+996082728+997378080+1000757309+1005858986+1009405379+1008208736
1028+1002402207+995797695+992793295+994416305+997485278+998233665+996354664
1018+994291402+993759292+994214520+993818469+991236193+986823059+982500449
1008+979872880+978667204+977403562+974774720+969985847+963254006+956714370
998+952358412+949320847+945086093+939032730+933068738+929064934+926727007
988+923613711+917728724+910148999+904043794+901662272+902639182+904464887
978+903979463+899202959+891137931+883533043+879440836+878582341+878106195
968+875538773+871091321+866883852+864534102+864110099+864631296+864782089
958+863750003+861851903+860091318+859299883+860110175+863299989+869096756
948+875911481+880816708+882300446+882028206+882912894+885965436+890282225
938+895773586+903469483+912297389+918590554+920461126+920228237+921654191
928+926665889+934044739+940760391+944935482+947419352+949911407+951685392
918+950162243+945330321+941519085+943137184+948966389+951840732+947109277
908+939314913+935251265+935677753+937256198+938862110+941755006+944876184
898+945557753+944401674+945085790+948637701+951165286+949919895+947583241
888+948117777+952191552+957679942+962613242+966119799+967642099+967135272
878+965771527+964879138+964445373+963988568+964235767+966242398+969446400
868+972281210+973599603+973024746+971880915+973114300+977552961+981522144
858+982104216+982247308+985789396+991041866+993976235+994428553+993734857
848+991461806+988649369+987536945+987109608+984801693+981505349+979643447
838+979004623+978031230+977062929+978124725+981644197+985644970+989089864
828+993942766+1001563418+1008387238+1009171337+1004466440+999193477+995573173
818+993193651+992953911+996530923+1002923950+1008859141+1012918788+1016509442
808+1020832355+1024261606+1024654869+1022459973+1018005670+1011546250
800+1007061509+1008740483+1014261554+1016480521+1013241049+1010630640
791+1013771947+1020297577+1023967782+1021230711+1012524858+1000755975+991448770
781+989930897+995764650+1002023194+1002134697+995453120+984315845+972271085
771+963484712+959025316+958103823+961843573+971200921+982818102+991094434
761+995072166+997826942+998975078+995338040+987804638+982037944+982562173
751+987149989+989014801+986271849+984311904+986496310+988757234+986007613
741+980554814+979277166+983888387+989347431+990953888+989153286+987696469
731+989708800+994420671+996448160+991591620+983610629+978931500+977846907
721+977222029+976313876+975675961+974426629+971088873+965663419+959611389
711+956429094+958933457+964240799+967105016+967432735+968321546+969632966
701+968971708+967230101+967200816+967312198+963398069+956595530+954998047
691+961384282+968314392+967822723+961178435+956551875+959338846+966410896
681+968896645+963485925+955951674+952069074+951304499+949175632+944233116
671+934664403+919339486+907235487+912600975+933517055+954429557+965435865
661+968031117+968401824+967312016+963482045+960102937+957684974+949883516
651+935351793+922243781+917489529+921286758+929058628+932887386+925683158
641+911246810+899487507+894664558+894345995+894007605+892061181+890285135
631+889595623+888444879+887417098+890143922+897003152+903108599+902631179
621+895004463+885859632+880354871+880296361+884229831+888728821+890782928
611+887644409+879133248+870676777+869080870+874934389+880491476+876584198
601+865442801+856389524
##END=
