##TITLE=<SNM>
##JCAMP-DX=4.24
##DATA TYPE=INFRARED SPECTRUM
##DATE=29/4/2025
##SAMPLING PROCEDURE=Instrument type and / or accessory
##ORIGIN=Admin
##XUNITS=1/CM
##YUNITS=ABSORBANCE
##RESOLUTION=4
##FIRSTX=4497.3318
##LASTX=599.83466
##DELTAX=-1.4281778
##MAXY=2.2037504
##MINY=0.51079714
##XFACTOR=1
##YFACTOR=2.0524025e-09
##NPOINTS=2730
##FIRSTY=0.52814233
##XYDATA=(X++(Y..Y))
4497+257328833+257069522+257700214+258171934+257874898+257294477+257129696
4487+257280392+257214090+257091449+257735674+259367423+261069337+261689777
4477+260817896+258898434+256725149+254900623+253794669+253690323+254505835
4467+255501490+255785515+255189614+254370066+254221955+255250979+257142503
4457+258943128+259842947+259620519+258439521+256770657+255413901+255006653
4447+255510173+256483757+257498290+258045081+257716855+256835681+256221775
4437+256057604+255713521+255010226+254904021+256395036+259126583+261435810
4427+261857898+260443001+258333578+256290225+254303910+252609750+252142881
4417+253484565+255824750+257661822+258329861+258141673+257409016+256218929
4407+255028406+254610616+255208375+256115832+256360447+255833665+255434172
4397+255833259+256521250+256559730+255938040+255621373+256456371+258323298
4387+260101096+260482352+259154898+257035399+255263438+254303881+253967872
4377+253975800+254288227+254754632+254790121+254049826+253146668+252937947
4367+253412803+253804078+253565300+252831540+252088138+251789273+252277546
4357+253693663+255670830+257296220+257826951+257401466+256638490+255733269
4347+254459601+252975295+252067025+252281583+253133686+253680449+253819848
4337+254303184+255285044+255725922+254763693+252988218+251566816+250718574
4327+249913837+249104540+248877669+249451208+250256177+250659127+250636300
4317+250560124+250652505+250839996+250992987+251078107+251114438+251293826
4307+251997122+253254324+254472292+255198472+255782204+256655160+257349772
4297+256949291+255389187+253777941+253260133+253828444+254591797+255061048
4287+255446805+255739920+255512032+254834119+254392718+254436861+254534586
4277+254414267+254199244+253921696+253603141+253529405+253791648+254023892
4267+254066467+254266562+254713713+254845793+254197967+253126252+252500381
4257+252814957+253797718+254926732+255981051+256803387+257043646+256654346
4247+256193837+256106742+256190759+256155154+256088359+256061815+255879260
4237+255519728+255368713+255693947+256140604+256007856+255079315+253978733
4227+253487469+253682830+254060601+254265256+254298827+254255411+254292990
4217+254778562+256049037+257825586+259083485+258956458+257807174+256837656
4207+256631636+256763920+256795110+256828072+257045447+257405183+257836157
4197+258256444+258504632+258574477+258654312+258734960+258448524+257438755
4187+255782582+254010737+252746797+252311699+252715345+253932064+255776396
4177+257454321+257916892+257085263+256130178+256188900+257300663+258661398
4167+259436106+259247279+258319755+257232532+256383303+255872581+255789290
4157+256138774+256529701+256499294+256156751+256013838+256253052+256560252
4147+256606457+256385365+256163547+256385191+257397632+258821910+259455796
4137+258466791+256558074+255265964+255274183+256011544+256696398+257136405
4127+257441862+257509383+257129261+256474464+256082202+256243904+256726660
4117+257151245+257434544+257765209+258198681+258370577+257833514+256776175
4107+255963945+255799251+255969173+256076916+255986946+255588149+254934398
4097+254524915+254896412+255984913+257129783+257671812+257517573+257044721
4087+256458491+255734170+255230447+255533465+256437669+256897684+256392306
4077+255591083+255341036+255692669+256182191+256524706+256702207+256763804
4067+256884906+257244235+257579054+257391969+256801267+256507862+256773649
4057+257138060+257205727+257038216+256779457+256487823+256262810+256192762
4047+256356730+256917897+257828142+258508872+258288738+257119996+255650850
4037+254726172+254834438+255825214+257123046+258205651+258731939+258496007
4027+257765151+257410730+258116726+259515709+260493997+260348965+259466890
4017+258786247+258672666+258646470+258266086+257742354+257435822+257347710
4007+257433092+257863630+258675338+259585060+260336564+260861836+261036316
3997+260684828+259934428+259187831+258710449+258621814+259119671+260243951
3987+261608113+262671086+263152592+263174809+263148933+263326870+263403133
3977+262958160+262233084+261909737+262244032+262883524+263382310+263595793
3967+263706615+263998656+264545650+265103013+265326312+265090874+264637421
3957+264385516+264444238+264437442+264138200+264028830+264680867+265732311
3947+266155590+265647568+265002675+264905706+265099877+265025443+264653046
3937+264338208+264504063+265595758+267565666+269350057+269786781+269075296
3927+268427731+268574303+269038762+268858589+268043513+267742150+268686257
3917+269984263+270013536+268446869+266472780+265184155+264843267+265564190
3907+267837668+271889175+276733949+280546708+282214759+281604279+278682163
3897+274077445+269827497+268205157+269840653+272711076+273899857+273565213
3887+274197851+276139588+277146047+276723639+276859931+277673032+277027703
3878+274833015+273583741+274815126+277760998+280788564+282489084+282048845
3868+280529806+279986296+280706029+280858670+279199797+276739757+274982230
3858+274923741+277886225+285007525+292914802+293906740+287950987+280885737
3848+276379208+275497628+277545918+280721188+283592425+286246373+289108694
3838+291064487+290595584+288372146+286060160+284059527+282040017+280409051
3828+279934544+280688372+282584107+286095590+290639059+293267916+292659876
3818+291221862+290060351+287401350+282916225+279134947+278469086+281531066
3808+286460321+289780247+290635662+291633960+294114299+296001032+295806048
3798+294868620+294013351+292795964+291465607+291016917+291877443+293892161
3788+296836640+300179741+303025566+305284609+308166271+312333567+316409354
3778+318856441+320477851+323143358+327843854+334803597+343471846+352032641
3768+358885018+364097630+368055857+370966444+373971009+378326436+383211577
3758+386287671+387260035+388633897+393241025+401717687+410536051+415272587
3748+417528407+421902827+428643801+432091828+430192114+428492495+431490845
3738+439320524+448868698+456179870+459085230+458074183+455699119+454820326
3728+456770573+460626138+464108957+465924451+466517680+466289299+464936085
3718+462871038+461709295+462864301+465988981+468292458+466646450+461803825
3708+457253502+455153547+455731936+457947185+459759862+459630076+458487878
3698+458277560+459767645+462980437+467938095+473993721+478952076+480290942
3688+478480618+476666895+476409704+477025992+477846528+479224252+481919788
3678+486113627+490275493+491981152+491817649+492494778+493979375+493162905
3668+488511692+482127956+476762964+473953324+473455061+473814942+474309633
3658+475279123+476452889+477196494+478467723+481948945+487166407+490074003
3648+487198091+480559372+474063217+469511965+466829846+465308280+464405906
3638+464027409+464518528+466247944+469113662+472940680+477669753+481699015
3628+481722625+477514265+472468815+469463030+469787248+473283136+477956653
3618+481324236+483352806+485679197+488524238+490583680+491092892+490098514
3608+487737216+484847364+482780023+482194781+483040960+485009967+487387674
3598+489492711+491655424+494520474+497687788+500603951+503924719+508099943
3588+511109097+510259694+506424371+502864882+501433489+501831821+502738784
3578+503154773+503158491+503457966+504281696+505152299+505978295+507698126
3568+510991886+514406400+515366218+513345924+510099444+507492107+506349502
3558+506764097+508503038+510914171+513209139+515263760+517421769+519434222
3548+520430284+519707501+517191296+513635583+510520486+509081659+509485218
3538+511190006+513302652+514456525+513721894+511649790+509407852+507573074
3528+506663556+507438090+509420223+510545868+509451356+507012169+505054894
3518+504681189+505902497+507840371+509321831+509811527+509483882+508601430
3508+507425718+506489714+506333703+506843206+507171490+506663497+505650824
3498+505089395+505646932+507187056+508973973+510128659+509971720+508548923
3488+506569984+504723648+503373920+502295961+500601976+497753189+494793289
3478+493471789+493971824+494484172+493451286+491588745+490959418+492591312
3468+495526294+497861165+498337211+496824851+493767895+490080625+487201489
3458+486327459+487342659+488665089+488715969+487606820+486820960+487302466
3448+488584993+489635246+489589477+487886314+484828516+481756110+479902659
3438+479411627+479737326+480423284+481192823+481781434+482000697+481796536
3428+481197034+480259374+479149761+478340783+478478643+479690337+481053308
3418+481309628+480300061+479053866+478371015+478107174+477924794+477676345
3408+476980223+475635286+474368239+474016693+474264532+474185510+473645950
3398+473341422+473803268+474808158+475609585+475692498+475292336+475156539
3388+475899185+477393249+478623443+478521421+477230066+476210219+476810534
3378+478925851+481122456+482082419+481815500+481426171+482093658+484246498
3368+487182932+489440029+490035262+489308762+488333726+487976401+488518313
3358+489738807+491352929+493256941+495154041+496192330+495674696+494158386
3348+492964145+492652125+492575630+491924463+490873339+490220372+490376266
3338+491164624+492132226+492698126+492441981+491592288+490729119+490055068
3328+489547134+489330543+489223903+488646560+487593403+486918248+487034327
3318+487060580+486114673+484809029+484361734+484804644+485218833+485442655
3308+486345116+488249855+489952262+489870191+487994581+485915362+484909077
3298+484825264+484869697+484789281+485066685+486178912+487824282+488993779
3288+489070623+488547936+488185383+488239458+488923848+490509392+492535088
3278+493940576+494247311+493866230+493393726+493237657+493496474+493627800
3268+492850245+491354206+490189995+489969919+490353498+490831403+491344390
3258+491809808+491676508+490392704+488145480+485896717+484655923+484611170
3248+484930481+484649505+483653472+482595349+482219350+482824863+483849182
3238+484227766+483762987+483412603+483698167+483926403+483442573+482616723
3228+482191325+482374053+482714447+482531632+481534292+480033636+478483522
3218+477130512+476120132+475554319+475420177+475539769+475547581+475126800
3208+474432130+473930701+473780760+473711206+473308286+472275893+470816272
3198+469611112+469033595+468889056+469142413+469989347+471079533+471649005
3188+471422686+470644986+469511936+468126312+466669654+465341068+464334580
3178+463722619+463168190+462177588+460765914+459375702+458130262+456760292
3168+455337002+454401782+454125162+453942056+453318711+452390606+451634572
3158+451362454+451658240+452427170+453233156+453290396+452124616+450310719
3148+448983179+448556590+448531759+448520201+448699473+449124552+449265287
3138+448552059+447124442+445737889+444932310+444525730+444002230+443146438
3128+442154645+441318020+440720406+440205270+439645991+439206333+439076169
3118+439083546+438906074+438440395+437797244+437203347+436898006+436883311
3108+436927773+436904163+436853224+436729479+436435493+436051536+435696011
3098+435256963+434556223+433676356+432860932+432206658+431734270+431564088
3088+431711299+431955624+432158798+432333569+432241769+431465086+430042144
3078+428586502+427706983+427553238+427784320+427861803+427525561+426938693
3068+426298707+425658548+425212530+425222027+425571249+425889630+426077731
3058+426270247+426348891+425904674+424797499+423533821+422836943+422766402
3048+422507265+421354903+419717606+418650015+418584934+419003072+419152635
3038+418823828+418443734+418452040+418680306+418662852+418461769+418458516
3028+418455874+417934406+417027066+416264555+415635460+414792214+413851940
3018+413249680+413104792+413207192+413333871+413296059+412889740+412063658
3008+411136104+410648441+410823619+411241699+411239957+410598083+409702911
2998+409041697+408649144+408223978+407734369+407475087+407401409+406997298
2988+406062514+405105309+404713163+404892784+405178464+405186218+404947440
2978+404681827+404354531+403716346+402801716+402055787+401869138+402197306
2968+402656828+402922848+402961763+402807931+402311991+401401310+400397988
2958+399691120+399280765+398985356+398805590+398721573+398443037+397744679
2948+396855954+396256917+396163055+396265571+396012098+395303023+394734102
2938+394851429+395457755+396010936+396333383+396422046+395949920+394661353
2928+393032653+391914269+391616856+391771588+391978479+392112302+392029708
2918+391557785+390822922+390112540+389508450+389071725+389077882+389592612
2908+390147390+390312229+390236198+390187118+390023557+389536707+388880633
2898+388268585+387599820+386762672+386021739+385750086+385944111+386257962
2888+386423498+386425269+386270334+385840840+385165163+384599117+384403610
2878+384321452+383895879+383098983+382385872+382180549+382465968+382876701
2868+383107986+383124191+383002827+382786875+382472706+381949321+381127856
2858+380334620+380159877+380630726+381013869+380752641+380123634+379674044
2848+379463232+379149788+378566637+377930108+377515338+377321371+377126881
2838+376751840+376186810+375576709+375132027+374925426+374759919+374383107
2828+373812966+373287201+372929120+372672365+372513451+372604176+373009884
2818+373547354+373945017+374029150+373715271+373019352+372185835+371595336
2808+371397622+371356412+371184487+370945970+370945302+371224651+371343634
2798+370802302+369672998+368600819+368079061+367918985+367605947+367011209
2788+366424427+366008757+365648615+365324542+365236372+365429381+365597938
2778+365458510+365130110+364921854+364855320+364681943+364329584+363990380
2768+363778697+363629831+363481371+363253774+362781706+362042021+361317526
2758+360942601+360958022+361043026+360781566+360091630+359340735+358929044
2748+358903459+359056072+359150630+358947224+358291121+357344458+356545936
2738+356198543+356171709+356091467+355768265+355318559+354923654+354678167
2728+354643376+354803220+354993296+355085473+355143498+355161823+354833916
2718+353922307+352721445+351807222+351412984+351298852+351127914+350791179
2708+350465393+350420930+350649167+350748924+350405625+349842513+349531915
2698+349617413+349836762+349896530+349749028+349536620+349370445+349216525
2688+348998047+348715038+348396919+348073949+347864909+347887968+348001230
2678+347863283+347346404+346681124+346132764+345775700+345615159+345662061
2668+345826522+345917161+345809243+345542962+345219615+344851951+344408431
2658+343992296+343785376+343748842+343602967+343194529+342689964+342358950
2648+342321080+342453973+342426268+341989224+341359839+341076598+341359722
2638+341867482+342184237+342268428+342283907+342273104+342186763+342049688
2628+341928992+341831907+341688065+341382346+340871246+340303690+339932686
2618+339878437+340052482+340250428+340258153+340000091+339628390+339340270
2608+339161724+339037979+338970719+338900468+338687013+338374092+338220899
2598+338327655+338475476+338454072+338318972+338225458+338214858+338248778
2588+338287433+338265652+338121200+337892992+337694378+337570023+337464980
2578+337328369+337155399+336976039+336900822+337076435+337467913+337801105
2568+337823409+337501224+336966310+336433023+336127130+336125562+336308900
2558+336526565+336710194+336836989+336896262+336885052+336813262+336742459
2548+336768771+336899951+337010802+336985071+336853513+336733195+336661869
2538+336590747+336559614+336714754+337073705+337450082+337668793+337660283
2528+337388311+336957307+336692856+336830890+337219174+337523034+337605192
2518+337561281+337525851+337585357+337779789+338047289+338214161+338149951
2508+337908094+337668502+337588028+337709131+337910272+337983747+337880969
2498+337785278+337834387+337945296+338012701+338067851+338145594+338211402
2488+338312379+338586733+339024126+339396117+339508827+339374220+339099082
2478+338806460+338686607+338870787+339196428+339318199+339091792+338670489
2468+338259698+337990310+337993853+338354315+338931571+339395914+339510308
2458+339300861+338950854+338645252+338512707+338580199+338779568+339067514
2448+339443716+339777895+339820151+339530608+339212256+339181879+339474384
2438+339927836+340368133+340669670+340796116+340809272+340769253+340697027
2428+340672371+340819581+341146820+341520263+341802226+341925652+341874917
2418+341703398+341559731+341617407+341919989+342311525+342607864+342816671
2408+343050890+343292805+343466241+343667875+344055171+344576580+345035870
2398+345329275+345467890+345526321+345668276+346022087+346479693+346791713
2388+346824762+346584764+346114758+345477532+344666115+343479948+341679933
2378+339287647+336603060+333980389+331651588+329625951+327686188+325620822
2368+323508437+321706273+320609147+320441636+321123035+322271303+323544391
2358+325101387+327470643+330940190+335414483+340476835+345064331+347694088
2348+347533140+345223710+342721474+341795808+342472473+343612842+344468140
2338+345162665+346190411+347586257+348755406+349362662+349900044+350894828
2328+352106203+353002943+353520577+353983846+354693356+355797452+357242901
2318+358761795+360125202+361345434+362473199+363396280+364040070+364568739
2308+365195279+365920094+366551047+366900474+366935091+366801181+366717832
2298+366792033+366914733+366881277+366647523+366399364+366335851+366519102
2288+366978305+367747176+368673132+369384588+369603502+369375469+368919955
2278+368413618+368026525+367985373+368363725+368872240+369096962+368959858
2268+368753141+368735745+368897796+369097775+369220998+369187891+368981203
2258+368690266+368404150+368091578+367714039+367372513+367179678+367099814
2248+367082011+367205902+367542608+368013427+368494062+368919722+369237871
2238+369427715+369598420+369904342+370320302+370593233+370449507+369845853
2228+369040825+368404963+368133775+368161219+368307704+368408448+368330908
2218+368028326+367601039+367218825+366968576+366776438+366468483+365990200
2208+365559458+365414193+365449072+365391337+365288502+365448462+365911904
2198+366353217+366557814+366719981+367153773+367876178+368606598+369095074
2188+369316312+369412671+369589911+369959143+370372083+370612720+370800531
2178+371267023+372004529+372633682+372920117+372952934+372896536+372928917
2168+373288972+374038908+374879918+375443205+375673794+375782351+375939552
2158+376134129+376254651+376249801+376214661+376265832+376350372+376336083
2148+376291330+376468628+376981644+377675589+378312205+378739840+378915976
2138+378889055+378755522+378605698+378539919+378680479+379064610+379560550
2128+379973286+380216653+380363458+380593988+381081826+381811578+382517923
2118+382941143+383149893+383475767+384132015+385014729+385881266+386615752
2108+387269154+387908443+388529058+389112035+389670995+390244185+390896629
2098+391645490+392338825+392790390+393071568+393421924+393871949+394241240
2088+394480948+394731575+395080478+395480756+395836746+396042852+396044392
2078+395958748+396058099+396552674+397384623+398238063+398787003+398975802
2068+399020903+399129111+399324153+399560057+399828138+400092444+400312723
2058+400600813+401164129+402019282+402918956+403616501+404085956+404465817
2048+404904400+405504802+406333499+407369348+408442834+409324937+409937363
2038+410437514+411067247+411927657+412898540+413799898+414622815+415507126
2028+416501445+417521263+418560365+419757625+421233742+422983341+424855379
2018+426563797+427873594+428857603+429827993+431015612+432474797+434202528
2008+436134885+438079788+439856250+441490671+443138016+444847247+446528977
1998+448137900+449815186+451815500+454168405+456360798+457697952+458215382
1988+458746404+459859561+461269870+462492135+463562253+464828487+466426839
1978+468241462+470150992+472093484+473991630+475810667+477691359+479828081
1968+482131093+484229189+485958314+487584807+489422895+491556044+493989307
1958+496728492+499616020+502387267+504964111+507467189+509972649+512479967
1948+515071274+517915821+521076745+524267175+526878172+528599223+529890985
1938+531422977+533422361+535881471+538808728+541878230+544426206+546244314
1928+547977447+550497602+554074341+558133806+561826653+564839524+567231432
1918+568743327+569257012+569596273+570737426+572699521+574846320+576754166
1908+578392507+579854684+581260171+582687324+584010218+584961382+585544069
1898+586228342+587421711+588917750+590368775+592029769+594215947+596326560
1888+597401557+597446977+597241132+597270696+597495767+597718979+597871156
1878+598025424+598163893+598166914+598329720+599511763+602233930+605565501
1868+607344055+606393065+603898525+601784020+600849062+600578686+600116812
1858+599249693+598422013+597993014+597852802+597802154+597823412+597837526
1848+597763296+597808717+597955144+597324887+595283045+592666995+590676614
1838+589640358+589029153+588278258+587697488+588069335+589131088+589416217
1828+588395179+587089071+585855799+583918447+581195235+578587607+576522764
1818+574710929+573138685+572337143+572525099+573046101+572930633+571887872
1808+570474427+569469827+569519662+570927996+573151522+574770986+574759776
1798+573787877+573600444+575361572+578608924+581044916+580478086+577859714
1788+575950997+575981722+577170793+578462613+579885061+581725473+583536727
1778+584957606+586779548+590362502+595899826+600869971+601780187+598797345
1768+594955922+592426068+592165740+594533718+598574190+602018326+603848690
1758+604986474+605864512+606448534+607923315+611634341+616685280+620121342
1748+620503121+619349248+618538818+618736764+619866649+621578408+623197814
1738+624608181+627201810+632268199+637798321+639564735+637610481+634886746
1728+632959559+632310832+633041455+634763669+637246650+641198837+647382041
1718+654471687+658423002+657004213+652680181+648589699+646432794+647139894
1708+650911675+656282302+660395203+662363804+664564619+668672119+672437627
1698+673261473+672074319+669898537+667269071+665943853+667042490+669712208
1688+672936152+677430715+683601374+688046567+687264018+683583310+680520430
1678+679501135+680512937+682535032+684827444+688090304+692408934+695058788
1668+693520813+690190055+688932156+690369938+692076062+691885492+690790631
1658+691347413+695304304+703027516+711765842+714809671+712306651+710981317
1648+712290968+712960373+710273056+706295661+704112968+704606265+707646842
1638+713019036+719161757+721627837+718004458+712356195+708887548+708632333
1628+710721745+713776959+716898154+719168960+719301447+717692437+716859878
1618+718352199+720332010+719628801+717084078+716049913+717935339+721361237
1608+723669796+723738334+722853675+722454297+722496117+722522603+722914429
1598+724167508+725994096+727939521+730119717+732664151+735004016+736410898
1588+736980458+737502971+738538587+740120821+742197978+745017143+749142939
1578+754936873+761094405+764417032+764430217+764499568+766509058+768584996
1568+768028214+765780758+764460826+765176523+768675140+776260174+785678068
1558+787088202+778601085+769656682+764115873+761020117+759259511+758881392
1548+760755492+765487846+772175617+778784975+784418542+788988149+789692519
1538+785299426+780644612+779466867+781276553+783175280+783918682+785542270
1528+790168740+797606649+805661108+812272906+816341374+817732109+818472142
1518+820906682+824406345+826599901+827515983+830099854+836684237+847223071
1508+859497768+867867152+867381521+862856755+861018608+863645287+869646518
1498+876745921+881969250+883613864+884065458+887495770+894896333+901903675
1488+903121206+899403907+895569048+894631649+897081117+901693705+906539786
1478+910536347+914045710+918248756+924090492+930721632+935465022+937342665
1468+938100587+939617710+942651026+946644277+950205160+952211862+952224931
1458+949819141+944973990+940214337+937900666+936879106+934797651+930645892
1448+925932588+923239231+922992030+923087170+921859299+920453579+921711827
1438+926907857+933398378+936116885+933701396+929255622+925691487+923967763
1428+924064181+926469215+931366293+936658507+939497943+939900573+939955055
1418+940117338+939014927+936389700+934140792+934395253+936921274+938843466
1408+937859369+934774998+931581606+928855489+926433843+925306630+927006365
1398+931227243+935713791+938653826+940119778+941773918+944617884+947483400
1388+948253171+946559709+944699665+945177512+948405754+952598055+955019643
1378+954609985+953879942+956002462+960661923+965197144+968430324+970722329
1368+972265299+973317469+974380791+975496271+976464047+977492228+979268401
1358+982135949+985749628+989598195+993091759+995213292+995410193+994782550
1348+995048569+996570571+998728347+1001867025+1006675352+1011560116+1013365910
1338+1011559071+1009561371+1010805969+1015203069+1020458518+1025200165
1330+1028710690+1029393512+1027202512+1025924923+1029422901+1036775604
1321+1043561185+1047372927+1049247143+1050020341+1049527451+1049440094
1312+1052780552+1059925899+1067191361+1070051939+1067716894+1064093340
1304+1063462677+1065923994+1068006378+1067629653+1066622033+1067605026
1295+1069925899+1070231995+1067225746+1062589925+1057084488+1050083652
1287+1042726535+1037435192+1034312196+1031359847+1028449782+1028041576
1278+1031417233+1036334639+1038945926+1037766496+1034554052+1031484260
1270+1029291170+1027266984+1024001917+1019401178+1015439583+1013168661
1261+1010613599+1006257040+1002169753+1000631140+1000342584+998063183+992439025
1251+985200513+979010048+974512116+970073022+964659995+959297790+955242507
1241+952391106+949225187+944182205+937258851+929411342+921462594+914058314
1231+907517610+901564703+895860682+890496851+885468506+880722444+877011011
1221+875196621+874768086+874164722+872634530+870901572+869860379+869421970
1211+868824879+867763125+866830780+866607103+866819686+867265995+868912991
1201+872599216+877319838+881295896+884082825+886441800+889107859+892585799
1191+896996549+901553551+905046361+906839493+907529168+908882672+912573486
1181+917939756+921539612+921207669+919649249+921384705+927698596+935972027
1171+943054005+948246491+953121323+959399087+966728149+972717590+976542458
1161+981110090+989161180+998740544+1005029750+1006312916+1005580027+1005926549
1151+1006436632+1003925480+998142291+993027868+992275696+996319769+1002954103
1141+1008923621+1011619477+1010560162+1008174469+1008440837+1013174702
1133+1019916489+1024595872+1026391444+1027531145+1029375971+1031777346
1124+1034457403+1036125076+1035006517+1033277044+1035424598+1040646474
1115+1042120035+1036153653+1028133115+1025478034+1030994738+1042125262
1107+1052001430+1053880176+1048307363+1042746516+1043312010+1048526452
1098+1051389934+1048550498+1044065344+1042814589+1044189176+1044925666
1090+1045152538+1047275580+1051858197+1056988071+1059340192+1055934681
1081+1047635578+1039164201+1034990603+1036195356+1039448923+1039534653
1073+1035472458+1030423087+1025634392+1020933867+1017438444+1016742148
1064+1019666849+1026679767+1036162249+1041665130+1037783340+1028090366
1055+1020726512+1019513510+1022197401+1024476105+1023708483+1019775812
1047+1013924435+1009066737+1008313984+1010242914+1009693683+1004273047
1038+997550428+994864330+997532422+1002963977+1008297256+1011939397+1013572453
1028+1014783828+1016589274+1016673726+1012829109+1006520736+1000752416
1020+997183344+995601285+994924388+994596104+995430754+998610787+1003759247
1010+1008224188+1008653536+1004315448+997389306+990971969+986721586+983429220
1000+979278391+973474699+966076402+957614783+948928558+940878397+934717148
990+931388829+930056351+929159030+928189512+926831710+923949061+919334092
980+914684040+911353340+908551890+905031375+901601702+899937223+899780283
970+898917405+895780179+891488266+888310904+886883113+886171250+885311625
960+883878490+881056188+876642941+872789960+872448142+875607382+879046872
950+880519329+881256748+883034895+885441614+887855303+891398528+896726987
940+902159413+906051426+909331826+913614387+918685887+923678162+928692974
930+933570884+937535558+941255529+946443020+952716776+957188455+957710910
920+954649075+949936875+946244668+945778611+948859207+953710689+957763475
910+959394789+959017657+958716381+959880419+961162016+959618756+954974745
900+951066063+951432275+955781922+961326797+965438072+966209412+962947365
890+958261709+956372856+957900666+960163805+961969832+964597498+969022187
880+973424574+973946157+969515427+964260211+962961770+966776590+974687178
870+985442486+995069711+996686969+989373647+981589970+979564158+980043109
860+977495365+973135495+971890781+974672773+978235572+980481518+982811916
850+987046733+992165106+996368326+1000145683+1004244703+1006378084+1003798627
840+998171797+993677234+992497921+994073591+996814519+1000105142+1004688688
830+1010533561+1014986653+1015371974+1012811452+1011089181+1013458727
821+1021199190+1032825973+1043325834+1046646660+1041766078+1034740034
813+1031357756+1031103469+1030615574+1029603887+1030024175+1031828226
804+1035081793+1040960353+1047055795+1047411262+1041251464+1035158811
795+1035189478+1041292935+1047112832+1045181928+1035359893+1026567783
787+1026968206+1035766589+1044162458+1044265497+1036698818+1026917906
778+1018541437+1011510049+1003571640+993964628+985071221+979364470+977102028
768+977317399+979468670+984129583+991402828+998264381+999636413+994910913
758+989975385+988543179+988077355+985968368+984872578+988023570+993871347
748+999376435+1003871463+1007177652+1007942138+1005890421+1004558350+1008728579
738+1017608743+1023070269+1018618222+1009459842+1005371858+1008373345
730+1012500709+1012596894+1009955753+1008319096+1008947900+1010980798
721+1013704649+1016631906+1017993716+1017106211+1017198678+1023031470
713+1032580399+1036087903+1029899529+1023571291+1025235364+1032091574
704+1036940443+1037187875+1033751813+1026378201+1015901225+1005382894+998346394
694+995721865+994033514+990570733+986544085+982865469+979550683+978574079
684+979623867+978529239+975314704+975110485+980394161+988121033+995095965
674+1001927780+1007888121+1008418533+1000563880+988534466+989648146+1005630675
664+1015240823+1012175910+1008808617+1018674911+1043260432+1067480845
656+1073741823+1059258527+1034962026+1014557421+1004492252+1003156812
647+1004421972+1003502753+1000787266+997026637+988746120+973941975+959510373
637+951574868+949640304+949758445+947644463+944341526+945610520+953074160
627+962367757+970410250+978669799+980934332+967095987+946953336+930458865
617+923626004+934761523+955734584+956796570+940980913+928613052+917606477
607+908594116+904812926+905224385+910125702+923718820+948247072
##END=
