##TITLE=<SNM>
##JCAMP-DX=4.24
##DATA TYPE=INFRARED SPECTRUM
##DATE=29/4/2025
##SAMPLING PROCEDURE=Instrument type and / or accessory
##ORIGIN=Admin
##XUNITS=1/CM
##YUNITS=ABSORBANCE
##RESOLUTION=4
##FIRSTX=4497.3318
##LASTX=599.83466
##DELTAX=-1.4281778
##MAXY=2.197144
##MINY=0.52247745
##XFACTOR=1
##YFACTOR=2.0462498e-09
##NPOINTS=2730
##FIRSTY=0.53102636
##XYDATA=(X++(Y..Y))
4497+259511988+259662350+260415182+261238331+262056702+262518713+261992707
4487+260869911+260519376+261538852+263154010+264347502+264653295+264077857
4477+263017455+262076160+261617296+261568767+261593206+261420677+261325134
4467+262107066+264019774+266014480+266818404+266444041+265804724+265288418
4457+264687201+264210364+264344909+264792501+264724427+264062856+263454007
4447+263140174+262836362+262430103+262169547+262309744+262835255+263409761
4437+263699562+263748557+263664054+263269040+262535404+261759531+260978299
4427+260012711+259178726+259122857+259878107+260620656+260470906+259294105
4417+257849641+257270504+258199098+260229545+262177004+262997881+262653113
4407+262124485+262368118+263270554+263890734+263664695+262875802+262013009
4397+261378469+261273402+261808788+262530015+262853693+262690106+262143535
4387+261137982+259865582+258929268+258620911+258685635+258897984+259292183
4377+259925761+260807954+261746190+262155711+261722479+261175995+261438562
4367+262136923+261956325+260440058+258459858+256977673+256268534+256220151
4357+256696813+257599134+258725105+259569342+259641290+259143160+258754175
4347+258660264+258533350+258363501+258435303+258732212+259148986+259828297
4337+260562020+260526192+259353236+257884537+257213353+257397709+257729106
4327+258010373+258662099+259531912+259604676+258371482+256674006+255595136
4317+255334143+255635771+256352570+257220548+257809065+257963068+257992284
4307+258269881+258704278+258798422+258419952+258174776+258578675+259308553
4297+259749853+259784604+259623551+259346566+258997895+258755486+258716832
4287+258772177+258811966+258897110+259050152+258967019+258302563+257369862
4277+257164009+258409437+260658232+262566805+263058002+262117989+260656164
4267+259786439+260012827+260719082+260693944+259654835+258743834+258978554
4257+259916673+260407288+260090339+259579130+259572692+260212796+261085638
4247+261666174+261780912+261610509+261373750+261215552+261159771+260934780
4237+260215621+259236343+258789916+259359994+260478916+261220591+261205561
4227+260939266+261135215+261828857+262388624+262375895+262045546+261816478
4217+261682020+261517937+261474594+261574272+261405646+260733559+259987806
4207+259765262+260184628+260888990+261357234+261218727+260668660+260445476
4197+261023040+261935090+262124922+260992368+259125071+257856107+257924414
4187+258833027+259730890+260496947+261620063+263323307+265022298+265679529
4177+264934941+263668861+262966684+263004901+263475854+264314208+265309041
4167+265817628+265464705+264596523+263823039+263496448+263597495+263795949
4157+263704864+263241164+262671843+262313501+262237038+262258827+262263312
4147+262401062+262762928+263120017+263304664+263473727+263650888+263489166
4137+262869598+262230543+261982657+262040041+262112018+262132699+262193578
4127+262302403+262395149+262408781+262348193+262364360+262553755+262761326
4117+262877084+263077897+263411654+263499448+263024388+262205841+261546018
4107+261307046+261316396+261222805+260927323+260647513+260556194+260692779
4097+261208590+262200278+263282206+263794143+263468484+262616877+261751550
4087+261272965+261486100+262566630+264191401+265412535+265442887+264559093
4077+263775006+263802299+264643624+265727795+266121703+265239015+263658869
4067+262611109+262511285+262660978+262438784+262026467+261791631+261700749
4057+261642055+261750559+262105784+262502663+262766365+263079936+263781938
4047+264878577+265900529+266263414+265753662+264730981+263864839+263546054
4037+263640489+264014182+264854516+265999188+266626533+266306233+265600445
4027+265081138+264665966+264236696+264020706+264154611+264530051+265047232
4017+265626952+266120946+266344538+266077602+265229170+264149135+263500642
4007+263697611+264623030+265840523+266885050+267432088+267404415+266999614
3997+266600608+266545788+266884788+267392589+267821568+268097446+268333389
3987+268646930+268938334+268986862+268774339+268436883+267920868+267181697
3977+266717677+267154811+268176880+268574225+267686818+266309030+265745797
3967+266415728+267832579+269501101+271106035+272123706+272128104+271354183
3957+270325648+269302851+268526570+268489023+269512694+271192256+272499204
3947+272723146+272300808+272187993+272466026+272247124+271121095+269916884
3937+269733344+270844256+272581114+273945125+274278474+273580870+272470658
3927+271861605+272320499+273505834+274521844+274933637+274981583+274986302
3917+275025480+274904159+274192165+272714436+271132018+270637150+271954905
3907+274862912+278627712+282494143+285768095+287761664+287796357+285524171
3897+281612649+277849509+276163801+277418667+280407710+282467344+282824695
3887+283343565+284966414+286031593+285431454+284568952+284066220+282622163
3878+280335034+279420451+281123636+284495257+288023794+290482841+290527844
3868+288369057+286363923+286030340+286304558+285268129+282892594+280966691
3858+281496775+286084345+294941836+303088674+302612449+295335628+287985926
3848+283770709+283044355+284794787+287541043+290197263+292474604+294290169
3838+295097995+294572688+293311298+291958473+290563411+289066019+287867227
3828+287383574+287554559+288730660+292117486+297438255+301071452+300730937
3818+298914907+297605629+295658607+292385063+289428031+288586532+290521873
3808+294234008+297228732+298485258+299587547+301320881+302036661+301084356
3798+300048509+299396929+298223799+296593056+295780947+296596552+298855746
3788+302080005+305847980+309572320+312872284+316154159+319881033+323422853
3778+325879016+327890121+331134449+336607620+344059301+352152250+359082614
3768+364080171+367809434+371021983+374199985+377967552+382458939+386578964
3758+389133466+390763101+393437030+398594038+405674240+411408200+413358543
3748+414290866+418461662+425999680+431551498+432186330+431953591+434873862
3738+441644980+450309377+457739153+461950933+463389309+463781178+464734474
3728+467500421+472251432+476904542+478728058+477694512+475812418+473969444
3718+471809928+470161300+471421642+476679347+482481818+482818750+477142727
3708+470323227+465857240+464331944+464914023+466285374+467375080+468123542
3698+469184818+470948417+473297444+476445327+481298289+487754729+492723535
3688+492756917+489037645+485353415+483989433+485205208+488075436+492016814
3678+497262198+502267387+503141190+500040438+497347312+496106487+493249658
3668+487748641+482626588+480454838+481067619+482342204+482692972+482864977
3658+484409557+487189690+489901545+492518003+496177794+500898104+503981088
3648+502366657+497003419+491301762+487183718+484335250+481884679+480111643
3638+479924957+481160102+482586128+483584428+485112433+488323176+491821885
3628+491979238+488943268+486636361+487144540+489713490+492607137+494978390
3618+497266509+500283313+503916772+506948606+508751266+510022327+510779906
3608+509505001+505971919+502648682+502023754+504441147+508067323+510762488
3598+512235993+513226137+513531114+513069249+513710256+517471298+523532403
3588+527944822+527382346+523121630+519191699+518581860+521401462+524553773
3578+524503497+521542038+519309787+520332263+524043204+528465585+532111977
3568+533848690+532974304+530351612+527983796+527630232+529543931+531905921
3558+532561666+531863684+532101724+534171145+536654718+538272178+539466514
3548+540754935+541131512+539407499+536354168+534034939+533553499+534443498
3538+535643194+536171414+535541011+534195730+533127812+532878937+533158456
3528+533165388+532047894+529846520+528183561+529016759+532303703+535431953
3518+535816626+533821484+531837468+531196170+531548220+532369883+533484290
3508+534532807+535011858+534570208+533002093+530613596+528423990+527413048
3498+527656972+528617463+530045644+531661938+532452958+531623430+529951209
3488+528913993+528814722+529025964+529454680+530241331+530380042+528451021
3478+524916484+522159858+521875212+523261448+524294993+524125639+523262671
3468+522274508+521672534+522159916+523823166+525710416+526822667+526982060
3458+526370764+525110423+523434123+521347050+518453403+515051575+512726113
3448+512952268+515378225+517950291+518603299+516720884+513314571+509922007
3438+507350058+505698401+505261004+506356826+507990423+508046584+505852841
3428+503223799+502011695+502323430+503874535+506925536+510518738+511928918
3418+509774849+505802856+502342947+500202219+499387954+499887687+501282894
3408+502837902+504253092+505418648+505544310+503760234+500667055+498058053
3398+497033130+497416814+498775785+500743255+502501349+503250365+503113751
3388+502722669+502235986+501233608+499250758+496434884+493949156+493367397
3378+495114479+497797992+499700738+500582057+501298682+502162873+502435867
3368+501509457+500236416+500464086+503070873+506887610+509929406+511307777
3358+511400640+510881100+510168669+509137920+507424744+505536096+504782710
3348+505485586+506304278+506169063+505903525+506911612+508959827+510272193
3338+509920551+509161922+509593435+510960621+511757000+511328400+510414749
3328+509933775+509953874+509817843+509151087+508435277+508326744+508952836
3318+510113966+511368190+511818870+510982118+509835087+509691017+510394242
3308+510812181+510582355+510102838+509358658+508198694+507201851+506941731
3298+507164508+507522966+508102278+508968042+509972691+510919317+511546167
3288+511671129+511642758+512183503+513499714+514792854+514968442+513967870
3278+513011341+513279151+514773804+516591553+517915686+518438023+518113237
3268+517081323+515685125+514316716+513397472+513407143+514641443+516639499
3258+518018103+517620321+515839682+514147828+513439009+513242274+512533689
3248+511169299+510235199+510847019+512879563+515095094+516337492+516452492
3238+516109705+515834148+515558299+515195530+514914962+514562155+513639065
3228+512051492+510225820+508618089+507506945+506947557+506835178+507226785
3218+508228696+509335413+509441325+507909620+505423775+503505532+503168280
3208+504027286+504847259+504778690+503750913+502213615+500983859+500845555
3198+501694658+502336189+501638847+499913786+498642259+498754696+499737441
3188+500432452+500031349+498352312+496048521+494420050+494104528+494311284
3178+494001704+493164078+492371136+491846644+491329376+490362186+488657632
3168+486417604+484276264+482919099+482734772+483494245+484341396+484555113
3158+484292430+484108395+483849499+482683593+480486151+478539974+478195701
3148+479206322+479931919+479169445+477353095+475827128+475267799+475089036
3138+474473429+473577808+473133246+473312009+473713985+473960123+473734929
3128+472871641+471757962+470984857+470556344+470151047+469885568+470002636
3118+470135085+469635673+468415237+466974939+465857211+465390889+465665486
3108+466400957+467016389+467046945+466343661+464892235+462915793+461173662
3098+460490623+460834429+461414265+461768849+462149416+462738341+463104314
3088+462668344+461398274+459787659+458325689+457239828+456573741+456141122
3078+455536672+454619991+453896521+453998529+454850865+455664314+455680364
3068+454852962+453966371+453954254+454905103+455905383+456005411+455098750
3058+453759616+452604283+451925496+451611314+451335378+450949276+450617122
3048+450601421+451034857+451764444+452248010+451782882+450139090+447908733
3038+445996986+444851673+444380312+444338804+444402101+444146350+443459874
3028+442762707+442469789+442519511+442631074+442580973+442120943+441225992
3018+440428506+440223673+440308408+440122043+439822570+439884003+440116217
3008+439945610+439258551+438250522+436937312+435398791+433994058+432996137
2998+432413534+432170542+432069815+431794374+431279931+430760858+430358182
2988+430002724+429674444+429393089+429130756+428892133+428678503+428408393
2978+428065140+427723110+427296287+426571623+425602568+424723580+424076922
2968+423474395+422867148+422622263+423067234+423921142+424397018+423909316
2958+422661703+421478466+421039030+421342784+421895851+422217636+422076304
2948+421475873+420636325+419915244+419608052+419732606+419938139+419700274
2938+418777621+417476529+416382978+415827639+415672820+415665101+415770139
2928+415928454+415808967+415204838+414425033+413928971+413762413+413568998
2918+413043312+412286431+411666368+411347321+411200308+411152362+411228942
2908+411287578+411108932+410675758+410133207+409655729+409362257+409108662
2898+408569926+407778645+407196245+407044222+406976294+406528615+405638557
2888+404745150+404433764+404778211+405152603+405015115+404575359+404287800
2878+404143001+403945945+403854277+404100211+404486720+404652667+404608100
2868+404589399+404545764+404171140+403413035+402583682+401902216+401278250
2858+400664770+400236257+400056591+399926182+399691346+399415584+399189895
2848+399004578+398761382+398282331+397472495+396537171+395822760+395447466
2838+395287607+395200367+395015312+394510045+393749407+393240295+393307757
2828+393556924+393450051+393135519+393113294+393368287+393450867+393168318
2818+392671032+392080127+391449519+390894413+390449356+389934855+389154467
2808+388183753+387374091+387030750+387111262+387282889+387272723+387102028
2798+386965881+386937160+386835268+386419542+385685906+384927948+384511728
2788+384579772+384905897+385053260+384743563+384059999+383318732+382810668
2778+382593572+382441520+382086150+381535471+380971889+380394179+379647697
2768+378764514+378014915+377663914+377844046+378485898+379218223+379598615
2758+379547174+379254809+378727666+377840667+376725532+375690036+374895287
2748+374397099+374230395+374226638+374054982+373622828+373164808+372826536
2738+372469855+372042712+371830421+372025730+372278538+372101814+371591566
2728+371268470+371315659+371422648+371258333+370735356+369971135+369264705
2718+368919180+368906801+368890634+368655041+368293350+367928221+367519487
2708+367057826+366714719+366634585+366720428+366753780+366603913+366226346
2698+365618022+364909495+364376964+364214134+364324649+364423745+364328552
2688+364074083+363758124+363408376+363076366+362905235+362914207+362826908
2678+362377976+361726163+361290426+361236946+361367792+361413320+361212157
2668+360745107+360203226+359875032+359820066+359814590+359689657+359534168
2658+359492689+359508273+359365891+358975625+358545772+358362640+358402313
2648+358345687+358024980+357635878+357417908+357329094+357190150+357008154
2638+356940284+356977889+356893212+356555203+356100503+355707411+355412745
2628+355250148+355325912+355590459+355736627+355538144+355160927+354956997
2618+355036373+355184521+355144819+354844414+354373578+353883487+353487074
2608+353173882+352842193+352489940+352316595+352488600+352847699+353066252
2598+353085535+353158560+353432341+353723862+353748038+353418680+352938726
2588+352638846+352628592+352665819+352539459+352385863+352353530+352244385
2578+351851351+351373115+351136444+351151300+351217830+351250775+351265135
2568+351199392+350948156+350511138+350016824+349645607+349541938+349712778
2558+350008027+350297916+350640324+351125958+351592688+351700668+351326568
2548+350741546+350354659+350323200+350427481+350349998+350031767+349662298
2538+349396498+349244214+349190267+349266992+349526791+349975082+350450725
2528+350654422+350477728+350213967+350254369+350659433+351151883+351422896
2518+351355347+351037989+350651043+350328181+350116531+350044350+350146825
2508+350382943+350604554+350690134+350686347+350742187+350891588+350970382
2498+350823806+350558938+350472106+350727623+351202654+351657412+351940747
2488+352008034+351902734+351756857+351695599+351746779+351866643+351988867
2478+352063087+352097751+352102003+352012840+351816921+351675530+351751235
2468+351996965+352265794+352503747+352714610+352871643+352946911+352928007
2458+352787927+352521719+352218664+352036726+352076778+352280708+352472812
2448+352545401+352592677+352804501+353229110+353672071+353829424+353568256
2438+353137326+353011082+353403650+354027441+354454381+354552195+354395453
2428+354029160+353617338+353557449+354094525+354963871+355678312+356061558
2418+356277082+356434114+356462457+356402335+356513432+356918875+357353504
2408+357472699+357304248+357219250+357501886+358072663+358636042+359012240
2398+359236123+359387913+359492281+359551849+359527439+359359046+359134231
2388+359079003+359217597+359193420+358597446+357364369+355665437+353494822
2378+350634673+347120147+343478824+340274227+337590103+335174341+332904456
2368+330890118+329260890+328042406+327203441+326752849+326795610+327531896
2358+329193107+331920430+335800114+340954645+347025974+352637273+356137438
2348+356732917+354850910+352057932+350277351+350276565+351345210+352480327
2338+353231470+353642243+353946026+354387414+355108758+356135458+357408121
2328+358755353+359965419+360985681+361916664+362840278+363917575+365483972
2318+367611068+369750252+371268266+372182326+372985288+373980092+375142649
2308+376370919+377537554+378453885+378972435+379072929+378862095+378571653
2298+378446283+378508997+378546019+378433612+378395803+378792448+379650144
2288+380553688+381089132+381243485+381243339+381213803+381165769+381116513
2278+381072091+381005299+380917010+380857325+380860326+380880337+380821992
2268+380652958+380455669+380357622+380467874+380831721+381336493+381740042
2258+381883210+381769753+381440133+380978646+380612003+380526569+380622577
2248+380680368+380687359+380786921+381018757+381317472+381633868+381891948
2238+382007502+382095034+382429432+383064409+383704745+384056009+384086273
2228+383880799+383472939+382904667+382301207+381805494+381480476+381294111
2218+381170430+381036933+380861083+380660910+380440522+380138166+379718829
2208+379283442+378976629+378834918+378832763+379006952+379388772+379862638
2198+380271168+380632335+381036583+381361223+381403139+381306345+381489652
2188+382117521+382951506+383688026+384188836+384463286+384631010+384860748
2178+385272366+385908858+386695217+387364129+387620840+387504704+387413414
2168+387654804+388132428+388575971+388912116+389242960+389569901+389738760
2158+389657346+389447852+389327288+389379428+389514557+389643480+389772200
2148+389920203+390111055+390438112+390945068+391483513+391893529+392251637
2138+392727047+393261209+393588529+393585033+393465577+393554186+393934433
2128+394432592+394890699+395317464+395761444+396153459+396372856+396464087
2118+396666474+397153186+397837681+398521886+399143143+399798336+400585219
2108+401468751+402294289+402945549+403471730+404026923+404712264+405490146
2098+406215510+406743410+407027415+407157853+407343199+407781849+408449508
2088+409082475+409455352+409603705+409755902+410112409+410653883+411162965
2078+411506597+411783698+412099687+412403965+412647045+412904368+413306286
2068+413931738+414672481+415221616+415395806+415367347+415382203+415480949
2058+415665625+416040512+416613736+417223400+417795488+418460526+419293753
2048+420107843+420664463+421031660+421557841+422441199+423471132+424331682
2038+425016673+425715238+426439437+427085366+427752589+428674542+429882510
2028+431161727+432294980+433218040+434007283+434849598+436018971+437707767
2018+439698773+441372859+442386743+443141235+444227037+445739022+447409612
2008+449059929+450696963+452415645+454279534+456170163+457844249+459201240
1998+460426860+461915192+463984526+466452427+468596243+469870130+470521652
1988+471168863+472088369+473197154+474419366+475796834+477333899+478926104
1978+480500016+482142818+483985501+486007967+488114177+490343660+492763617
1968+495154269+497129196+498691603+500303528+502254454+504382016+506532939
1958+508843371+511336498+513659397+515549560+517305381+519502503+522363526
1948+525613942+528928790+532272535+535623270+538608090+540796007+542246967
1938+543451207+544920052+546925156+549381582+552019828+554743306+557571705
1928+560347963+562956965+565566898+568180269+570475612+572537635+574889604
1918+577422929+579318161+580428081+581646711+583706636+586443862+589157785
1908+591322166+592903447+594133379+595236658+596369358+597500193+598475190
1898+599516425+601172801+603354018+605200196+606384803+607440719+608514287
1888+609147546+609417744+609896620+610620352+611191508+611573969+611940583
1878+612066186+611674987+611240503+611775365+613850378+617100911+620309148
1868+621810734+620685783+617729101+614668837+612785490+612233792+612238278
1858+611974314+611320782+610657637+610186567+609886309+609902446+610479253
1848+611655995+613154202+614060222+612983507+609806088+606249354+603774753
1838+602426909+601467409+600541872+600234448+601212590+602906833+603708631
1828+602946332+601291762+598993448+595847021+592604587+590542157+589917346
1818+589867128+589581200+589121432+588946776+589022744+588804337+587965022
1808+586766200+585804661+585742093+586867335+588536061+589513447+589304302
1798+588716077+588963089+590785207+593873317+596203673+595427277+592235875
1788+589556324+589101916+590546176+592737122+594900746+596572967+597340043
1778+597460112+598100070+600477207+604721728+609037731+610929408+610217094
1768+608585303+607373024+607528630+609635860+612830057+615080076+615908963
1758+616715479+618152166+619986052+622681100+626700631+630721851+632566515
1748+632211669+631519687+631757028+633127476+635293895+637384056+638435778
1738+639109758+641801427+647721024+653603686+654245043+650556472+646753951
1728+644712377+644351472+645068446+646551623+649252613+654016382+660857496
1718+667711892+670986019+669536632+665756714+662167123+660386601+661465995
1708+665312151+670035723+673241631+675193139+678659515+684852223+690635498
1698+692331547+690441734+686593713+682381234+679908613+680076278+682066469
1688+685027928+689779405+697123339+703605412+704006631+699668781+695150567
1678+693197486+694336302+696925671+698938058+700814239+703922449+707204265
1668+708287446+707652207+707586958+708594754+709225274+708577219+707919317
1658+709214730+713774540+722028979+731195206+733319214+727997047+723555091
1648+723083264+724433730+724154794+721987150+720050032+719790787+722049719
1638+727151207+733302844+735709575+732313283+727614354+725682187+726862425
1628+729402916+731878449+734218243+735798768+735007457+732560061+731611339
1618+733695033+736634704+737176207+735877706+735109524+735384382+735824284
1608+735718605+735234369+735194114+736307180+738340132+740160677+741055395
1598+741660282+743089104+745599010+748515494+751096124+753031844+754410274
1588+755736971+757741784+760666483+763878798+766479294+768460979+771020171
1578+775232475+780080311+782604256+782421677+782267528+783342378+784155594
1568+783402558+782348797+782472827+784061624+787838571+795259812+804876136
1558+808745945+803793887+795817919+787985555+781498879+777489951+775958946
1548+776535636+779877109+786299351+794080682+801132105+806334495+806856365
1538+801853390+796555575+794865293+796097438+797025013+796558138+797128828
1528+800578193+805876766+810831853+814877425+818291661+820347391+821095941
1518+822432775+825170292+828043957+830329863+833290040+838636035+846834372
1508+855918456+860691663+858864942+856131503+856507846+859603880+864329200
1498+870145157+875764670+879084995+880244843+881740836+885167597+889431401
1488+892122837+892907332+893699050+896198120+900356187+904255183+906000926
1478+906013043+906850436+911314529+920381194+931312271+939378189+943716330
1468+946908197+950171663+952650983+953793936+954797304+957089327+960651537
1458+963369072+962555332+959797599+959197955+961681936+965194161+966338745
1448+962884894+956537512+951237425+948852656+948388927+948273461+947981474
1438+947820625+948387121+950211569+952951359+955312999+956159888+955440991
1428+954165793+953689422+954535204+955829393+956796350+958011484+959612340
1418+959441180+956416395+953528806+953669090+956150450+958124969+958049235
1408+956895563+956246342+956571418+957371701+957873356+957603857+956801710
1398+956047800+955594266+955266277+955762921+959017124+965223406+970669895
1388+970793459+966478796+963859832+966498836+972451815+977952949+981464825
1378+984224247+987392636+990305975+992147726+993752951+996158518+998536237
1368+999428275+999407303+1000508718+1003398986+1006897346+1010138441+1013464591
1358+1016454363+1017009440+1014039126+1010170599+1009725861+1014579406
1350+1022238745+1028088026+1030392108+1030539150+1030554530+1032346645
1341+1036262944+1040103158+1040353665+1036426181+1032018656+1031072904
1332+1034329146+1039577559+1044202851+1046756042+1047045931+1046312237
1324+1046494349+1048690189+1052218726+1054691638+1054209616+1051926390
1315+1050092679+1048762545+1047008996+1046289982+1049635241+1057090097
1307+1064554857+1068228804+1068426530+1068006960+1069054778+1071380765
1298+1073088058+1072844542+1071105674+1068716303+1065668506+1062364377
1290+1060721400+1061298848+1061452648+1058594887+1052788950+1045483816
1281+1038421266+1032954270+1029249912+1027033100+1026689614+1028815195
1273+1032910111+1037148573+1039608552+1039232326+1035330242+1027618354
1264+1017759796+1009083981+1003535542+1000564412+999482455+1000726717
1255+1003910254+1006497117+1006240085+1003437553+999411031+994933364+990403731
1245+985515698+979598023+972888746+966606496+961429973+956631074+951523935
1235+946098011+939880776+932304862+924336641+917627539+912260047+906843736
1225+900411298+893692234+888830942+887735993+890144123+893034100+892457293
1215+887268943+880622060+876526212+875698839+875737522+874987108+874817637
1205+877327601+882233985+886972121+889474278+890272172+891617919+895194927
1195+901089066+908081241+914036725+916923556+916682661+915629075+916232564
1185+918684737+921150483+922544409+924318465+928578774+934768452+939662136
1175+941538550+942508129+945158085+949400567+953958164+958858081+965068267
1165+973135292+982851818+992665401+999494572+1001362539+1000864321+1003072279
1155+1009597462+1016433857+1018720462+1016470909+1013120523+1011337495
1147+1012534220+1016768721+1022371689+1028116339+1034636978+1042288395
1138+1048659895+1050347963+1046312004+1037880753+1028133467+1022181536
1130+1024862428+1036058810+1048914713+1054647362+1051810807+1046791462
1121+1044406752+1043727470+1042411901+1040664061+1040718357+1044886327
1113+1052264982+1058064395+1059532016+1058334593+1055458539+1050718247
1104+1047237947+1050158510+1058800419+1064035783+1058966453+1048162144
1095+1040778362+1041902148+1051073152+1063050999+1070265368+1069301557
1087+1064423778+1060722332+1058085600+1055135443+1053533364+1054725427
1078+1056990360+1058795293+1061599224+1065326651+1066004652+1061674842
1070+1055411467+1049840191+1044709108+1039564510+1034159267+1028132884
1061+1021253728+1014720505+1011754852+1014317480+1019302920+1021010795
1053+1019045422+1018233429+1020650880+1024069893+1025944385+1025881001
1044+1024147259+1020395130+1015115607+1009310369+1002929897+997487487+996649046
1034+1001705908+1009366996+1014468367+1015826348+1016993944+1019840170
1025+1022120366+1022122347+1021451804+1021162847+1020087298+1018369053
1017+1018480907+1022056632+1026443535+1026225768+1019673204+1010858386
1008+1004838994+1003683982+1005930971+1007577793+1005087404+998876344+991897335
998+984748914+976173068+967817436+962822850+960425439+957079132+952426051
988+949300598+947849987+945086196+940496732+937129510+936719028+936703940
978+932501946+922789149+911547151+904306449+903341997+906504911+909849820
968+910624819+908377888+904383815+900533289+897930172+895879102+893102727
958+889859477+887363262+886009883+885894708+887659676+891047463+893973618
948+894882783+894815205+895645257+898181786+902330473+907250315+911571561
938+914909246+918870986+925499751+934957906+944998868+952324975+955533037
928+957270100+960979934+966047924+969156075+969934977+971308688+974722691
918+977299767+974903638+968282039+963111049+963296075+966932680+968692579
908+965894124+961148822+958716749+960017579+962468353+963123633+962667652
898+963382063+964649687+963627793+960483872+958955313+960997528+964571272
888+966797639+967742633+969717560+973952061+979555146+985125839+990576639
878+995963938+998979110+996925652+991457608+987423280+987205397+988840451
868+988877852+986401677+984425701+986201039+991051204+995212300+996390616
858+996499091+998989946+1004744384+1011352875+1015731272+1016752642+1014354882
848+1008121102+999723874+994720258+998746430+1011393306+1023966778+1027101844
838+1021961673+1018385947+1021115542+1024673557+1023415546+1020065276
830+1020292247+1024893537+1031090731+1036114620+1036005213+1028877880
821+1018992640+1012937594+1014804163+1023672461+1034317262+1041846337
813+1045419966+1047805725+1051602945+1055699259+1057714034+1059310638
804+1063902606+1070498165+1073741823+1070528109+1062843603+1054939582
795+1050559671+1050527396+1053396109+1057018674+1059944129+1062061904
787+1062719281+1060535326+1053982762+1043658610+1034218690+1030071575
778+1030041282+1029295353+1025714851+1022237697+1022122230+1023377795
770+1021537442+1016228558+1010826112+1008590074+1010259500+1014779345
761+1021903881+1031072671+1037039749+1032465490+1019101465+1007183740
753+1003232253+1005675920+1009702908+1012212755+1012041595+1009327381
744+1006614331+1006369533+1008946377+1014216928+1021578805+1029640936
736+1034773883+1033072183+1027311804+1021281109+1015793841+1012220445
727+1012206463+1014393215+1013786988+1009702675+1006172041+1004167519
718+1003469711+1006059837+1013874374+1025156278+1035189609+1041163910
710+1044107658+1044063266+1036318288+1019826421+1003462021+997527102+1003545912
700+1013363573+1018094777+1018582857+1021491535+1029190024+1036933836
691+1038290769+1032037764+1021944895+1011932887+1003461671+995538309+986625502
681+978023324+974789104+981413908+995025877+1004319803+999990460+985003615
671+970148665+963594470+967502729+975689182+977995710+975088023+974680920
661+979934052+986941724+990771918+990654354+989036079+987785175+986378724
651+986420553+989844343+991065302+985191903+979547805+978996573+975796900
641+963415619+949924127+948574127+961843367+978247499+983947524+982435510
631+987107758+1000025997+1004847383+993443138+982974625+982500293+982220657
621+970465994+952697356+944136075+947755843+952641138+951000958+946999137
611+947829714+952553810+954921276+951509487+945579345+946026587+957905980
601+973926137+977790877
##END=
