##TITLE=<SNM>
##JCAMP-DX=4.24
##DATA TYPE=INFRARED SPECTRUM
##DATE=29/4/2025
##SAMPLING PROCEDURE=Instrument type and / or accessory
##ORIGIN=Admin
##XUNITS=1/CM
##YUNITS=ABSORBANCE
##RESOLUTION=4
##FIRSTX=4497.3318
##LASTX=599.83466
##DELTAX=-1.4281778
##MAXY=2.0566804
##MINY=0.42146683
##XFACTOR=1
##YFACTOR=1.9154329e-09
##NPOINTS=2730
##FIRSTY=0.43929523
##XYDATA=(X++(Y..Y))
4497+229345140+229017435+228707421+228668197+229031314+229486618+229295118
4487+228195015+226947739+226452759+226637273+226719643+226423321+226435021
4477+227553344+229549757+231117487+231236872+230341775+229674229+229765561
4467+230068418+230002634+229778771+229814479+229816564+229122365+227810519
4457+226795120+226760143+227456815+228042412+227849215+226932273+226148890
4447+226500354+227927477+228903761+227971073+225563683+223445552+222669575
4437+222839013+223049309+222873554+222521110+222400326+222623256+223012014
4427+223504754+224244867+225211597+226094294+226593755+226566309+225919799
4417+224794024+223801652+223574614+224040545+224537766+224564777+224057069
4407+223185264+222342648+222100098+222724483+223792192+224514505+224450184
4397+223892050+223560720+223869085+224512529+224795113+224402993+223772463
4387+223475254+223446999+223209536+222681695+222270252+222211610+222220930
4377+221881213+221272403+221019382+221473815+222097702+222185704+221917030
4367+222025648+222742656+223598435+223949821+223511071+222663834+222114086
4357+222146184+222451219+222535098+222166566+221674185+221645105+222073757
4347+222271030+221857252+221306166+221303163+222015223+223077798+223952497
4337+224184498+223562478+222322733+221153765+220681486+220974307+221719757
4327+222543547+223007175+222862212+222481855+222496185+223005713+223562493
4317+223751178+223528030+223153773+222862305+222604756+222270330+222050076
4307+222234622+222755119+223234291+223364645+223192919+223054428+223030747
4297+222746499+222002169+221213310+220924207+221176295+221644887+222088429
4287+222463075+222896955+223495014+223951454+223685814+222603527+221311316
4277+220407615+220037372+220197117+220893680+221886177+222728419+223180208
4267+223310079+223284998+223323678+223663783+224319628+224997458+225386403
4257+225402476+225097970+224561602+223953679+223487437+223500740+224481442
4247+226504695+228666345+229800740+229699108+228941818+227915559+226820637
4237+226135541+226094683+226118083+225614468+224968612+224989445+225753239
4227+226577387+226831326+226339489+225341033+224560047+224846629+226152127
4217+227290209+227359556+226923062+227028553+227655178+228018404+227874172
4207+227659114+227701170+227848624+227616249+226693582+225603032+225374283
4197+226201153+227080395+227144327+226627860+226226857+226238370+226526773
4187+226785209+226807458+226718336+226839339+227327286+228012569+228500392
4177+228493515+228123583+227784131+227698603+227976301+228785527+229902605
4167+230449553+229799215+228530141+227784396+227831229+227941744+227668979
4157+227526660+228108320+229128138+229747902+229559933+228906141+228359941
4147+228161392+228106157+227807081+227038806+226002246+225365788+225839250
4137+227528683+229833959+231970170+233316184+233446849+232440318+231079803
4127+230176273+229806917+229564756+229224868+228880967+228736081+228943794
4117+229463544+230090668+230707568+231218590+231243376+230464318+229285860
4107+228500703+228340772+228416000+228495429+228813129+229603638+230624810
4097+231210826+230969381+230372971+230195427+230453396+230545241+230369003
4087+230507992+231179786+231732303+231456830+230468177+229586648+229553849
4077+230380610+231368797+231861568+231902675+231948138+232144540+232255663
4067+232154467+231990412+231849852+231520327+230775966+229846935+229330468
4057+229476443+229845192+229973446+230083650+230680340+231651552+232322069
4047+232423794+232421367+232596640+232396737+231281604+229781074+228983828
4037+229216731+229843823+230280628+230674661+231458277+232592454+233505817
4027+233752880+233574915+233614264+234070424+234466745+234413626+234175899
4017+234156590+234202567+233792664+232685684+231199063+230030874+229833865
4007+230736944+232222304+233541961+234265442+234511757+234649081+234690328
3997+234242367+233245110+232325897+232090130+232477333+233033880+233395659
3987+233379105+233019784+232629392+232550989+232830057+233231231+233532361
3977+233772717+234204746+234937919+235769333+236517941+237238216+237803103
3967+237730707+236957733+236282455+236451084+237171141+237453989+236762841
3957+235515720+234505253+234129751+234307062+234886730+235760340+236601789
3947+236917140+236526328+235799595+235331843+235389739+235744672+236132466
3937+236508466+236780142+236896120+237198510+237956173+238668016+238674255
3927+238154691+237778007+237756395+237694812+237227247+236575276+236467934
3917+237354800+238624435+239141026+238571083+237590925+236871365+236334671
3907+235698835+235409997+236367392+238574988+240746690+241752100+241693193
3897+241272477+240888246+240642039+240729232+241227371+241496122+240969557
3887+240262212+240147977+240328431+240280494+240519543+241432875+242065164
3878+241696865+241104781+241141329+241680046+242443731+243431544+244026180
3868+243533720+242619393+242423349+243035488+243685577+243764803+242965006
3858+241411683+240415920+242324938+247471483+251341627+251084856+248718433
3848+246305644+244593090+243799983+243844310+244230502+244529469+244882301
3838+245530865+246236452+246727838+247103963+247410181+247531852+247627992
3828+247880842+247860491+247206544+246828972+247983719+249942261+250907358
3818+251137912+251756198+252167097+251094611+248935590+247112131+246788472
3808+248144241+249765557+250170715+250077267+251158450+253224412+254618581
3798+254966326+254805741+254362744+253932411+254080705+254916521+255978753
3788+257105509+258656949+260612271+262398356+264026487+266291169+269325216
3778+272066067+273910500+275597661+278108830+281770964+286223219+290782612
3768+295215107+299865085+304627369+308846299+312667229+317243832+323144011
3758+329434412+335142313+340797406+347961230+357737356+368609680+376902157
3748+381942170+386711767+393257803+399323624+402076954+403119037+405232952
3738+409419147+414971613+420446719+424714536+427292982+428404054+429131378
3728+430844118+433760196+436190862+436304132+434435863+432423642+431502764
3718+431691495+432551351+433962090+436129933+438760253+440702490+441459811
3708+442096737+443789842+446675144+450141234+453441433+456075021+458022579
3698+459682823+461349571+462841311+463924812+464964095+466554354+468386868
3688+469410779+469285839+468559481+468086392+468608803+470230305+472430480
3678+474684488+476430588+477033594+476837364+477001512+477480232+476781040
3668+474575700+472209666+470791582+470622642+471501324+472917073+474425555
3658+476021167+477554854+478216518+477944328+478231112+480552336+484366825
3648+487233829+487895774+487190420+486412934+486372480+487147259+488290631
3638+489382348+490369321+491346398+492248170+493109675+494413741+496581148
3628+499193451+501867523+504889745+508030558+510366189+511297336+510729431
3618+509279638+509230503+512959417+519635059+524977322+525989408+524575339
3608+524603158+527171336+530256820+532385859+534744674+538676197+542557870
3598+543713845+542602555+541808795+541773382+541228753+541040178+543811743
3588+549481648+554351010+556648335+558181213+559579723+559711041+558744700
3578+558413478+559540203+561134010+561540724+560060249+558238968+558852928
3568+562522438+566140789+566688156+565067276+563771767+563554127+563383351
3558+562731302+562484536+563186436+564125518+564820447+565885931+567451172
3548+568075090+566358802+563105778+560796130+560953587+562893116+564991722
3538+566653802+568539372+571144393+573942285+575997138+576875602+576545065
3528+574783345+571428128+567342197+564300339+563348810+563817511+564178854
3518+563795479+563651465+564753419+566403923+567206148+567202041+567520192
3508+568250285+568641938+568718550+569092030+569489719+568617354+566402679
3498+564710912+564793437+565696173+566184354+566881275+568784396+571485012
3488+574366611+577369073+579544477+579220849+576400615+573182318+571510280
3478+571517935+572192576+572716854+573078570+573611437+573959026+573483293
3468+572491434+571784306+571311933+570401106+568974403+567532577+566329053
3458+565457373+565113953+565237430+565476666+565526206+565021097+563595514
3448+561630406+560401739+560977486+563112250+565245023+565576244+563640324
3438+560753498+558900975+559154089+560606558+561203652+560213038+558925620
3428+558464450+558286641+557483918+556184551+555166242+555354382+557388448
3418+560432795+562346247+562176902+561382768+561704280+562987342+563765232
3408+563097189+561273979+559374717+558451878+558452314+558076469+556759551
3398+555992490+557339219+560240983+562929213+564449333+564940688+564846462
3388+564473356+563921010+563291739+562642553+561680631+560368505+559700585
3378+560650746+562750284+564853619+566482403+567392732+566992180+565442001
3368+564387283+565298671+567625682+569323922+569354169+568887397+569414227
3358+570909078+572533692+573917515+575005092+575549659+575474167+575317705
3348+575920587+577695875+580138895+582015193+582291521+581188633+580121594
3338+580212521+581281116+582474620+583020868+582369690+580705743+579055301
3328+577881899+576690760+575918720+577193567+580595087+583449737+583224131
3318+580458727+577566548+575981952+575363573+575074921+575330090+576412315
3308+577505494+577215909+575443360+573854469+573888450+574879935+574983185
3298+573753584+572679512+573137446+575111205+578024793+581385300+584301813
3288+585786458+585864813+585426546+585175734+585237970+585309604+585213387
3278+585222287+585599812+586296484+587145137+587811189+587957444+587802227
3268+587891909+588097226+587629646+586365939+585020953+583877051+582702654
3258+581869311+582129707+583240375+583918127+583394285+582295691+581625718
3248+581463282+581282050+581147806+581598832+582451717+582922223+582883014
3238+582778457+582544574+581951400+581614578+582357990+583846929+584766780
3228+584345067+583068727+581815041+580994145+580804076+581474609+582714292
3218+583657606+583907920+583999470+584493874+585119908+584918138+583126731
3208+580131116+577412265+576228656+576397441+576818407+576965284+577070463
3198+577217527+577195745+576798304+575913305+574741211+573947575+574230127
3188+575443298+576365949+575498501+572467411+568744254+566494975+566729543
3178+568600862+570233566+570409446+569463082+568331068+567090887+565174572
3168+562518952+559601194+557003393+555457881+555369941+556044893+556253508
3158+555602082+554647067+553867621+553123649+552063829+550898891+550387061
3148+550715170+551110992+550955526+550291466+549243533+548256840+548378698
3138+549833283+551071970+550533378+548545118+546484104+545165007+544709936
3128+544821090+544697862+543559437+541732929+540629916+541183570+542600937
3118+543066962+541795725+539876672+538740363+538464968+538026016+536723972
3108+534925843+533571832+533300793+533839323+534125921+533420474+532223049
3098+531569133+531682465+531909690+531712401+531114249+530352042+529676966
3088+529379725+529471088+529399019+528644467+527574937+527055390+527075616
3078+526524639+524845070+523209814+523191392+524765533+526441305+527035598
3068+526580278+525684201+524776175+524011728+523405671+522722131+521606391
3058+520228793+519326243+519293974+519719016+520019150+520052353+519868103
3048+519269857+518080554+516741324+516214526+517037849+518581307+519579607
3038+519396259+518346708+516945304+515433804+513904069+512378846+510826550
3028+509430032+508783989+509404546+510854557+511851861+511616919+510532329
3018+509197144+507756189+506397728+505349919+504300399+502923672+501734027
3008+501403148+501630839+501488847+500583310+499347704+498410737+498044851
2998+498118196+498407283+498813561+499180070+499133455+498345918+496995673
2988+495852269+495633882+496153586+496367242+495609454+494498165+494057999
2978+494274208+494229460+493505092+492650371+492220319+491977567+491139214
2968+489241476+486833495+485204555+485074762+485705090+485785842+484986137
2958+484078858+483814043+484215715+484835432+485253629+485297848+485012526
2948+484504180+483880542+483344128+483069604+482864941+482280729+481218668
2938+480039883+479083188+478597186+478836795+479503781+479607373+478608668
2928+477109429+476025803+475766496+476248018+476956608+477082419+476276024
2918+475138284+474435232+474125950+473601858+472537308+471109205+469663209
2908+468555031+468062711+468092647+468248362+468280942+468113091+467623697
2898+466896965+466365592+466278990+466429726+466595959+466632056+466099905
2888+464674385+462901306+461735467+461427646+461430229+461208606+460744853
2878+460367297+460315828+460426639+460293236+459820490+459346561+459097491
2868+458902537+458563100+458101090+457569655+456956877+456324028+455836314
2858+455591477+455470956+455256272+455021860+455237384+456043903+456544438
2848+455660870+453816064+452601027+452663948+453045300+452655763+451491573
2838+450224879+449394368+449188366+449485700+449905825+449997624+449471261
2828+448333490+446896082+445577608+444625456+444030198+443644738+443326306
2818+443017833+442756005+442627394+442704660+442890591+442751306+441851713
2808+440493843+439649173+439777473+440216238+440096932+439366092+438510966
2798+437795997+437271656+437036372+436969998+436613042+435728759+434632312
2788+433725468+433044573+432418881+431761480+431042870+430271950+429719074
2778+429810935+430468336+430857126+430257293+428970186+427859207+427251657
2768+426863770+426567246+426572723+426852599+426879267+426116096+424647725
2758+423212372+422476522+422289564+421948759+421207183+420546079+420388653
2748+420592196+420799536+420798914+420437166+419600991+418453666+417423346
2738+416781877+416379645+415955847+415542163+415292503+415108595+414793213
2728+414373398+413964102+413587137+413300570+413168256+413028536+412618057
2718+411944599+411274844+410731802+410087221+409088486+407963815+407327045
2708+407448437+407863241+407856987+407193704+406277774+405685752+405553873
2698+405504645+405209614+404743527+404307469+403969059+403761813+403719399
2688+403733122+403540563+402927536+401995082+401211031+400982904+401121877
2678+400979356+400203426+399136760+398343746+397948608+397651150+397254581
2668+396832651+396428084+396021620+395796978+395969310+396341856+396459576
2658+396200331+395842971+395568042+395244787+394779634+394379082+394252586
2648+394226043+393945326+393406672+392986733+392930534+393029427+392856504
2638+392201032+391220718+390262934+389643404+389504492+389683484+389754277
2628+389413565+388833742+388458177+388439724+388460107+388189504+387749898
2618+387488724+387429226+387310137+387111386+387097569+387309421+387411613
2608+387113751+386498452+385877553+385454813+385196097+384963956+384712273
2598+384561039+384661706+384917901+384971145+384669237+384343306+384327778
2588+384470890+384416900+384077962+383602010+383193118+383034074+383084454
2578+383047392+382762412+382395623+382113662+381920419+381888958+382130217
2568+382437726+382365874+381764081+380933041+380241721+379882276+379930820
2558+380322940+380806702+381154976+381327308+381300079+380993348+380496610
2548+380078818+379845899+379626797+379319474+379150752+379393255+379888158
2538+380103837+379767824+379193570+378843709+378822425+378909369+378867608
2528+378662913+378513609+378677041+379151934+379730140+380274769+380710422
2518+380871552+380643176+380130039+379546667+379117424+379033156+379229294
2508+379350717+379213859+379080456+379236980+379563876+379729175+379607908
2498+379370414+379267507+379392571+379619608+379782107+379872007+379966233
2488+380027380+379938413+379741871+379679822+379889060+380188198+380317743
2478+380269385+380190003+380090767+379853710+379434518+378933516+378532093
2468+378377156+378462730+378643869+378770302+378738250+378494564+378146602
2458+377956937+378045094+378219574+378268522+378253492+378329109+378457005
2448+378530848+378619410+378825381+379037949+379087364+379031445+379036673
2438+379092436+379081421+379023634+379050271+379235611+379588023+380063041
2428+380491755+380675290+380616134+380481424+380373071+380323438+380397001
2418+380599891+380810903+380944119+381041270+381119003+381080323+380866760
2408+380600544+380472275+380522842+380651142+380815570+381077025+381446397
2398+381861543+382287146+382685426+382965209+383095656+383184405+383346499
2388+383549887+383596440+383195048+382115747+380345282+378045748+375368626
2378+372412375+369364387+366536032+364154501+362196861+360485427+358862587
2368+357327033+356168941+355780650+356057383+356299482+356058597+355752892
2358+356177779+357760632+360553202+364622268+369745460+374658573+377474170
2348+377083420+374125302+370864156+369409789+369781806+370784431+371894414
2338+373157031+374295487+374873039+374989856+375228563+375929219+376855480
2328+377613424+378065570+378276520+378401085+378709217+379465418+380672676
2318+382021802+383094816+383627931+383732239+383902175+384624676+385896504
2308+387271022+388383556+389221442+389913229+390543682+391177744+391823320
2298+392388550+392871907+393503885+394484914+395657382+396604866+397041018
2288+397049108+397016714+397332501+398032160+398731104+398992527+398740066
2278+398237135+397783122+397545255+397516347+397486722+397227415+396800101
2268+396502394+396517891+396833304+397390381+398066266+398635292+398970745
2258+399171301+399398525+399757939+400337203+401113662+401863110+402403570
2248+402821268+403238188+403567045+403724471+403810886+403843653+403612664
2238+403012084+402250967+401593099+401098943+400693568+400337545+400083466
2228+400001096+400044631+400046249+399909889+399755761+399801754+400179092
2218+400938405+402113176+403618109+405141714+406331826+407147525+407927905
2208+409089917+410786787+412818333+414854297+416738156+418541886+420411929
2198+422467000+424745499+427152422+429542666+431866877+434109715+436130089
2188+437733854+438924588+439976878+441182580+442549318+443816199+444762594
2178+445408792+445909731+446378370+446835962+447222947+447424281+447332171
2168+446915469+446241731+445434900+444582949+443623951+442337622+440595164
2158+438588077+436593188+434612583+432505296+430264512+427937843+425531449
2148+423020373+420322682+417686636+416135181+416688367+419131419+422357371
2138+425673316+428954720+432066095+434979310+437900398+440841743+443638421
2128+446396761+449375853+452554910+455678638+458643727+461702824+465208932
2118+469127946+473019483+476587672+480018039+483737430+487928168+492202022
2108+496006988+499629260+504251699+510665421+518494985+526916541+535534202
2098+544264573+552808298+560514573+566671103+570963411+573703360+575410437
2088+576159201+575567023+573226693+568850055+562502833+555146637+548206926
2078+542261128+536907320+531836313+527126401+522748955+518650420+515051580
2068+512132017+509652464+507110271+504177514+500953055+497718422+494524148
2058+491289701+488139460+485255340+482659966+480415354+478655346+477276627
2048+475979531+474681346+473643028+473179275+473375474+474160211+475598334
2038+477881096+481061958+485185511+490625392+497839440+506822179+517103944
2028+528114899+539293269+550032190+559735002+567919873+574374640+579277110
2018+583026220+585902217+587989807+589341391+589851292+588989382+586323308
2008+582421657+578357384+574246308+569229572+562926600+556033317+549459679
1998+543531867+538089683+532992226+528281256+523935488+519875136+516328761
1988+513747825+512209564+511268957+510468506+509721204+509180154+508962016
1978+509072485+509514051+510305696+511355216+512548502+513989862+515798104
1968+517689431+519206688+520376573+521685991+523403804+525336488+527283423
1958+529393542+531809676+534199733+536124513+537820449+540070102+543199338
1948+546644673+549692940+552323416+554974554+557714628+560221254+562532395
1938+565043813+567736214+570164671+572290100+574685136+577786491+581345655
1928+584679276+587303092+589308032+591090041+592770481+594185173+595376934
1918+596568197+597694299+598560814+599410027+600748479+602649297+604578371
1908+605971964+606800826+607424620+608048351+608683970+609541336+610876178
1898+612426918+613577852+614133621+614532244+615299430+616454410+617359511
1888+617392123+616853157+616550876+616698562+616949001+617137016+617298270
1878+617288437+616982173+616574401+616378046+616543345+616953295+617092580
1868+616300375+614663314+613127262+612297591+611715558+610535684+608613580
1858+606540990+604843871+603554834+602314591+600699810+598732959+597020841
1848+596116425+595939114+595961954+595663656+594834981+593644713+592337006
1838+590968681+589439226+587699288+585915287+584337786+582976120+581550599
1828+579911048+578249030+576715032+575157447+573369027+571431302+569703252
1818+568542173+568044781+568042790+568310094+568669010+568967682+569137213
1808+569230817+569316454+569442046+569716632+570246138+570955382+571582972
1798+571893842+571918425+572047379+572791724+574152954+575375771+576003610
1788+576566972+577681685+579285201+580996884+582810385+584898534+586983572
1778+588521926+589484534+590601549+592793011+596006391+598653733+599477678
1768+599060073+598610292+598781130+599740190+601354909+603133122+604784311
1758+606574722+608467076+609843617+610597982+611488769+613177113+615545636
1748+618041433+620180678+621553173+622074900+622475452+623937941+626696125
1738+629501671+631388175+632869024+634772581+636811501+638460014+639935199
1728+641338625+642435601+643233220+644008372+645001102+646506658+648930261
1718+652287344+655754959+658472628+660398839+661668831+662231820+662266672
1708+662349322+663128768+664959197+667879196+671862687+676424414+680146451
1698+682574908+685118875+688170130+690432852+691553726+692472271+693555118
1688+694542247+696086887+699750484+705334691+709847501+712069084+713509168
1678+715639576+719086342+723345850+726947647+729304968+731344573+733924948
1668+736933074+739959309+742752595+744798797+745629339+745824201+746572965
1658+748248488+750329356+752240319+753882048+755545809+757298816+758879678
1648+760133551+760843293+760705502+759799778+758480246+757180007+756346913
1638+756101827+756067286+755680488+754880130+754053197+753336050+752596995
1628+751769191+751016444+750450468+749861340+749067517+748344207+748193409
1618+748964267+750407027+751287109+750755674+749529496+748848570+749343285
1608+750800484+752533887+753729694+753910677+753470418+753284705+753684323
1598+754277683+754669523+755019352+755940635+757798324+760052395+761648567
1588+762285243+762835349+764220354+766387419+768610061+770301143+771283293
1578+771577359+771126457+769722595+767512650+765138898+763110184+761598654
1568+760606608+760057249+759636595+758956353+758277791+758582002+760230079
1558+761277328+760207301+758580508+757724200+757663582+758014283+758534516
1548+759052383+759355349+759396861+759592345+760785102+763302494+765616437
1538+766085822+765807004+766512327+768545273+770985617+773147827+775481063
1528+778534247+782258151+786379557+790790798+795210440+799072259+802450130
1518+806179448+810537663+814994212+819266105+823379172+826932362+829795912
1508+833487266+839833182+846881122+851313709+853445361+855197995+858027067
1498+862309914+866953482+870541027+873195899+876041090+879722299+884159430
1488+889132788+894197322+898491185+901664921+904283385+907160503+910868723
1478+915610686+920859937+925427453+928446656+930069341+931243365+932855843
1468+934627334+935470013+935364896+935852890+937644048+939669463+940711858
1458+940194675+938545104+937189599+936615283+935962612+934271841+931199862
1448+927383973+924199097+922709847+922965451+924228597+925592504+926766776
1438+928394191+931196190+934596776+937266772+938686754+938786705+937649712
1428+936095300+935375538+936236327+938570994+941678697+944909317+947777784
1418+949251662+948346623+945790830+943625944+943443654+944934896+946082594
1408+945370425+943466308+942409164+943702619+946986824+950098136+950855738
1398+949651280+949335245+951445488+954308541+955838991+956442745+957594924
1388+959292354+959976828+958964618+957813684+958404990+961206927+965525249
1378+970256259+974319537+977099753+978805212+980063877+981007191+981319990
1368+981137514+981438861+983007525+985191207+986917577+988580778+991212374
1358+994755979+998410552+1001250079+1002449060+1002533825+1003503590+1006712676
1348+1011618570+1016056510+1017913265+1017425893+1017026399+1018798201
1340+1022648507+1026919218+1030666647+1034413080+1037968324+1039350590
1331+1037466762+1034624683+1033937907+1035683197+1038104061+1040451673
1322+1043294063+1046998798+1050882836+1053367803+1053187443+1050750895
1314+1047920392+1046445394+1047404205+1051068549+1055998030+1060066785
1305+1063236475+1067070101+1071322701+1073741823+1073686059+1072563816
1297+1070499067+1065974121+1058915290+1051515654+1045544960+1040631847
1288+1035486779+1030168571+1026404276+1025312901+1025459903+1024275361
1280+1021289641+1018234777+1015875838+1012706459+1007209632+1000208805
1271+994384740+991913216+992602980+993681845+991416695+984205012+974616341
1261+966991223+962932613+960197082+955951328+949995322+944113129+939397180
1251+935311871+930897518+926035127+921047268+915453416+908136553+898848545
1241+888905999+880041073+872861006+866663648+860742059+855273364+850481735
1231+845921937+841324361+837280563+834279098+831850578+829362810+827024222
1221+825628887+825782734+827428945+829700877+831580411+833161584+835528676
1211+839031953+842579603+845030030+846725593+849034868+852575113+856634905
1201+860558276+864684723+869278378+873735113+877563450+880947046+883931894
1191+886206441+887670424+888373631+888598863+889439861+892150933+896790394
1181+902125468+906774202+910486281+914649822+921191221+930743546+942287243
1171+954028167+963911775+970218232+972758030+973198040+973324877+973495467
1161+973628403+974597857+977308742+981113615+984119002+985107437+985075759
1151+986386391+989990490+994311924+997710083+1000862659+1004340231+1005192868
1141+1000401924+992711271+988616688+991608507+999221676+1005619435+1007655990
1131+1007966549+1010360776+1014837613+1018359436+1019002772+1019033890
1123+1022196921+1028194562+1031887970+1028998654+1020731818+1011427007
1114+1004709043+1003083433+1007611989+1016325183+1025287571+1031728708
1105+1035167819+1036125821+1034076196+1027842430+1019108885+1012268440
1097+1010704382+1014024311+1018485900+1021587193+1025083623+1031214948
1088+1037923265+1039946377+1035992698+1029762853+1023409033+1018080680
1080+1015071870+1013813516+1012522551+1010120233+1006146700+1000040145
1071+991665142+982643008+976022631+973950040+975393983+976857218+976407188
1061+975817811+977629694+980957464+982368484+980943772+979444502+979734647
1051+980433249+980000956+979181367+978914125+978826185+978561059+978370118
1041+978483948+978920411+979929322+981572483+983007027+983399738+983018728
1031+981921752+979189147+975446137+973343362+974119385+976219359+977833891
1021+978442374+977562977+974874123+971904585+970932517+971761130+971413728
1011+967588441+961072621+954071794+947854894+942720718+938747185+935551791
1001+931731919+925698056+917290691+907780935+898675093+891283422+886486691
991+884204240+883481989+883080690+881727612+878739092+875045248+872609447
981+872336479+872931395+871865724+867565700+860892609+854361727+849904432
971+847603248+846319813+844911968+842899996+840458593+837861725+835081509
961+832198728+829746870+828437918+828741320+830539386+832981224+835008319
951+836345153+837790465+840726520+846108459+853392398+860496475+865555408
941+869106855+873795856+881306895+890098694+897192066+902055017+906869424
931+913164803+920042403+925604017+928814410+930029572+930512898+931110242
921+931462810+930691828+928615503+926052180+923952704+922670949+922038754
911+921811529+921805430+921934944+922080078+921742074+920355264+918429676
901+917941557+920750713+926722775+933670390+938967626+941452095+942412213
891+943649158+945137910+946214659+946747028+946973194+947746230+950187943
881+954355529+958551121+960671882+960294295+958892549+958270622+958863609
871+959299885+957622681+953285937+948134086+944842724+944819946+947781518
861+952712057+958314561+962834466+965479878+967605867+971116301+976549771
851+983077665+989145571+993098318+994080281+992145108+988116994+984101327
841+982926867+985475813+988987989+989677878+987423682+985498654+985533320
831+985580370+984175139+983910448+988360275+997449998+1007099163+1012107311
821+1010325364+1005133619+1002518578+1005616821+1012267507+1017822960
813+1019869784+1019864930+1020278925+1021474919+1022734704+1024933198
804+1029448062+1034664639+1035816071+1030328642+1021751745+1014977334
795+1010737678+1008107389+1008011359+1010515433+1011670475+1007797640
787+1001140108+996274667+993758022+990339200+983264312+973274279+964174847
777+959124565+957105685+954347749+949039561+943310904+940493160+942286745
767+948043781+954344824+957408713+958225688+962336950+972606796+984419416
757+989899999+986514909+978638730+971989164+970171742+973336516+977497006
747+977427862+972605987+968220201+968991868+974483093+980532951+984077801
737+986046084+988905962+992584184+993922574+991057841+986717301+984428938
727+985121627+988278621+993394811+999645069+1005111400+1007950990+1007885268
717+1005163741+1001073328+998915972+1000095411+1000798369+997335359+992174483
707+988964900+987338917+985944016+985717601+986896355+986992510+982738851
697+972776576+962836520+961364820+970026669+983171082+993698026+998208533
687+995661018+985070593+970292480+959289056+955372655+954712640+952825887
677+949706048+946985206+943255016+933792498+916135587+895846146+886693440
667+898306655+919819286+935791338+943948141+949256454+956261077+964694582
657+969470838+965652584+954137142+943516782+941254122+945034847+945080217
647+935927573+924667611+921254577+926867537+934935341+938373892+934020594
637+924106303+915387881+912666353+915615790+921190287+926735409+928753854
627+922112628+907190687+892964547+889940925+901109649+919096039+932928784
617+936005555+930913140+920851660+902914126+882050307+869799669+870892474
607+881087202+891271598+893053171+888311145+887581862+895632053
##END=
