##TITLE=<SNM>
##JCAMP-DX=4.24
##DATA TYPE=INFRARED SPECTRUM
##DATE=29/4/2025
##SAMPLING PROCEDURE=Instrument type and / or accessory
##ORIGIN=Admin
##XUNITS=1/CM
##YUNITS=ABSORBANCE
##RESOLUTION=4
##FIRSTX=4497.3318
##LASTX=599.83466
##DELTAX=-1.4281778
##MAXY=2.1895268
##MINY=0.62822092
##XFACTOR=1
##YFACTOR=2.0391557e-09
##NPOINTS=2730
##FIRSTY=0.63651597
##XYDATA=(X++(Y..Y))
4497+312146818+312852432+313744066+314627194+315075992+315001981+314528571
4487+313905942+313732754+314691266+316801706+319068906+320198589+319694488
4477+318081164+316216783+314708687+313811149+313425283+313251452+313128948
4467+313109014+313199247+313324673+313580728+314015350+314158577+313463720
4457+312222612+311524657+312074649+313385676+314392126+314489871+313743657
4447+312584334+311700388+311696062+312432162+313173992+313575467+313821233
4437+313806589+313137659+312122294+311788458+312646916+314092927+314958049
4427+314372074+312645103+311288741+311333726+312014289+312176312+312229744
4417+313222105+314992862+316586514+317535789+317829990+317420243+316280417
4407+314524333+312581294+311402212+311820991+313545360+315251986+315760385
4397+315043634+314106928+313848008+314021634+313616564+312415764+311573997
4387+312302585+314291574+315752171+315072631+312374901+309413165+308078929
4377+309043258+311580866+314354916+316340981+317229400+317091112+316000363
4367+314292860+312735833+311830958+311301076+310837721+310873265+311836863
4357+313188169+314079510+314595654+315447828+316719920+317853958+318579624
4347+318886306+318394130+316699926+314190087+311973952+311041981+311523429
4337+312548966+312957602+312510557+312106393+312388785+312703037+312070820
4327+310731820+309901862+310293603+311595393+313039475+313800012+313263290
4317+311717809+310458139+310450160+311251151+311652889+310975891+309558117
4307+308438751+308573648+309919108+311471049+312559372+313484941+314454678
4297+314859806+314181581+312793738+311406596+310414148+310111676+310804633
4287+312190868+313138097+312712946+311322297+310268904+310441537+311886729
4277+314049666+315862778+316355187+315763921+315254968+315364113+315583572
4267+315381066+314768550+314065801+313719717+313976533+314347140+313870486
4257+312331991+310887061+311056566+313114158+315665212+317047735+316816876
4247+315542007+313992288+312936089+312687838+312590794+311887548+310935963
4237+310699843+311567888+313249639+315033901+315862865+315137930+313640708
4227+312761614+313014191+313946747+314930368+315468435+315287384+314609276
4217+313907228+313365975+312999693+312941496+313211670+313520339+313472811
4207+312835566+311720147+310567957+309780177+309520819+309879180+310708553
4197+311429805+311568648+311243639+310811765+310452264+310151604+309682023
4187+308904825+308327794+308655726+309629964+310228830+310195741+310348205
4177+311165010+312141645+312797070+313219532+313385033+313131608+312910658
4167+313303803+313868177+313775985+313450070+314203445+316311517+318427101
4157+318903025+317309198+314663117+312413923+311280644+310903109+310431189
4147+309524181+308841600+309261841+310526041+311216455+310473076+309174618
4137+308805063+309671266+310922605+311852706+312351809+312514708+312695116
4127+313426949+314506912+314856270+313998075+312797129+312098413+311653123
4117+310974371+310357880+310448055+311304700+312294196+312808558+312916592
4107+313049881+313129416+312697484+312079005+312404891+313977205+315599999
4097+316177322+316092847+316194042+316251859+315409712+313715625+312297850
4087+312017534+312616019+313381496+314012164+314411447+314269768+313513791
4077+312752465+312611839+312845826+312604649+311574932+310363083+309624995
4067+309433100+309669337+310359693+311425596+312585036+313468777+313670143
4057+313067156+312108176+311401715+311249280+311792316+313021177+314467013
4047+315486499+315849244+315624845+314799096+313520164+312423978+312142522
4037+312558758+313043451+313469566+314327761+315612597+316396489+315934011
4027+314567272+313261331+312745918+313122313+313916085+314494226+314553329
4017+314283536+314065304+314058757+314145365+314201838+314301922+314525619
4007+314707693+314594193+314307212+314477360+315547707+316922016+317274911
3997+316067417+314327644+313425750+313569621+314062381+314559965+315247777
3987+316020328+316422679+316331774+315968561+315413921+314716755+314182868
3977+314014035+313979339+313875806+313886299+314091348+314191695+314094125
3967+314237177+314991780+316167384+317254187+317700501+317082285+315618677
3957+314268892+313793932+314071033+314632397+315288582+315879643+316036112
3947+315651006+315309716+315819166+317156237+318064327+317305164+315246783
3937+313472869+313175103+314447020+316606887+318658925+319909972+320583491
3927+321292612+321864586+321486758+320294581+319726407+320606758+321865170
3917+321802267+320188739+318198055+316684756+315591698+314742272+314673757
3907+316574442+321153974+327230611+331934400+333430921+332333390+329726010
3897+326104377+322540414+320886986+322141687+324746231+325691911+324804136
3887+324769031+326419565+327471116+326639111+325540646+324951660+323888826
3878+322780130+323296391+325365090+327430252+329065236+330507622+330794428
3868+329749336+329270431+330152243+330553777+328917039+326214019+324170633
3858+323969209+326975286+334268888+342311831+342930573+335880166+327612239
3848+322325310+321038310+322700507+325595014+328874276+332572083+335985336
3838+337169562+335528411+333163612+331684454+330376993+328113037+325590395
3828+324310382+324581344+326231674+329940208+335382699+338952157+338069760
3818+334886461+331572327+327850201+323615437+320380137+319851892+322710387
3808+327764527+332260081+335105920+337732329+340113000+339723480+336476488
3798+333267817+331034903+328688782+326232141+325104767+326007625+328072291
3788+330170278+332203667+334759690+338233799+342533541+346818639+349421897
3778+349467788+348478643+349061461+352810626+359381631+366351334+370771241
3768+372183871+372334435+372309911+372409790+373546547+376621754+380822436
3758+384095881+386196382+389593207+397065258+408437389+418317704+421681704
3748+421965411+424886927+430856611+434839674+434655671+434446910+437689371
3738+444355053+451955833+458104142+462311225+464534697+464293549+462349925
3728+461141292+462481081+465403034+467253210+466688280+464322808+461278790
3718+458306824+456113312+455897974+458908144+464517481+469214985+470452644
3708+469615905+469229922+470287056+471911575+472276103+470438818+467432536
3698+464766258+462970509+462272320+463665834+468408937+475750242+481323333
3688+481180953+477372539+474181435+473363461+474875708+478261426+482901464
3678+488023740+491903153+492198728+490208716+489996973+491833878+490991409
3668+484949146+477613132+473086390+471787669+471522406+470775052+470715627
3658+473021382+476832631+479663796+481445368+484608061+490296055+495278407
3648+494541575+488373711+481325408+476830263+475529701+476213041+477859162
3638+480683838+484746348+488762032+491757237+494856617+499280586+502401480
3628+499519864+491990551+484959348+481305298+481818256+485799127+490307455
3618+491966758+491121307+490977613+493517354+498158737+502995084+505825548
3608+504822723+500538298+496549505+496546816+501125705+507124415+510666689
3598+511214694+510973078+511287068+511669981+511717509+512070082+513075421
3588+513638158+512685024+511152317+510469152+510565962+510561811+510401397
3578+510723161+511401299+511668871+511643382+512421603+514671207+517818408
3568+520162249+519533160+515738981+511933578+510960217+512067159+512475269
3558+511349854+510345509+510726786+512065815+513222156+513663413+514059246
3548+515329526+517132261+518349225+518635212+517973385+516119381+513725088
3538+512091128+511334011+510693639+510395901+511335940+513294588+514713415
3528+514159096+511615087+508247141+505128878+502794507+501793436+502603050
3518+504732753+506595818+506803819+505518281+504023982+502970531+501899015
3508+500728059+500526605+502013772+504119038+505033413+504405201+503371801
3498+502844549+503025834+504145988+506115568+507707613+507751575+506670296
3488+505423050+504058181+502508520+501270569+500366600+499167817+497644755
3478+496421536+495792446+495539606+495061110+493612059+491416473+490039766
3468+490704604+492738665+494312178+494410800+493574411+492940820+493052713
3458+493469884+493319876+492089875+489817413+487055172+485038181+485306659
3448+488367368+492635366+495305708+494696261+491474465+487755788+485392391
3438+484784844+484832255+484159584+482621557+481272648+480944044+481376415
3428+481771897+481697624+481145556+480303671+479727401+479993628+480746302
3418+480898854+480204932+479735965+480313259+481305561+481639748+481419938
3408+481587193+482248523+482251095+480706959+478416520+477065945+477183830
3398+477640258+477458388+477232820+477841799+478920563+479687823+480245533
3388+481052019+481822670+481832813+480787750+479199594+478191770+478528004
3378+479667625+480462829+480848140+481894576+484192702+486992620+489058951
3368+489968445+490281849+490712087+491450321+491969973+491366665+489367212
3358+486842056+485072380+484883467+486259822+488287921+489693185+490070575
3348+490335048+491429685+493022898+493925289+493690221+493176473+493197519
3338+493167236+491816749+489069766+486445492+485696179+487248734+489768277
3328+491425475+491672586+491295869+491096696+491280787+491748701+492219832
3318+492202937+491279793+489499331+487764498+487429989+488757005+490291554
3308+490566229+489737498+488850658+488476309+488639325+489148308+489574716
3298+489608243+489583163+490126229+491307152+492528676+493274861+493651169
3288+494046360+494525323+494878832+495146930+495560769+495940994+495741528
3278+494913440+494177310+494292418+495326461+496517469+496985910+496491980
3268+495587427+495184578+495616306+496133211+495793557+494758404+493973635
3258+493817956+493936805+494041566+493929264+493011148+490874489+488291750
3248+486860295+487517504+489759479+492100982+492955377+491546605+488632426
3238+486191833+485791644+487136403+488501505+488537516+487377171+486168361
3228+485834145+486281657+486963448+487915238+489285221+490192347+489539026
3218+487886651+486758458+486400477+485964102+485183747+484284572+483131037
3208+481760761+480750131+480354941+480276108+480369907+480538593+480189908
3198+478867949+477063461+475739164+475527070+476463309+477780883+478143658
3188+476952854+475137288+473929092+473389242+472775323+471784220+470695663
3178+469680737+468653973+467533906+466319280+465211373+464629899+464596811
3168+464446042+463854338+463462100+463554145+463146211+461538441+459677655
3158+458817560+458889963+459168292+459550943+460180353+460501796+459672773
3148+457718832+455598366+454177668+453554600+453322543+453149355+452858077
3138+452185786+450985658+449671387+448967030+449124025+449715670+450158594
3128+450133894+449734875+449458183+449675596+450078211+450094054+449585129
3118+448646961+447281186+445775546+444751939+444428742+444375894+444269730
3108+444379021+444925477+445428527+445172764+444080466+442630245+441188180
3098+439965136+439319327+439408976+439788470+439950375+439943097+439997669
3088+440006087+439715015+439146431+438652531+438491210+438420298+438003858
3078+437330777+437011059+437250131+437434485+436995801+436199895+435682319
3068+435626840+435714442+435524213+434757070+433414475+431929676+430875581
3058+430475100+430562995+430944301+431501835+431977818+431945665+431168993
3048+429950801+428993779+428855843+429477975+430179234+430207061+429386280
3038+428142834+426936158+425892762+424992622+424351900+424156584+424339857
3028+424440847+424026218+423262115+422729602+422667488+422779936+422808172
3018+422822787+422795136+422364928+421368300+420256213+419634080+419614905
3008+419902091+420247648+420492041+420370648+419662199+418536521+417595108
2998+417378426+417766689+418054166+417734740+417040409+416496438+416178035
2988+415678902+414722845+413609414+412886467+412702288+412825931+413197475
2978+413910981+414716473+415109998+414874579+414193986+413436401+412963664
2968+412769839+412319199+411246281+410035279+409426183+409470817+409707493
2958+409860980+409896670+409758120+409414813+408887502+408079905+406908013
2948+405597367+404652388+404607666+405679971+407373093+408660209+408932400
2938+408422657+407512316+406286845+404910197+403762771+403067330+402760619
2928+402679505+402680762+402734019+402889085+403019656+402844100+402307991
2918+401653793+401140338+400947303+401135486+401478062+401653384+401677791
2908+401731954+401652478+401092342+400121583+399223811+398701440+398497678
2898+398570460+398946914+399347951+399272859+398647131+397957740+397561117
2888+397277410+396851674+396398813+396147347+396047234+395873052+395574467
2878+395308356+395135724+394897031+394518093+394267942+394461386+394974783
2868+395310315+395179364+394834099+394748192+395059521+395398648+395315225
2858+394816005+394320527+394129508+394193288+394345898+394427070+394215474
2848+393590272+392734942+391903025+391131585+390445059+390040252+389989976
2838+390062818+390049635+390006053+390050716+390187104+390396917+390663349
2828+390818444+390539443+389681658+388611837+387992978+388117820+388607541
2818+388848162+388617099+388253331+388259557+388689326+389008051+388730131
2808+387974213+387127389+386319821+385567059+385026975+384765863+384599924
2798+384409461+384316977+384398909+384496011+384402358+384063582+383590844
2788+383152013+382754484+382200604+381505337+381136717+381402185+381847738
2778+381821256+381383945+381078315+381052768+380941314+380448992+379679102
2768+378932332+378422238+378199271+378163582+378039792+377548523+376819408
2758+376376806+376483759+376799415+376880879+376683897+376423253+376271900
2748+376235859+376094766+375588063+374810221+374178355+373905113+373760775
2738+373433486+372931752+372560150+372540595+372681191+372547493+372008871
2728+371392350+371017153+370857762+370776415+370817483+371082453+371485887
2718+371847199+372120033+372274163+372044853+371174879+369913017+368875935
2708+368376247+368251317+368297121+368477967+368737881+368901335+368792512
2698+368362245+367757066+367265417+367076094+367107545+367155307+367128678
2688+366998283+366627938+365967807+365365930+365304343+365773193+366230731
2678+366219565+365748464+365116218+364638833+364480347+364526355+364472251
2668+364165423+363807062+363742902+364097960+364677504+365199962+365504364
2658+365487294+365027680+364137566+363082595+362219724+361757246+361676980
2648+361781974+361797934+361561200+361193486+361002935+361099569+361196496
2638+360974845+360558989+360356570+360474660+360611895+360516225+360234389
2628+359871468+359419542+358950868+358739359+358992433+359546518+359995053
2618+360109255+359977223+359739261+359442780+359208764+359235715+359501504
2608+359715994+359691908+359520942+359310164+359037242+358741376+358576781
2598+358622760+358867708+359307533+359810378+360070876+359978100+359785327
2588+359708014+359701788+359754110+359944280+360123578+360003384+359607492
2578+359234458+359021458+358884515+358784666+358737050+358644244+358409264
2568+358175716+358206992+358547054+358977204+359262899+359332846+359266348
2558+359173016+359085560+358981735+358867679+358740967+358528815+358196352
2548+357859330+357696489+357795666+358066892+358274718+358289274+358266855
2538+358370446+358447204+358265423+357957455+357919543+358268755+358614517
2528+358478919+357868508+357277301+357153687+357511726+357992648+358173407
2518+357930271+357590822+357588835+357964792+358366266+358504963+358449514
2508+358452115+358596979+358721412+358666138+358440511+358138886+357888443
2498+357831386+357976747+358168847+358321603+358491225+358658333+358734857
2488+358815766+359091815+359450497+359468006+358956392+358341918+358249463
2478+358735091+359214260+359236299+358995736+358908923+359060188+359296981
2468+359556047+359812190+359901546+359666800+359213003+358836023+358715127
2458+358785338+358882645+358908864+358863470+358796708+358753477+358738160
2448+358724335+358687271+358625654+358571958+358556905+358502537+358212546
2438+357629026+357054071+356908622+357283819+357907705+358498796+358940023
2428+359174039+359179534+359041159+358911875+358925204+359137268+359468503
2418+359754373+359937061+360125682+360396879+360646240+360755970+360831062
2408+361095769+361558657+361960512+362108299+362079741+362051242+362145976
2398+362468968+363056639+363782626+364497652+365304752+366679325+369357061
2388+374053251+381203712+391014841+403726321+419634489+438825807+461004349
2378+485499665+511283209+537175138+562460835+587303639+612058284+636219209
2368+658359460+676332907+687582738+690744671+686880048+678797469+668404721
2358+654532193+635514940+611746341+585005864+558704130+537751204+526029482
2348+525100376+534574540+551529670+570151030+584958511+594155399+598835307
2338+600953668+601914167+602166598+601871784+601119987+599529228+596680759
2328+592947963+589123210+585303777+580740087+574640358+566710477+557360541
2318+547703981+538795886+530681271+522698951+514560893+506419561+498077302
2308+488997714+479155193+469325329+460359797+452437632+445253643+438725752
2298+433038898+428067771+423350536+418700618+414339376+410416059+406853529
2288+403640151+400909479+398730670+397030445+395695245+394613587+393668404
2278+392811057+392085070+391471736+390802601+389947446+388989080+388099201
2268+387378446+386890450+386659708+386557753+386343175+385885462+385275927
2258+384695915+384212421+383729540+383175134+382690879+382504012+382624001
2248+382823233+382922148+382955908+383065784+383330755+383658891+383777653
2238+383438731+382727651+382070851+381846861+382058019+382395831+382535434
2228+382350028+381901229+381289357+380569449+379786844+379008915+378302541
2218+377723318+377327456+377150438+377145703+377157220+377035974+376836917
2208+376797485+377035214+377390973+377651676+377787186+377901388+378090799
2198+378386256+378734737+379053257+379338688+379643324+379945621+380173850
2188+380346307+380571817+380925851+381372604+381780889+382048257+382256316
2178+382611169+383178320+383798786+384298796+384631346+384788516+384744203
2168+384556605+384442257+384648212+385198497+385808587+386132777+386099748
2158+385952340+385956608+386095568+386102115+385846966+385579102+385640222
2148+386073499+386666928+387214027+387596999+387809531+388016041+388425174
2138+389045787+389718487+390389171+391166428+392082644+393000146+393835541
2128+394694057+395669523+396705729+397807877+399155383+400787823+402371567
2118+403522939+404275847+405000080+405864880+406609516+406937887+406917162
2108+406792993+406624394+406360885+406075044+405821708+405449960+404840016
2098+404176669+403731291+403479941+403155663+402637531+402120422+401880151
2088+401969419+402165056+402154124+401791671+401253049+400900827+400940258
2078+401275410+401723419+402194345+402613562+402890780+403071568+403357350
2068+403878435+404522431+405056757+405401876+405678246+405943363+406086386
2058+406103222+406204329+406495636+406867647+407324337+408072481+409158348
2048+410299344+411184664+411781571+412278219+412817630+413402027+414042837
2038+414815066+415705151+416610581+417518701+418475897+419413656+420209445
2028+420908686+421741041+422878763+424252313+425714225+427350290+429345738
2018+431513703+433358996+434678646+435713916+436744393+437895648+439218045
2008+440694222+442271622+443923032+445547318+446928350+447948363+448739123
1998+449608045+450934535+452972805+455492612+457752622+459163440+459892233
1988+460523193+461389133+462491457+463728006+464979637+466212999+467569859
1978+469201452+471120171+473267762+475493164+477574052+479542199+481721183
1968+484183845+486530756+488485721+490324496+492439992+494801664+497045598
1958+498979225+500781375+502661628+504595079+506558345+508740486+511299110
1948+514165995+517280984+520707741+524196290+526924740+528314045+528922732
1938+529873937+531775352+534573020+537922726+541349951+544400400+546892379
1928+549027284+551388722+554513240+558009506+560794897+562781197+564979590
1918+567474609+569063672+569404553+569670547+570814085+572616586+574316782
1908+575498319+576302029+577031670+577850696+578911864+580428963+582419296
1898+584554026+586301399+587323808+588024277+589311452+591352879+593121648
1888+593750329+593630602+593563665+593825859+594358489+595002486+595431174
1878+595364763+594853062+594233443+594038946+594951918+597416480+600775774
1868+603023916+602642464+600377192+598003244+596426282+595436202+594425251
1858+593044949+591502362+590325618+589705414+589258370+588578537+587843693
1848+587812066+589069134+590853220+590965288+588322657+584520060+581434009
1838+579541889+578413141+577609899+577285036+577957035+579380889+580164080
1828+579485592+577990357+575964480+572840020+568990948+565845267+564071295
1818+563170074+562645511+562610435+563179661+563932393+564181784+563661314
1808+562797566+562275108+562578516+563828042+565573778+566762916+566572862
1798+565462704+564865300+566014217+569071856+572395840+573296828+571312574
1788+568722265+567556804+568163211+569921165+572319959+574922955+577062770
1778+578641544+580711910+584422490+589497823+593790549+595263393+594295762
1768+592268481+590176194+589274680+590464753+592815551+594416248+595125369
1758+596075872+597107986+597683993+599070200+603027131+608979190+613793205
1748+615384431+614936335+614647600+615710405+618094701+620710733+622170833
1738+622870601+625193280+630226988+634779453+634780681+631860189+629045100
1728+626845947+625521533+625897724+627956748+631061448+635547093+642195938
1718+649573605+653284303+651235451+646467619+642318529+640182513+640464817
1708+643021979+646735132+650017551+653052508+657891311+665024323+671181752
1698+673684722+673521501+670965859+666339792+662440385+661415872+663088474
1688+666823784+673164719+681562340+686593827+684096645+678814948+675979749
1678+676723420+679817831+683077159+685396681+687914734+691188325+692863090
1668+690941623+688032940+687740756+690401919+693302126+693895847+693096522
1658+693819439+698199798+706871246+717189983+721499254+718840722+716838346
1648+718340362+720516423+719351429+715522701+712476811+712001472+714319767
1638+719034575+724771969+728328741+727806867+725964497+726027224+728610519
1628+732605800+737290677+743011175+749339425+754582129+758503750+762931169
1618+768671251+773806505+776246397+777176848+778575974+780673582+782823511
1608+784546272+785624511+786026658+786035778+786105813+786472300+787115127
1598+788079836+789501469+791391368+793723342+796507213+799486516+802216896
1588+804563719+806486063+807615688+808041979+808841772+810883843+814104762
1578+817971431+821021003+821361007+820368354+821765434+826723378+832273524
1568+834448883+833725089+833478445+835744477+841030908+849319443+858541293
1558+862464201+859687754+856282978+855901701+858856217+863018695+865085669
1548+864241038+863678008+866657077+872762652+878578850+880029187+874538086
1538+865865235+860652580+860861750+863551851+863489182+859689391+856807541
1528+858663124+864618690+870803829+874892530+877470680+878714302+878063231
1518+876453824+875062006+873986106+873670655+875311572+879565773+885833692
1508+891986854+894737870+893430293+891510170+891190510+892923969+897216696
1498+903667361+909130284+910171809+908299858+908433732+913226117+919680173
1488+921470280+917603611+912813681+910328424+910040567+910509826+910983411
1478+912251704+915685534+921592579+928236045+931826432+929800555+924966488
1468+922310293+923844930+927224334+928552957+928143386+929625525+934925578
1458+942277289+945767534+941506609+933292670+925807846+920959105+918512899
1448+917099392+916247044+916473927+917021465+916601429+916397929+918920717
1438+923730699+926736368+925658188+923152119+921255264+919192031+916585469
1428+915281750+916955463+920650318+923726256+925028338+925934295+927374928
1418+927629755+925157009+921582231+919509937+919868414+921247313+921407494
1408+920002113+918845538+919430723+921412872+923639501+925501456+926791086
1398+927518506+927989928+927993845+926760629+924783157+924012126+925420898
1388+927809111+928502389+925980361+922537996+922187527+926133644+931732194
1378+936216027+940141624+945390817+950928978+953121583+951135868+948650261
1368+949167107+952399659+955745390+957812832+959402129+962078316+966546540
1358+971687582+975398513+977044867+978174083+979999032+981978492+983579364
1348+985220690+987132570+989007269+990560204+991738175+993096555+995618992
1338+999092108+1001811673+1003133456+1004640090+1007854695+1012134210
1330+1015970480+1019263422+1022360873+1024289589+1024752710+1026323884
1321+1031712153+1039752174+1046025529+1047857552+1047325682+1048088353
1312+1051968585+1058038382+1063045726+1063921926+1061037387+1057997928
1304+1058138466+1062055294+1067536398+1071439430+1072609100+1072816750
1295+1073741823+1073440753+1069606237+1064667994+1062085927+1060954490
1287+1057622848+1051387725+1045579829+1043283282+1044118560+1045038021
1278+1043662454+1039930828+1035434543+1031512571+1027791584+1022931911
1270+1016804823+1011301621+1007807810+1005089298+1001401984+997229568+993891729
1260+991137790+987612528+983001661+978736002+977096078+979177609+982595714
1250+982585542+976647865+966865791+956845785+948367664+941237751+934443165
1240+927080639+918840861+909911662+900936747+893151964+887725228+884310689
1230+880794839+875408616+868654660+862439472+858081855+855655350+854378465
1220+853116077+851179001+849043043+847752419+847488822+847283920+846300270
1210+844842040+843710253+843144534+843152075+844339576+847314728+851411438
1200+855065312+857808320+860862160+865180199+869976969+873732389+875914296
1190+877445951+879921620+884206981+889496979+894225409+897897464+901194440
1180+904613129+908026849+911209594+914325869+917902985+922044826+926518662
1170+931909445+939084723+947340812+955230532+962983981+971679456+980379842
1160+986313895+987909505+985941504+982488966+979164047+975960140+972341107
1150+968831630+967191706+969581848+976856801+986430815+993006877+994355318
1140+993898043+995208368+998765783+1002250708+1002215749+997910746+992754329
1130+990620301+992167156+995512712+998514989+1000159590+1001021642+1002480222
1120+1004608755+1005987830+1006795515+1009497775+1015269309+1021722020
1111+1025108498+1023628171+1018723367+1013680597+1011078069+1010449272
1103+1009308715+1007091557+1005496999+1005935449+1008388436+1011618825
1094+1013914087+1015030675+1017048017+1020983084+1023591575+1021778610
1085+1018964223+1020835414+1026727960+1031196301+1032435422+1032279100
1077+1030060889+1022976808+1012658246+1003748573+997656912+993213709+989600055
1067+987149641+987144379+989888380+991634116+987477953+978696073+971910783
1057+971690563+976729709+982585191+987438317+992089170+995178553+994867546
1047+994403489+998821554+1005462156+1004865863+994533154+982965416+977905926
1037+979760457+984626619+988816339+990608258+990202311+988679191+986143425
1027+982077757+977660511+974505827+972795167+972417924+974691497+980692136
1017+987966562+992032113+992097004+990187228+986654016+981431072+975696309
1007+970704867+966226413+961030419+954370116+946745688+939857040+935279087
997+932349591+928525715+922459367+915079654+908119333+903076563+900787265
987+900183372+898749579+895456520+891575002+888189518+884838759+881017046
977+877327394+874360367+871613151+868342541+864633597+860955287+857488660
967+854405122+852142657+850872728+849999685+848907591+847907397+847887813
957+849153825+850653035+850676419+848957633+847956328+850793865+857511635
947+864202162+867451843+868623968+870840776+874360777+877550887+880517212
937+885285979+892484349+899988407+905782331+910249094+914175568+917386022
927+921066905+927810280+937273395+945147038+948029882+946721135+944010281
917+941640366+939500960+936824772+933983318+932157901+931460296+931010796
907+930737203+931278251+932313346+932490188+930971745+928497654+926786293
897+927059243+929303878+932636923+936023810+939035266+941738111+943887339
887+944857427+944630777+944074762+944176541+946269355+950858124+955763922
877+957659725+955594914+951840313+949203644+948662771+949601758+951488383
867+954195437+957390516+961100746+965239431+968631228+969986451+969195135
857+967285535+965219320+964180835+966103530+971821105+979296400+985040049
847+987834676+989377906+989706335+985893216+977272102+969133751+967898781
837+974224868+981960720+984710801+983782338+985628859+992542353+999849868
827+1002173424+1000362329+998609227+999104735+1002238548+1006085575+1007373685
817+1005992974+1004471959+1004489146+1007712871+1015902900+1026184632
808+1028872628+1019143111+1006928102+1002522665+1004597999+1006190686
800+1005452569+1006018580+1009169931+1011311676+1009683094+1005186458
791+1000795519+999006873+999581770+1000295451+999970413+999064398+997128432
781+992655649+986115832+978989134+971558619+964507159+959821288+958781049
771+960541868+962965332+963777635+961566381+958089933+957773313+963124928
761+971610765+977755275+979089861+978393075+978736002+979867731+981117375
751+982748880+983940297+984142452+984237859+985560694+988990667+994383379
741+999450118+999562361+991531694+979353691+971563179+972305622+978158766
731+982183103+980990516+977718445+979089042+988934662+1002644028+1011281160
721+1011323368+1006312634+1002162550+1000510584+998862593+995993254+993995438
711+995701888+1001279452+1008157519+1012676603+1011903175+1006418213+999185527
701+992832198+988718126+987545883+990146657+995564741+999001261+995090513
691+982842650+968118299+958616951+957064660+962211898+971357165+980734402
681+986484481+987026173+984184426+979786471+972304161+961102909+949527338
671+939899833+932901806+933854063+948053967+967079229+976309497+970295997
661+958623733+954460144+960148139+968316187+968629767+958366508+944960492
651+934858232+932117271+940118240+957971376+976343112+979394379+962787438
641+942906905+934277080+937176410+944235586+950381265+949809466+936641500
631+918391712+908362878+910329769+914739006+910899989+902508915+899879145
621+904811426+910649721+911878728+909231478+905406959+903313560+905788762
611+911077123+913155965+907932027+894121642+875843735+864085183+865332488
601+877306407+894146955
##END=
