##TITLE=<SNM>
##JCAMP-DX=4.24
##DATA TYPE=INFRARED SPECTRUM
##DATE=29/4/2025
##SAMPLING PROCEDURE=Instrument type and / or accessory
##ORIGIN=Admin
##XUNITS=1/CM
##YUNITS=ABSORBANCE
##RESOLUTION=4
##FIRSTX=4497.3318
##LASTX=599.83466
##DELTAX=-1.4281778
##MAXY=2.2468159
##MINY=0.69306409
##XFACTOR=1
##YFACTOR=2.0925104e-09
##NPOINTS=2730
##FIRSTY=0.69652563
##XYDATA=(X++(Y..Y))
4497+332866034+332706490+333206369+334105946+335642870+337845226+339789339
4487+340448704+339750599+338519773+337852005+338169012+338663479+338248741
4477+337236307+337074286+338248741+339752935+340770496+341373347+341644209
4467+341546050+341398556+341379044+340967468+339688389+337658480+335146181
4457+332656642+331431655+332607079+335639281+338433122+339265418+338251504
4447+336905912+336626021+337679330+339147748+339693089+338748790+337103625
4437+336122952+336180890+336147762+335168940+334418253+335675257+338658095
4427+341137380+341596155+340559538+339328541+338669062+338739818+339361270
4417+340150867+340695296+340682763+339969533+338799864+337833347+337413340
4407+336961087+335947514+335232632+336151522+338610525+341264735+342955618
4397+343053065+341407614+338960033+337276043+336818151+336603262+335772931
4387+334752237+334473457+334995326+335584106+335776834+335535653+334667210
4377+333246419+332370997+333006065+334461949+335474098+336111729+337099950
4367+338011092+337793697+336652028+335798482+335522550+334909900+333564451
4357+332323200+331915725+332154912+332705095+333567499+334568055+335138035
4347+334906026+334080453+333409152+333937687+335975572+338217721+338784681
4337+337375939+335630650+335186345+335935836+336289417+335245906+333724507
4327+333280316+334104892+334961458+334783200+333656144+332304770+331317887
4317+331211781+332577682+335112826+337022785+337036202+336393244+336753063
4307+337320508+336392418+334394668+332947329+332343082+331939738+331756211
4297+332166106+332969205+333741085+334412927+335118437+335903933+336664960
4287+337207082+337389726+337285187+337101546+337036771+337297264+337844485
4277+338083956+337436099+336319952+335839187+336328555+336913974+336680883
4267+335831069+335332870+335707616+336547830+337118437+337008087+336118109
4257+334697176+333610938+333722057+334807469+335780537+335979104+335583678
4247+334993588+334594773+334804450+335579520+336192227+336021945+335341530
4237+334870876+334792856+334741555+334587766+334644793+334964249+335155211
4227+335069927+335029679+335198906+335310766+335396192+336037583+337323641
4217+338239711+337864652+336745743+336143632+336247658+336216439+335721801
4207+335267555+335166804+335268950+335500731+336015650+337066338+338698401
4197+340392817+341313985+340814334+338853330+336296652+334259394+332980229
4187+332069999+331674060+332302235+333648965+334649379+334628585+333881373
4177+333493610+334626192+337267014+339945891+341339280+341583679+341378731
4167+340757963+339424791+337547845+335701634+334469668+334261188+335033211
4157+336141438+336814989+336897908+336924627+337444787+338422754+339261260
4147+339356655+338580987+337232205+335736043+334522764+333901654+333877869
4137+334342712+335381009+336946076+338373988+338763973+338018100+337044291
4127+336695723+336766935+336334309+335173327+334139388+333921422+334359774
4117+335195232+336505303+338088799+339136724+338902010+337497626+335699498
4107+334282182+333905869+335041443+337348366+339485435+340153943+339352069
4097+338329609+338372963+339670757+341151508+341493297+340319013+338328384
4087+336635136+336130500+336857260+337785664+337751169+336692590+335488853
4077+334896712+335127808+336008927+337012816+337215513+335988361+334050259
4067+333039648+333772561+335509305+337021902+337758803+337835484+337605783
4057+337289146+336644223+335371125+333886956+333005466+332931121+333261146
4047+333722883+334246860+334589731+334516953+334267199+334337841+334651942
4037+334402729+333213234+331961073+331828305+332979859+334595172+335756695
4027+336070084+335831496+335709894+336073474+336678946+337027656+336924855
4017+336714609+336867458+337339593+337639737+337427383+336653310+335510245
4007+334671426+334830086+335761139+336672765+337350702+338213249+339457292
3997+340736257+341500617+341398699+340733865+340331489+340453688+340348238
3987+339446695+338375697+338032114+338242559+337999471+336821056+335533004
3977+335487058+337022187+338826582+339214830+338105092+336907935+336554724
3967+336741498+337017088+337426329+337963010+338378631+338636731+338880333
3957+339021133+338873725+338454999+337814063+337015863+336504477+336785165
3947+337552716+337969448+337874337+337824660+338018755+338073075+337867358
3937+337730745+337898008+338299443+338686551+338842192+338780038+338601752
3927+338239796+337701862+337361412+337569778+338203678+338935366+339532036
3917+339771507+339570405+339208905+339027799+339032499+338998773+338823791
3907+338700965+338996608+340028724+341773900+343525969+344201399+343372806
3897+341711689+340360543+340047325+340534386+340666185+339611822+338281099
3887+338276114+339717187+340982793+341158116+341393116+342560392+343563398
3878+343057480+341429063+340195303+340516412+342473713+345012360+346550936
3868+346648126+346203678+345733167+344719024+342932033+341228075+340166363
3858+339498310+339454386+341431855+345734363+348675329+347438464+344004997
3848+341168200+340090337+340456907+341364118+342194905+342868142+343450228
3838+343784297+343702631+343433308+343419464+343802983+344158359+343969248
3828+343294530+342632829+342362338+342550537+342912236+342930324+342870905
3818+343879351+346193053+348031602+347736727+345875705+343990555+343282082
3808+344007674+345068390+345363805+345468686+346400365+347807028+348782118
3798+349323528+349607036+349546307+349556106+350221396+351325151+352214218
3788+352856805+353784725+355245109+357070071+359196714+361727670+364572100
3778+367507113+370399312+373068362+375382407+377707788+380728625+384620554
3768+388904404+392946847+395893338+397004215+396744890+396447709+396697947
3758+396960719+397219930+398578853+401707020+405761340+409198824+411831043
3748+415021592+420045476+426607167+432166167+434911214+435944470+436826045
3738+438332347+441196888+445608265+450153634+453507828+456024883+458248374
3728+459840957+460693563+461818910+463987113+466278170+467316866+467081240
3718+466348499+465452254+464696354+464769703+465455929+465127044+463464161
3708+462493600+463765757+466565353+468857607+469595561+469809225+470736917
3698+472359864+474376556+476806762+479453907+481914477+484125692+485965123
3688+486770900+486579482+486148109+485771712+485488060+485529477+486358782
3678+488292214+490367784+490295774+488276148+487823696+490759677+494165086
3668+493899494+490359181+486742187+484929930+484228692+482672684+479590520
3658+476540344+475596131+477043442+479198741+480450304+480812402+481815920
3648+483893826+484998635+484162950+482926597+482596402+482450560+481302397
3638+479486550+478118143+477566849+477668084+478398661+479661960+481150573
3628+482646706+483863290+484210519+483375802+481877675+480759990+480961035
3618+483122743+487254058+491976546+494981687+495291487+494289736+493535004
3608+492982456+492094928+491341279+491834065+494328076+498113016+500790925
3598+500499298+498331722+497451714+499565739+503299862+506172151+506975820
3588+506278399+505403063+505116221+505448695+506402023+507917070+509211360
3578+509068709+507343786+505377825+504525162+505104314+506774945+509025526
3568+511143139+512332321+512278029+511307269+509937722+508415895+506792150
3558+505614021+505897444+507905961+510579825+512566181+513658457+514674622
3548+515805182+515913709+514232026+512058241+511251780+511744851+511889668
3538+510685389+508625258+506732560+505698791+505674921+506226557+506493288
3528+505740778+504049866+502381571+501694063+501971105+502259770+501706482
3518+500480270+499587786+499796351+501002624+502808614+505110923+507594680
3508+509401069+509914307+509201220+507638831+506044254+505652988+506693023
3498+507718076+507363269+506113700+505270722+504892103+504228636+503503984
3488+503555427+504083364+503931996+502969781+502069435+501320571+499919576
3478+497996628+496992255+497695202+498973085+499250014+498635370+498467538
3468+499152881+499664638+499086169+497710470+496498159+495980192+495843123
3458+495256223+493571920+491058596+489089958+489057428+490811918+492819751
3448+493898127+494040380+493522584+492153094+489769433+486957760+484742159
3438+483814125+484360121+486159731+488423813+489941139+490036050+489127444
3428+487969083+486813684+485679193+484766712+484038585+483082865+481841100
3418+480745748+480033857+479594394+479330283+479366630+480110367+481854716
3408+483907783+484654141+483179827+480321951+477778092+476748881+477337661
3398+478708518+479940256+480760104+481159061+481032304+480729112+481042445
3388+482334342+484259342+485985917+486290533+484538607+481994120+480945938
3378+482305858+484827385+486659809+487138809+487089986+487638944+488788817
3368+489389048+488803458+488023488+488390714+489906502+491695002+493551867
3358+495803131+497926555+498859887+498496763+497619262+496874100+496589766
3348+496842482+497170228+496794457+495765303+495372441+496551482+498319759
3338+498843479+497662558+495785470+494169131+493186122+493037603+493745107
3328+494990802+496251082+496770872+495791053+493536485+491444280+490589965
3318+490383678+489558190+488011069+486835104+487024414+488802888+491419441
3308+493182248+492717548+490614348+488905319+488999832+490800239+493288212
3298+495288696+495967203+495108900+493126133+490924718+489469716+489220019
3288+490285007+492857921+496615174+499968684+501143054+500161982+498731022
3278+498150616+498239830+498042146+496921385+495150602+493865370+494068238
3268+495462795+496824993+497575053+498064421+498328874+497868674+496758566
3258+495810081+495527740+495566593+495165585+493992013+492618364+491887730
3248+491873830+492044339+492149334+492297854+492504482+492655508+492636196
3238+492285149+491616612+491034612+490832313+490635882+489894367+488745976
3228+487777380+487250754+487112033+487293709+487556965+487478746+486962260
3218+486435349+486367727+486661860+486436945+484805281+482300673+480814111
3208+481492846+483393121+484702166+484700343+483860385+482554700+480651634
3198+478279082+476216358+475367228+476100539+477941993+479741717+480454576
3188+479931995+478791522+477714856+477172164+477251067+477384717+476888086
3178+475663811+474002153+472172378+470524421+469660507+469918835+470722675
3168+470823397+469328916+466642775+464306626+463604933+464358696+465365632
3158+465915160+466304347+466835987+467070673+466345251+464585121+462377980
3148+460443808+459085912+458070060+457005813+455781338+454562248+453558388
3138+452934430+452777991+453040849+453483815+453748438+453715083+453723002
3128+454006881+454117344+453586474+452869427+452738198+453034212+452922922
3118+452175425+451377225+450949384+450662742+450204365+449604334+448892956
3108+447932250+446788417+445703404+444633089+443480482+442712305+442910986
3098+443872518+444862249+445487204+445847081+446160613+446500407+446667527
3088+446354508+445565395+444656760+443929544+443402804+442934800+442369263
3078+441646776+440888255+440258571+439790510+439465015+439387935+439668795
3068+440032630+439862206+438937933+437874170+437348113+437214719+436959410
3058+436619986+436600388+436936936+437317492+437488173+437221242+436312151
3048+434995415+433977284+433743766+434039495+434226868+434001268+433527054
3038+433002564+432488756+432154174+432167733+432318247+432265835+432096037
3028+432087093+432128567+431904790+431431744+430970149+430685330+430675189
3018+430940752+431146128+430803427+429798827+428417544+426987325+425838022
3008+425270349+425225970+425319172+425353582+425424195+425507884+425406820
2998+425017348+424304602+423269295+422226212+421737385+421936551+422187701
2988+421793358+420954510+420563756+420998946+421681327+422058408+422392449
2978+423075798+423705739+423438837+422055902+420257944+418979206+418586231
2968+418658012+418512427+417948001+417335522+417035435+417024041+417113939
2958+417212810+417247191+417092177+416731759+416315654+415954610+415619145
2948+415272200+414932349+414626166+414349722+414029639+413619857+413327489
2938+413570236+414490949+415594733+416053195+415396679+413904334+412423782
2928+411787262+412120647+412677410+412667070+412159985+411726703+411413570
2918+410755031+409696167+408769843+408342771+408243416+408146597+408029638
2908+408183342+408728113+409189338+408912295+407917779+406890305+406338470
2898+406185250+406089684+405822611+405385256+404959238+404700426+404579024
2888+404508040+404493740+404511629+404434179+404272328+404244071+404381026
2878+404354820+403988107+403623389+403586900+403582912+403141056+402439391
2868+402070713+402159500+402333343+402473060+402850569+403427527+403595815
2858+402922322+401789227+400965960+400773888+400931665+401057710+401037628
2848+400902838+400633230+400220230+399722914+399189395+398735974+398670459
2838+399205004+400043140+400579963+400544471+400179610+399798769+399455271
2828+399097161+398809664+398766738+399021164+399418726+399669334+399470767
2818+398681455+397464814+396220172+395350789+395035634+395140629+395414538
2808+395775525+396240624+396622577+396604033+396114921+395375998+394643171
2798+394102075+393826598+393667768+393396621+393065002+392971144+393186461
2788+393372608+393169740+392573184+391843319+391209761+390776479+390577086
2778+390560451+390594149+390559824+390400053+390097090+389669021+389148576
2768+388581473+388105663+387891572+387887841+387814549+387498055+386988605
2758+386353253+385656402+385127782+385068192+385543716+386306481+387005810
2748+387359562+387202839+386553073+385637146+384806901+384369973+384367096
2738+384445372+384115120+383302707+382482801+382088060+382023399+381947687
2728+381765498+381605215+381528534+381504663+381565421+381799310+382148561
2718+382295372+381921652+381122683+380374645+379987537+379773844+379410293
2708+378959892+378782489+378988890+379256020+379237989+378899533+378386181
2698+377854456+377519960+377587639+377977653+378316963+378310298+377976912
2688+377504037+377044720+376671484+376385640+376145342+375918945+375677452
2678+375381694+375097217+375051271+375404824+376004998+376487302+376592240
2668+376318416+375817483+375233033+374694158+374360402+374281072+374265064
2658+374135430+374036758+374189807+374488014+374683733+374755343+374753292
2648+374580988+374242902+373982438+373895559+373732655+373334068+372912152
2638+372638157+372325480+371867502+371638712+372006536+372696551+373086934
2628+372955705+372583609+372295685+372170095+372107287+372057011+372100222
2618+372248371+372327502+372222365+372040490+371882684+371676398+371363777
2608+371081180+371048679+371324412+371697419+371884821+371830301+371688760
2598+371570862+371486433+371462164+371513465+371551236+371458119+371241293
2588+371032016+370904518+370779356+370589904+370442039+370483200+370697946
2578+370938472+371077933+371087789+371042242+371068932+371246506+371507312
2568+371637317+371470481+371099040+370758647+370533561+370340548+370140129
2558+370002434+370023570+370194792+370265662+369951446+369413882+369155098
2548+369314043+369537477+369623843+369744732+369942986+369973123+369764131
2538+369560493+369487316+369378248+369152648+369029025+369218277+369636149
2528+370030406+370247346+370294004+370193111+369877471+369362068+368938500
2518+368915997+369183469+369326434+369182244+369008857+369126072+369609145
2508+370292608+370903350+371189308+371054775+370635422+370200460+369948769
2498+369908520+370002064+370150469+370315567+370473629+370565036+370518977
2488+370367381+370269621+370355702+370547063+370586343+370320181+369942132
2478+369810960+369999643+370217408+370220741+370102501+370132638+370440615
2468+370867402+371122369+371120774+371050445+371051613+371053379+370971172
2458+370833591+370715379+370688432+370739733+370702105+370455484+370140243
2448+369962755+369938343+370018870+370241307+370552987+370724836+370636647
2438+370486532+370564923+370907224+371261916+371395538+371364746+371393544
2428+371514234+371521725+371312448+371036260+370837749+370698801+370645705
2418+370863300+371426985+372073817+372440701+372508124+372613688+372968181
2408+373362040+373490506+373400836+373408499+373657256+373969563+374131584
2398+374171406+374314883+374802685+375821243+377516627+380031489+383631592
2388+388767877+395845199+404990799+416187900+429461482+444690571+461386198
2378+478884497+496568801+513760091+529929690+545454450+561408989+577690533
2368+591788892+600639447+603792766+603487808+601846403+599154081+594248151
2358+585774393+573329232+557553692+539711981+522143667+508132073+500169559
2348+499116534+504498729+514163891+524176909+531276620+535221473+537608496
2338+539983327+543196806+547405998+552137828+556249147+558385674+558220691
2328+556901676+555568304+554015145+551428501+547789289+543663215+539078651
2318+533645241+527592231+521869985+517114342+512801579+507687939+501212272
2308+494062655+487187176+480829436+474727004+468709571+462838550+457210931
2298+451790852+446427800+441062411+435861067+431102859+427012021+423651447
2288+420837352+418241024+415706565+413364520+411363579+409646461+408087975
2278+406751527+405826912+405249555+404587370+403540099+402389628+401658510
2268+401456411+401428126+401245909+400912238+400570079+400220742+399769116
2258+399241664+398748650+398261760+397643641+396899705+396219745+395790309
2248+395707561+395981727+396429137+396629270+396265349+395551066+395074174
2238+395142708+395500932+395743167+395746927+395615868+395478543+395455556
2228+395642103+396000071+396316081+396355817+396100565+395794610+395680158
2218+395702889+395576616+395137894+394549029+394120305+393964009+393896813
2208+393730206+393526198+393411234+393293392+393009570+392645222+392448193
2198+392490635+392633116+392782661+392988264+393277669+393591200+393902824
2188+394246720+394618788+394998262+395434193+395974377+396539999+396959209
2178+397133821+397187059+397373321+397712489+397889123+397761027+397697819
2168+398084215+398794596+399460313+399940082+400275803+400438024+400339039
2158+400033313+399805121+399956347+400479669+401072664+401474413+401634498
2148+401621793+401540498+401464273+401393744+401368963+401529019+401900374
2138+402271046+402461154+402572045+402798840+403150570+403514093+403852406
2128+404193426+404541367+404898708+405249184+405484611+405521356+405499338
2118+405701351+406281956+407129349+407939370+408477817+408846951+409383747
2108+410232165+411135189+411689388+411742911+411569553+411617208+412031718
2098+412587085+413110492+413643813+414125005+414324171+414213622+414091137
2088+414262644+414765058+415362440+415749206+415856879+415955436+416330779
2078+416939470+417523892+417947175+418248772+418494310+418732614+418993164
2068+419228647+419367311+419428810+419493413+419635809+419936551+420417658
2058+420998320+421651561+422406663+423085198+423421660+423543860+423863658
2048+424485224+425212810+426008874+426920927+427753251+428306653+428763947
2038+429451199+430389430+431382665+432408743+433620456+434959467+436065530
2028+436711251+437123796+437729239+438729424+440019214+441364634+442576319
2018+443623048+444642916+445804097+447164956+448669635+450177960+451519364
2008+452687467+453950395+455565994+457405026+459072239+460400426+461614105
1998+462992510+464562789+466198612+467892999+469750490+471676230+473289037
1988+474319274+474946536+475621597+476667671+478100881+479721151+481316126
1978+482786509+484106550+485291174+486471582+487866139+489597043+491622081
1968+493844063+496195195+498627793+501075431+503407250+505493188+507383152
1958+509272944+511212642+513033502+514612526+516042631+517563660+519483362
1948+522049382+525181851+528449622+531477380+534176823+536518099+538489301
1938+540373340+542587688+545139922+547598270+549684778+551631768+553878247
1928+556573190+559464164+562192890+564585438+566721909+568875698+571251270
1918+573595793+575375235+576600137+577887705+579590808+581519739+583440922
1908+585255286+586742589+587711812+588399889+589308781+590614921+591997457
1898+593172111+594334232+595762002+597318409+598808048+600397953+602079294
1888+603226204+603411184+603106283+603082869+603625617+604522944+605483963
1878+606340784+606967449+607251442+607152258+606747831+606365623+606631955
1868+608006117+610086131+611801710+612258663+611293599+609615961+608236103
1858+607554007+607318096+607354614+607742234+608329761+608639675+608298029
1848+607389650+606416383+605769380+605087455+603610577+601424543+599483934
1838+598488848+598245816+598160361+598112792+598281877+598336397+597688141
1828+596626913+596019618+595855432+595170829+593405686+591080761+589029972
1818+587565514+586421395+585363073+584578774+584201521+583795671+582836817
1808+581527202+580548978+580213029+580315916+580610448+581041480+581545090
1798+581922969+582064994+582130167+582447715+583197605+584060978+584549377
1788+584687528+584947537+585730640+586993483+588375051+589623025+590725954
1778+591816123+593119585+594801439+596649701+598067786+598828842+599441720
1768+600294154+601322967+602576809+604293072+606237328+607676833+608413107
1758+608914951+609452971+610166116+611514470+613827489+616650613+619028976
1748+620496169+621261725+621706429+622205368+623054043+624327425+625836149
1738+627339176+628891879+630682944+632377046+633307985+633712924+634323352
1728+635306020+636468311+637843669+639551102+641372589+642961924+644306347
1718+645670596+647073015+648143358+648869206+649713722+650861202+652024007
1708+653087912+654422594+656255303+658275841+660054030+661153542+661455309
1698+661882979+663210711+664910852+666264846+667532360+668991464+670087044
1688+670496313+671238284+673716970+677521394+680263963+681189433+681401758
1678+681823789+682802354+684076477+685007530+685581554+686557898+688297234
1668+690015206+690879035+691266086+692127294+693786873+695555206+696857871
1658+698105845+700049075+703083556+706768572+709178781+709423351+709163057
1648+709610211+710961015+712809049+714637143+716212749+717407229+718208961
1638+718994057+720486146+722917832+725240593+726776947+728452477+731328241
1628+735258966+739255206+743116998+747678547+753119135+758267925+762421971
1618+766399297+771051428+775509690+778595387+780880776+783657242+787474142
1608+791622832+794662896+795927107+796318772+796986797+797740617+797733496
1598+797194166+797417315+799074900+801326563+802961303+803816073+804430376
1588+805045361+805707176+806763676+808433338+810202355+811306709+811662997
1578+811952573+812966801+814666201+816172019+817384729+819198354+822163730
1568+825607138+828508140+830557333+831870993+832853831+834414795+837782434
1558+842697251+846416277+847892186+848662699+850582343+853900703+856553432
1548+856489284+854343299+852338599+851372852+850688933+850426532+852111975
1538+854736275+855508953+854132569+852400069+852178059+853798728+856088389
1528+857226982+855881305+853200776+852359051+855005684+859445546+863026592
1518+865448309+867978724+870944271+873865953+876981159+880744109+884718074
1508+888352729+892224320+896382524+898811704+898680959+897265666+895987669
1498+895326025+895373993+896478860+898788575+902171652+906412633+911059693
1488+915584097+919551226+921710883+920782622+918311627+917791438+920415454
1478+923787935+925208014+924785585+925123642+928740009+935360835+942039427
1468+946141118+946542297+943520976+939165031+935930416+934506520+934241498
1458+934050365+932840617+931045736+930466527+931760590+934006328+935732105
1448+935773009+933855130+930772169+927731763+925862194+925982058+928264940
1438+931343174+932447927+930802989+929076414+928998651+929472979+929192404
1428+928891434+930094516+932841985+935223709+935119284+932663841+930574712
1418+931415582+934354297+936643788+936697282+934352645+930815750+928246653
1408+927644656+927820179+927612867+927811577+929515079+932008236+933493374
1398+933400514+933118401+934037091+935371830+934902629+932105825+929246069
1388+928941795+931336110+934318862+936955810+940513499+945673683+951181096
1378+955476085+957902074+958310546+957283385+956513158+957212173+958916245
1368+961118117+964465303+969413675+974845376+979009163+981250344+981806138
1358+981312213+981011300+981895125+983692399+985647137+988024816+991438771
1348+995034572+997142330+997409745+996433288+993892903+989809557+987240916
1338+989857297+997099717+1004630630+1009121081+1010693781+1011583417+1014094519
1328+1018683755+1023373143+1026086601+1027009165+1027344715+1027836248
1320+1029396529+1032629207+1036669371+1040093466+1043095759+1047175688
1311+1051855847+1054966724+1056291948+1057518046+1059376164+1061615635
1302+1064973760+1069956769+1073741823+1072163540+1065233085+1056974329
1294+1050699138+1047097298+1045601050+1045822320+1047741851+1050298414
1285+1050360169+1045467058+1037824371+1032226091+1030424031+1030541958
1277+1030923312+1030575001+1027687216+1022686547+1020183192+1023730342
1268+1030039373+1031683399+1026252154+1019162299+1016047206+1015699692
1260+1012329718+1005069979+999835051+1000357120+1002782426+1000642765+993289254
1250+985738971+981816051+980655696+979345056+976691758+972862267+968130950
1240+962899553+957106666+950101752+941677101+932861525+924865570+918157068
1230+912589438+907172322+900627550+892987597+886083975+881876207+880273769
1220+879045506+876421320+872928918+869916883+867584153+865293580+863233676
1210+862203610+862199566+862584509+863126061+863892472+864584423+864871151
1200+865202713+866603309+869583099+873714813+878413715+883587116+889229718
1190+895028530+900502445+904767069+906635498+906216088+905964967+908720753
1180+914961535+922185610+927034855+928254287+927185083+926084432+926370647
1170+928264940+931970294+938434454+948429241+960745650+972296902+980226830
1160+983923239+985105812+986019831+989413733+995778366+1001138855+1001564645
1150+997797480+994082954+994158039+998623765+1004564204+1008104175+1007995591
1140+1005302073+1001062744+997155091+996928125+1001908969+1009263733+1013890454
1130+1013210580+1009610677+1007709263+1009517589+1012589727+1013387528
1121+1012188775+1012398195+1016360880+1023913100+1032624650+1039018793
1113+1040055752+1035944149+1030414802+1026225834+1024380934+1025728490
1104+1029485857+1032678201+1033658646+1033897804+1035098152+1037764211
1095+1041671749+1043524740+1039934293+1032652451+1025771218+1021673287
1087+1020229680+1020695918+1023210666+1027975368+1033262936+1034756221
1078+1029013922+1017706158+1006052589+997935118+994569473+996061619+1002025301
1068+1010784135+1018958462+1022379595+1018516720+1009779421+1003054854
1060+1002618581+1008469464+1019049043+1030032081+1034108022+1027659073
1051+1016779720+1010105514+1010104489+1013681148+1016021570+1013666108
1043+1007323693+1001465291+999905237+1003191467+1009318082+1015182181
1034+1017601220+1014000861+1006383126+1001148084+1001972889+1005637965
1025+1006168123+1002585311+998745566+997677958+1000178919+1004589840+1006950087
1015+1003510040+995286378+987773125+984117391+982518827+980091812+977164491
1005+975952066+976450435+976675692+975766003+973980237+970125566+962558990
995+952966407+944980022+939643347+935163207+930283028+925890223+923280621
985+921960410+919968015+916424683+912522955+909692425+907494256+903936852
975+898296643+892947776+891087095+892989363+895357301+894425907+889460729
965+882806235+877179869+873868915+872903909+873655678+874852323+875070744
955+874032133+872909207+872892230+874036007+875588597+876897414+878055604
945+879705213+882370760+886046945+890150345+893844077+897173546+901294948
935+906768579+912318434+915826845+917024287+917900478+919865470+922226229
925+924269270+927245414+932753397+940186836+947147313+951677643+953950384
915+955690746+957317339+957043772+953779362+950188744+950447329+954680904
905+957805682+955288997+948723603+943649044+942488233+943531800+945424669
895+948127246+950363071+950839849+951241427+953735210+956677230+956935985
885+954896477+953228125+953167794+954897616+958569415+963163778+966068881
875+965588172+962848623+960578274+960760007+962342164+963043117+964128272
865+968792024+976880213+984655070+988961281+989311643+986856713+983581194
855+981082740+979930360+981539179+987818928+996841645+1002050253+998887192
845+991191637+987165488+990777013+998996004+1004661736+1002948321+997237925
835+994948434+998536146+1004801881+1011315546+1017855874+1021265043+1016555032
825+1005183121+993791156+986364952+984045040+986715429+991231630+992748728
815+991132959+990542754+992293541+994547255+997797707+1004988741+1015025857
805+1021100174+1019573163+1013864818+1007845420+1003085048+1001302813
797+1003225193+1004860217+1001367075+994762258+990314307+989092994+989752473
787+992540219+996714147+998552326+996260328+992385832+989530634+987788393
777+985814855+982255970+977469164+973266295+970189942+966558477+961349413
767+957095614+956570697+958978798+961763468+963906888+965864475+967504855
757+969112990+973797365+984310176+998106368+1008047092+1010144595+1010114401
747+1014994865+1022863950+1024233497+1014365124+1000860844+993539578+993667304
737+994174561+991310134+990701585+996131007+1002644445+1001597916+992208999
727+982344500+979475402+986324960+1000435396+1013808418+1018492907+1015184688
717+1009251769+1003456945+998279100+995249233+996006016+999907288+1004882777
707+1008921118+1009740226+1005960641+999041694+992236800+988949773+990806295
697+994672018+996329375+998487950+1006073668+1014452402+1011997244+998246513
687+986544292+985457884+991609907+994706428+987553336+974138498+961770190
677+951686701+941970437+935293497+935967788+941200893+942356861+938157753
667+938021254+942529251+946155702+950985976+960293882+971091883+977420853
657+977908399+974400102+968183817+962557509+962870385+967468850+966913169
647+959149593+951155175+946800141+943563988+936227740+924215377+914352303
637+909671004+907521203+910528053+924776014+945261053+952597074+936996429
627+912736533+894783846+885879683+880524492+874511474+870607411+873656419
617+885160500+899418202+904654839+898527256+894015783+898641024+903095868
607+898301030+888605332+883352173+884433626+883661404+873466710
##END=
