##TITLE=<SNM>
##JCAMP-DX=4.24
##DATA TYPE=INFRARED SPECTRUM
##DATE=29/4/2025
##SAMPLING PROCEDURE=Instrument type and / or accessory
##ORIGIN=Admin
##XUNITS=1/CM
##YUNITS=ABSORBANCE
##RESOLUTION=4
##FIRSTX=4497.3318
##LASTX=599.83466
##DELTAX=-1.4281778
##MAXY=2.0430388
##MINY=0.42568076
##XFACTOR=1
##YFACTOR=1.9027282e-09
##NPOINTS=2730
##FIRSTY=0.44154087
##XYDATA=(X++(Y..Y))
4497+232056721+231769760+232478963+233477773+234030503+233977844+233675956
4487+233395104+232974053+232286324+231829906+232175478+232907031+233025208
4477+232487812+232249219+232686732+233195574+233399427+233512858+233439618
4467+232804893+231979190+231851991+232532091+233197375+233167835+232471758
4457+231519811+230773206+230627180+231144762+231757794+231602245+230506184
4447+229297161+228754644+228781005+228900215+228921031+228879900+228917288
4437+229181224+229457346+229350823+229134643+229696535+231403561+233650253
4427+235498480+236192161+235338029+233218896+230791328+229059147+228417436
4417+228572406+229008478+229470613+229953721+230333625+230306043+229825927
4407+229308924+229104022+229006833+228645927+228141220+227863423+227728784
4397+227388021+226950492+226861151+227200661+227642826+227898664+227730945
4387+226893542+225604873+224676515+224702782+225446803+226259475+226811202
4377+227309581+228137743+229192235+229690740+229048747+227726528+226653523
4367+226190620+226132417+226221132+226286665+226183932+225761847+224939699
4357+224031781+223721263+224346371+225627130+227214241+228848261+229986158
4347+230106419+229387270+228444956+227620678+226917522+226300590+225766061
4337+225341501+225038517+224736567+224378214+224251141+224719369+225728532
4327+226872694+227816214+228325103+228124211+227263939+226339794+225820395
4317+225551384+225324225+225338400+225673681+225969162+226062591+226287715
4307+226782147+227137179+227086916+227012095+227345073+227920467+228340422
4297+228562334+228684098+228558372+228154847+228026583+228771090+230061748
4287+230777858+230230798+228813740+227245864+225821006+224796368+224797730
4277+226087167+227886322+229139921+229604719+229612629+229270613+228597357
4267+227989039+227839975+227975976+227975976+227772217+227602149+227674214
4257+227995602+228366422+228594334+228799628+229317022+230146578+230703553
4247+230364215+229187803+227937618+227338918+227413176+227687496+227827084
4237+227754173+227502266+227304584+227449843+227911790+228525949+229369477
4227+230455812+231365077+231676848+231442562+230963213+230477677+230135332
4217+229945294+229827023+229831440+230106372+230688782+231460417+232157215
4207+232490914+232563856+232875126+233459228+233577562+232826022+231865774
4197+231466729+231417141+230901407+229595399+228073948+227291694+227730742
4187+229010529+230358749+231377075+232118402+232548804+232392159+231644300
4177+230934064+230992690+231780724+232488548+232458491+231776198+230912277
4167+230246163+230087451+230716302+232077756+233614479+234652227+234951390
4157+234771642+234441811+234077162+233687108+233314863+232993365+232626617
4147+232064929+231405487+231039711+231198063+231594069+231786410+231660402
4137+231313389+230871835+230660135+231044018+231905276+232806851+233695926
4127+234710102+235338311+234757811+233239446+232262642+232786881+234105481
4117+234878698+234828576+234696413+234835844+234680765+233684978+232280795
4107+231539390+231978109+233085354+234057599+234517933+234453778+234107376
4097+233961131+234202027+234423298+234370185+234271634+234061954+233395558
4087+232661013+232736133+233580882+234226148+234262909+234352564+235112530
4077+236183969+236679106+236249769+235319030+234394556+233718998+233570858
4067+234148006+235018082+235380131+235005724+234400587+234063833+234134019
4057+234666293+235555196+236192067+235993633+235350262+235181369+235479951
4047+235301315+234346377+233521535+233648201+234488612+235287892+235699467
4037+235914567+236130919+236193649+235876756+235374806+235184987+235475487
4027+235941679+236373162+236949167+237714442+238155605+237785740+236921600
4017+236333597+236192145+235890775+235036941+234096725+233692590+233742915
4007+233812850+233971375+234699451+236075049+237519501+238381966+238472403
3997+237994997+237230692+236401058+235764406+235685104+236386804+237580696
3987+238543795+238738329+238280344+237706564+237406102+237450161+237839605
3977+238592335+239542762+240242347+240237774+239502743+238498028+237689757
3967+237138986+236759128+236746504+237352080+238362058+239245354+239707614
3957+239772569+239629503+239730263+240564001+241926317+242785586+242309652
3947+240888992+239801310+239971112+241226669+242594765+243266282+243152773
3937+242541745+241804679+241496839+242045966+243097451+243779259+243842741
3927+243824102+244011462+243963659+243315777+242596613+242710091+243791257
3917+244931065+245070935+244056524+242595313+241437759+240948777+241284622
3907+242706144+245361247+248625749+251192216+252326010+252228257+251020222
3897+248729187+246125740+244575735+245055883+246993843+248331709+248233690
3887+248270482+249805466+251958338+253408084+254420223+254861245+253529785
3878+251079600+249940262+251118021+253439034+255688483+257480277+257955882
3868+256659022+254910975+254055261+253684284+252672709+251167813+250218389
3858+250753106+253982773+260944513+268334210+268885797+262933001+256080699
3848+251258298+249074790+249430245+251659552+254677362+257934487+261287155
3838+263634952+263678182+262029406+260265665+258894374+257440274+255838393
3828+254595523+253951651+254188271+256283362+260365187+263690775+264013964
3818+263237802+263134364+262166300+258965656+255142410+253037264+253806581
3808+256703990+259348443+260819084+262845978+265943607+267476539+266119126
3798+264019226+262522053+260923790+258970308+257597498+257459602+258565218
3788+260960849+264426839+267690182+269553069+270730923+272779636+275545116
3778+277349957+277728186+278116219+280280055+285110381+291768886+297854440
3768+301986763+305130785+308453365+312377841+317688738+325116199+333576412
3758+340859993+346817644+353652357+363463154+376229079+388210196+394915345
3748+397667982+401310869+407652168+412905707+413933353+413818857+417050028
3738+425533077+437098030+446101654+448518790+445789303+441888228+439499692
3728+439462289+441061695+442424590+442270592+441108276+440045295+439566823
3718+439764333+441074476+444514465+450676862+457615295+461090870+459901959
3708+457527676+457248343+459729792+463679798+466839045+467570504+466397569
3698+465275351+465896731+468843808+473442855+478498038+483035624+485650959
3688+484800900+481346376+478085476+477104287+478768412+482119561+486143747
3678+490453625+493718847+493219982+489721946+487797816+489298201+490933005
3668+489327960+485842799+482935287+481078226+479933923+479742647+481254559
3658+485013352+490155528+494450400+497168203+499796351+503517490+507006222
3648+507157808+503333200+498184133+494597068+493487599+493573996+493505988
3638+493874568+496156878+500406485+505214006+510050973+515933160+521874302
3628+523348498+519649036+515593305+515072043+519071356+526213344+532881623
3618+535685540+535679588+536355663+539070302+542260342+543398349+541654437
3608+539001510+538112732+539293530+540990829+542609312+545127224+548959821
3598+552796553+555085974+555379309+554422930+553719413+555000454+559184715
3588+564570575+567283334+565631269+561673306+558152151+556947859+558560578
3578+561436357+563027211+562132230+560019425+559334892+561890207+566913187
3568+571207966+572105578+570433214+568855643+568856269+570264994+571711561
3558+571554994+569637474+567744701+567588448+568897932+570223205+571229017
3548+572468582+573561354+573827060+573896103+574572554+575437023+576001077
3538+576536374+576998305+576872375+576305502+575861990+575734744+575929278
3528+575832606+574228408+571374118+569642549+570911811+574337359+577507351
3518+578908119+578452578+576834721+575072828+574183612+574817397+576868804
3508+579343737+581073615+581735280+581578400+580573152+578774921+577180810
3498+576996426+577925865+578502136+578403647+578883121+580630980+582924536
3488+585061839+586916519+587872084+587283596+586075106+585649074+585846489
3478+585791669+585414693+584455808+581898864+578198462+575918815+576536311
3468+578568421+579744645+579624542+579194312+578922028+578174341+576466955
3458+574775546+574733381+576669383+578737957+578562595+576210960+574021218
3448+573501772+573748433+573354541+572628344+572601153+573071104+572910089
3438+571599351+569619618+567676223+566238490+565768727+566631129+568172926
3428+568771814+567789873+566424378+565950104+566468547+567376622+567688816
3418+566639336+565203859+565672306+568582293+571296368+570696101+566666590
3408+562076972+559941486+561162381+564085713+566146643+566573489+566562462
3398+566913688+567151076+566858304+566558578+566824723+567685245+569001308
3388+570617285+572145487+572995421+572735040+571529557+570202342+569567053
3378+569787337+570601935+572079703+574747979+578495494+581534356+581665110
3368+579228019+577270339+578047472+580871500+583643716+585243090+586039519
3358+586579515+586367815+584544648+581987015+581213078+583517911+587438283
3348+590061575+589733029+587548801+585951431+586131805+587471551+589088029
3338+590623374+591533390+591059430+589499150+588212533+588041494+588776211
3328+590024986+591666338+593351106+594311182+594014150+592448983+589776697
3318+586758448+585212328+586530208+589940093+593148553+594566488+594440558
3308+594052743+594218896+594524574+594067717+592889864+592034855+591934111
3298+591689143+590689847+590002996+591163432+593970858+596462706+597277430
3288+597274924+598208185+600162544+600889806+598264195+593447089+590365875
3278+591597421+595508959+598140396+598011834+597206947+597461689+598171408
3268+598636284+599273641+599802296+599028798+597020683+595298073+594508848
3258+593927127+593373974+593700202+595087688+596367538+596378440+595029359
3248+593185580+592310648+593537245+596325562+598676193+599205601+598325719
3238+597169042+596554241+597077822+598892405+601106080+602144282+601019182
3228+598144531+594934316+592690819+591736946+591675297+592372486+593904885
3218+595663270+596612757+596350748+595065321+593021119+590894154+589656406
3208+589336443+588918869+587939748+586942081+586266945+585713605+585308499
3198+585181002+584871502+584145619+583827097+584535877+585381112+584989852
3188+583367985+581740856+581132069+581644560+582394878+581945352+579391540
3178+575363157+571779601+570250146+570566788+571110480+570991880+570858056
3168+571331703+571952144+571926143+570974588+569271776+567315286+565819099
3158+565148099+565001932+564764231+563864301+562096394+559932903+558336849
3148+558185921+559671645+561843844+562942130+561906621+559522220+557531586
3138+556859520+557050671+557082936+556433112+555512319+555112225+555410949
3128+555837169+555883594+555545775+554946386+554102780+553110501+552024871
3118+550659125+549042396+547846186+547793684+548801375+549942451+550144128
3108+549020405+547104326+545075913+543080140+541245195+540220588+540499953
3098+541794839+543468393+544889398+545297950+544260437+542321991+540568243
3088+539714550+539685480+539759597+539404236+538906280+538656612+538345609
3078+537738200+537525873+538245241+539028952+538563512+536839711+535054323
3068+534121564+533869766+533606629+533062749+532518994+532233929+532102109
3058+531869922+531470266+531041164+530644328+530090361+529255338+528438359
3048+527986765+527778699+527456919+526844435+525976019+525095104+524499066
3038+524028865+523125176+521754794+520627438+520145270+519902243+519541495
3028+519348370+519644463+520177379+520359507+519810584+518666688+517498107
3018+516753303+516216252+515318797+514054547+513031976+512488440+511862017
3008+510564968+508841919+507584718+507352969+507794507+508098055+507933343
2998+507673746+507699433+507926138+508047150+507809011+507086981+505940516
2988+504504412+502969287+501824921+501694417+502570320+503471002+503261683
2978+501861040+500240395+499118051+498319304+497678877+497548499+497868775
2968+497872847+497301808+496777945+496586262+496236007+495357097+494202926
2958+493274834+492830602+492703325+492653704+492791883+493085626+492810459
2948+491424884+489587119+488455284+488363468+488782765+489143733+489191348
2938+488865622+488288849+487806212+487756560+488083101+488231147+487571675
2928+485948618+483810313+481910335+480850173+480727439+481162085+481638709
2918+481776449+481414321+480711932+480104179+479856861+479673103+479028761
2908+477987990+477386470+477845175+478811422+479163087+478636718+477793174
2898+476784042+475316393+473662105+472524693+472121560+472284330+472905866
2888+473519353+473239080+471869168+470277374+469256777+468849415+468857967
2878+469145695+469428349+469466190+469350723+469167091+468702998+467804571
2868+466642663+465451214+464306441+463220404+462262584+461592836+461377220
2858+461548322+461745080+461775090+461943874+462460156+462803174+462359851
2848+461449771+460925000+460962184+460951376+460372004+459261345+458018615
2838+457091150+456659699+456438851+456017205+455389559+454853918+454464788
2828+453915050+453009951+452000819+451317351+451081780+451005157+450738918
2818+450191060+449492336+448883142+448651236+448853006+449055685+448705900
2808+447822416+446952057+446469263+446271753+446059520+445641320+445070750
2798+444589490+444328702+444139557+443835163+443404558+442861367+442107415
2788+441097281+439968014+438939679+438185571+437713490+437337391+436833546
2778+436109417+435228000+434439998+434200762+434858198+436102400+436966994
2768+436718768+435541291+434060673+432591802+431206665+430093375+429404550
2758+428984751+428558688+428135757+428003656+428210877+428264381+427730620
2748+426993083+426778344+427049783+427092261+426589919+425922865+425464912
2738+425176996+424891022+424564544+424145090+423433429+422303974+421023873
2728+420118931+419842449+419920513+419863343+419436528+418806220+418308796
2718+418157648+418325242+418523566+418280070+417299601+415876999+414681822
2708+414049353+413744552+413411558+412947089+412448506+412082526+411985415
2698+412072251+412016929+411601078+410969078+410383410+409889839+409348465
2688+408669445+407970941+407544439+407559162+407790159+407853782+407677041
2678+407450618+407224445+406898937+406484371+406033560+405463460+404731030
2668+404051540+403724278+403792976+403959003+403805005+403166678+402327050
2658+401710588+401375401+401019225+400487938+399971469+399644113+399432757
2648+399204580+398910273+398516569+398028355+397591641+397440901+397707108
2638+398221887+398520830+398260887+397666197+397289785+397327877+397460417
2628+397333735+396884021+396226992+395526513+394943100+394530570+394225769
2618+393980236+393786267+393592735+393353562+393144900+393081747+393100574
2608+392978184+392606784+392131477+391777306+391656044+391759357+391966076
2598+392011342+391672678+391060915+390505444+390110926+389700525+389221490
2588+388893946+388883139+389069747+389235775+389292349+389209962+388897392
2578+388337724+387722515+387239752+386849306+386472957+386231058+386260755
2568+386471109+386676105+386803695+386817823+386661131+386413344+386284500
2558+386364099+386558884+386792794+387012044+386987359+386453660+385527917
2548+384705958+384380607+384551991+384980372+385409098+385642226+385608707
2538+385423571+385297860+385355218+385595957+385947496+386199701+386072299
2528+385591634+385188564+385178947+385408973+385579386+385585808+385424793
2518+385120274+384811651+384656713+384684969+384843604+385031058+385093239
2508+384973073+384779260+384597601+384425622+384330298+384394641+384468758
2498+384280865+383882118+383678657+383895651+384287350+384521479+384560637
2488+384504376+384378821+384264263+384309497+384452124+384419639+384144911
2478+383905362+383936281+384149798+384318425+384328857+384198854+384028222
2468+383960871+384067285+384283873+384515152+384680114+384635161+384259752
2458+383706912+383378273+383521150+383950972+384242898+384153964+383819247
2448+383533336+383387420+383226718+382992275+382941840+383354590+384084640
2438+384615739+384595315+384174890+383778743+383665155+383804148+384078657
2428+384417227+384718049+384837840+384744582+384581218+384562203+384833047
2418+385339273+385842993+386186106+386432139+386641553+386725631+386658124
2408+386597978+386686756+386898331+387129077+387299897+387370412+387359448
2398+387373670+387540418+387858751+388192247+388473334+388780547+389119399
2388+389319415+389283609+389152855+389085724+389037168+388869293+388546135
2378+388120792+387681729+387435883+387676309+388460960+389419313+390088841
2368+390393611+390727012+391681794+393488483+395544495+396808212+396766455
2358+395831878+394922926+394938213+396330618+398647135+400686075+401491620
2348+401058195+400227401+400037096+400768023+401782982+402549088+403148853
2338+403858980+404722478+405431978+405610817+405275442+404757469+404200620
2328+403511200+402674611+401780444+400941161+400367490+400254404+400469989
2318+400588087+400334379+399870067+399560442+399551984+399679323+399750934
2308+399771609+399838929+399948789+400011816+400045460+400223360+400629907
2298+401094752+401469003+401915616+402615812+403339910+403684651+403639698
2288+403575856+403747679+404077164+404373006+404553631+404631695+404575904
2278+404283571+403755917+403222876+402944044+402901598+402834623+402564688
2268+402159989+401804785+401641201+401735993+402080985+402583108+403114175
2258+403604895+404084369+404631069+405273625+405949419+406582640+407164550
2248+407689164+408062130+408189877+408106832+407892908+407551330+407100770
2238+406688428+406485592+406519550+406642472+406653092+406494426+406281316
2228+406067361+405767102+405435705+405351595+405678732+406302211+407038651
2218+407776595+408451699+409072954+409731424+410543798+411636257+413073645
2208+414742939+416452956+418135125+419818390+421560203+423520327+425862469
2198+428473670+430999758+433226684+435286674+437447157+439741778+441870968
2188+443566324+444973671+446446332+448051721+449565075+450848904+451918056
2178+452712136+453130180+453243360+453234244+453210249+453216577+453283520
2168+453317101+453057441+452281342+451020475+449511883+447942363+446340670
2158+444703109+443020502+441169487+438999230+436537955+433987934+431547804
2148+429190970+426621903+423866509+421916316+422034885+424313686+427611237
2138+430906845+434010426+437080832+440226703+443504049+446837060+450028855
2128+452945890+455568775+457993022+460478950+463280017+466367747+469504658
2118+472602131+475858707+479433711+483099967+486501019+489727741+493295478
2108+497554388+502440193+507811548+513780884+520612746+528373201+536764090
2098+545240561+553129422+559758919+564832522+568621951+571477243+573264573
2088+573520192+571973069+568741867+564157512+558594160+552468383+546188796
2078+540121348+534713686+530315845+526701464+523265484+519828910+516703401
2068+514020245+511541521+508970167+506116317+502955817+499617010+496262478
2058+493124595+490488083+488340569+486322085+484246933+482322929+480772360
2048+479569164+478551605+477657940+477061715+476975976+477402635+478322770
2038+479917257+482368790+485836189+490723842+497453770+505943053+515691543
2028+526171054+536768351+546668458+555218984+562356148+568474782+573797426
2018+578015269+580778838+582305098+583141123+583600361+583576428+582584713
2008+580103577+576135026+571184785+565702254+559929958+554074336+548161638
1998+542035422+535901125+530503988+526389208+523283779+520528323+517909980
1988+515721334+514209265+513302099+512753081+512351734+512053418+511993366
1978+512359597+513257616+514640466+516267470+517811836+519151393+520476510
1968+521977803+523527306+524903515+526286271+528164696+530697394+533511649
1958+536194586+538595464+540650567+542410080+544236128+546530060+549253846
1948+552009145+554623228+557410355+560617624+563821197+566376951+568323102
1938+570157421+572049504+573898922+575787748+577911643+580357129+583130347
1928+586193580+589423279+592485572+594831442+596377876+598092091+600880471
1918+604023961+605906772+606372525+606775438+607920399+609430182+610770115
1908+611909124+612967188+613897692+614610606+615082123+615443499+616099651
1898+617443406+619258052+620777295+621653667+622424222+623605583+624803235
1888+625129650+624273827+622774508+621581242+621499607+622471085+623411801
1878+623244083+622018990+620780114+620618535+621969056+624288989+626019681
1868+625484197+622660857+619261122+616772468+615339246+614276672+613082529
1858+611770601+610462370+609081525+607478454+605705597+604144189+603320757
1848+603531706+604476432+604978962+603475695+599858182+595915381+593306874
1838+592348114+592174819+591742835+591096457+591139687+591880231+591791829
1828+589903630+587232597+584954767+582942642+580549971+577759211+575243993
1818+573789281+573654705+574421563+575462710+576239905+576275742+575458074
1808+574279093+573365505+573113707+573822800+575541526+577660597+579245186
1798+580028897+580697140+582155861+584529800+586474511+586351087+584766247
1788+583832548+584547280+586421695+588743194+591303897+593895613+596133847
1778+598057507+600228454+603238997+607143893+610774939+612427067+612045956
1768+610813909+609502670+608865815+609827457+612150459+614233442+615373078
1758+616297881+617098758+617497537+618669877+622252368+627723246+632144644
1748+633624917+633316796+633139491+633981594+635878815+638338210+640433160
1738+641970383+644355348+648771734+653356967+654654172+653178409+651505858
1728+650626665+650692199+651720628+653377517+655648330+659402299+665114762
1718+671160407+674486903+674338042+672703833+671295735+671064800+672784717
1708+676773379+682102915+686712017+689935012+693877124+700326372+707051977
1698+710515555+711141697+710389249+708700972+707172268+706985065+708321991
1688+711208483+716612700+724862873+731962947+733023266+730392831+728824846
1678+730366142+734705027+739890213+744186057+748278157+753217811+757056485
1668+756884005+754327687+753483517+755791232+759249610+760915207+760464177
1658+760112513+762297556+768434986+777112820+782277644+782166876+782328893
1648+784929819+786803859+784007021+777917707+772166901+768491999+767929888
1638+771290716+777093147+780061588+776955877+771570958+767831399+766152206
1628+765249144+764459355+764516494+765747914+766796517+766816879+767172240
1618+768876681+770129403+768410239+764643740+761173583+758914987+757796340
1608+757411094+757476126+758269361+760002935+761770843+762293734+761713955
1598+761297571+761697164+762694894+764048109+765592475+766991552+768112893
1588+769229912+770559696+772063965+773610649+775083780+776784650+779699900
1578+784378421+788723383+788730213+784858208+781753875+781672992+782856672
1568+782100966+778811122+774777350+771994358+772386120+777442180+785426773
1558+788313704+782779673+775330127+770232904+768139332+768115024+768614483
1548+769047345+770437587+773998651+779854963+787193866+793624130+794566789
1538+790053669+786302143+786633258+789461985+791063615+790443300+790247638
1528+792523589+796756092+801405731+806530019+813143477+820106219+824815126
1518+827237933+829099129+831153480+833728907+837613630+843500828+851750814
1508+861591026+868266133+866892493+861997698+859637481+860765276+864239567
1498+869322254+875574212+881994201+888136831+894724540+901665604+906682257
1488+907647908+905754948+903736872+903436958+905642049+910059563+915898207
1478+922828620+930394886+936989424+940935671+942480914+943197337+943995019
1468+945494840+948317741+951716662+953242170+951992079+950344776+950939342
1458+953394226+953381445+948605375+942979058+939852108+939143642+938997538
1448+937618510+934733083+931753678+930628076+932468221+936798712+942133447
1438+947156553+950917163+952955350+953806788+953942116+952854356+950702581
1428+949209213+949209714+949670518+950198798+952100592+955989701+959950546
1418+961155840+959424020+957003156+955487735+954606726+952891070+949708736
1408+946741297+946588051+949979830+954829077+958567633+960673234+961641893
1398+961395483+959991144+958530293+958388449+960091700+963009080+965194311
1388+964013701+959278981+955027746+954907579+958148180+962008656+965687318
1378+970354185+976695610+983513125+988298279+989814890+989589657+989873282
1368+991793433+995451733+1000083077+1003917177+1005587473+1006049029+1006630437
1358+1006860933+1006347189+1005748175+1005841338+1007184718+1010460904
1350+1016011224+1022637777+1027815131+1029992969+1030699618+1032809229
1341+1036790185+1040009671+1040263536+1038715850+1037847684+1038916147
1332+1042485231+1048712691+1055849480+1060182978+1059416245+1055091895
1324+1050576707+1048549358+1050022865+1053422852+1055220957+1053723204
1315+1051443807+1051875979+1055273084+1059173908+1062088343+1064992378
1307+1068741961+1072090573+1073661002+1073741823+1073339348+1072902790
1298+1072205351+1070218413+1066092794+1061287528+1057990166+1055252910
1290+1050494445+1044696274+1041396155+1040517401+1037842860+1031642340
1281+1025020173+1020338645+1016274048+1011359456+1006829733+1004283815
1273+1002902218+1000471956+996156941+991318783+988126738+987155448+985858619
1263+981303835+974557493+969405951+967103373+964977222+960189562+952895894
1253+945297612+939028990+933910966+928402122+921223670+912832468+904743748
1243+897626632+890639080+882647033+873657256+864813269+857451749+852365114
1233+849390596+847339690+844868767+841887733+839420883+837946373+836783431
1223+835156615+833053145+831082496+830167341+831106053+833893430+837697144
1213+841551857+844796279+847236127+849289977+851599760+854382940+857552806
1203+861277579+865898523+871293905+876592616+880826623+883930204+886711190
1193+889861071+893500512+897333610+900445899+901644052+901027057+900373223
1183+901468627+905014592+910841520+918119337+925741426+933378238+941534121
1173+949725213+955999161+959651133+962766242+967242397+971911896+974923254
1163+977078349+980402464+985355024+990358457+993717970+995901447+998851531
1153+1002844203+1005385672+1004243405+1000469325+997085378+995869119+996056322
1143+996212137+996675196+998658125+1002133982+1005949976+1008898557+1009960880
1133+1008604783+1005816779+1003814303+1004574457+1008405425+1012646824
1124+1014544045+1015825587+1019718893+1025185511+1028435133+1028613001
1115+1028087603+1028472097+1029432862+1029847993+1028643513+1025291142
1107+1020829897+1018352521+1020880958+1028558181+1038567929+1046818979
1098+1049137909+1044827279+1039388604+1038138639+1038299153+1032959593
1090+1022886880+1015975450+1016047312+1020001202+1023203898+1024208456
1081+1024015426+1022970520+1020306818+1015990424+1010912122+1005816278
1073+1001388677+998129532+996136642+995017744+993485407+990174198+986117559
1063+984408168+985952033+987609861+986688316+985454891+987865042+993898846
1053+999321920+1000050686+994797398+985710573+976981552+971750004+970523032
1043+971878064+973746904+975158824+976921031+979739608+982530745+983509616
1033+982004094+978446977+974371855+972113886+972682012+974041806+973066756
1023+969558696+966436382+966360448+969895512+976217389+983715239+989900159
1013+992304797+990632371+987232196+983760912+978946625+970819751+959685717
1003+948136176+938348278+930262942+922498696+914734513+908047376+902572363
993+896887717+890161110+883429115+878438275+876049551+875667813+875619822
983+874404253+871995480+869458271+867476470+865824594+864111193+862407817
973+860895842+859077938+855865844+850991349+845849706+841892432+838722879
963+835103111+831344443+829136594+829428301+831730691+834911897+837902830
953+840009997+841395980+843012270+845606993+849251259+853759555+859225671
943+865732809+872663285+879362514+886397180+894709879+903813808+912467270
933+920455935+928105465+935207294+941645515+946988270+948935801+945444468
923+938758397+933671637+932203580+933204630+935430272+937613310+937601406
913+934764096+931221827+928604675+925891289+922165952+919465097+920653539
903+925714925+931832557+936685249+940126210+942384054+942878815+941616696
893+939825231+938928747+940319679+945064986+951864896+956896773+957847952
883+956210298+954367646+953275626+953388337+955501142+959776123+964822285
873+968577882+970144615+970373044+970436384+970872942+971206751+969605559
863+965278891+961032980+959950734+961227890+962614562+964510216+968241442
853+973025845+977513528+981134362+982322929+979582666+975267087+973690204
843+975817796+979353298+982928959+986903274+990770267+993230978+993913820
833+993686018+993358537+993293379+994216052+997012200+1002319181+1009193208
823+1014964376+1017146474+1015585505+1013127050+1014043457+1020556861
814+1030352277+1037476347+1037491822+1032739309+1029287385+1029734719
805+1031442167+1031006612+1029019549+1027924709+1027529689+1027263983
797+1029372153+1035644535+1042313252+1041849378+1031304083+1015804160
788+1002311224+994079095+991107584+992156500+994359838+993038011+985119328
778+973067759+963180871+959187823+959397894+960793275+962756280+964954918
768+966143548+966630665+968631763+973366608+979592815+984636596+986601230
758+985884243+984246338+982772894+981880419+982621590+986299813+991735543
748+993253909+987975685+982076457+982422858+987240654+988713660+985383718
738+983743182+988223097+997552008+1007226193+1012194290+1009404219+1001098161
728+993992009+993771788+999206391+1002894450+998999514+989671480+982194493
718+980988321+985137560+990751158+994438027+995847504+997355219+1000287071
708+1003009917+1003948064+1002964244+1000219282+997037574+996331426+1001580893
698+1012137591+1018915823+1012424285+996035584+981077349+972965261+970316218
688+971038092+972747358+972423197+969407454+965541402+961428188+956271947
678+951753689+951437047+956849095+966272924+975944603+981526124+979801195
668+973437780+971997917+976868466+979109896+973618593+962369343+950261387
658+943402083+947176539+961215360+975464816+976777746+966693254+957814559
648+954266840+952400631+950322973+949315721+950172735+950834713+946832706
638+937659359+928299185+922139263+918913762+916808224+914694917+913737723
628+915789756+920586251+923319559+917736034+906651181+899727534+900336948
618+903957782+903845635+896028762+885816085+879927821+882393606+891619957
608+901017221+909106880+916498912+917130630+906811194+891604795+880639043
##END=
