##TITLE=<SNM>
##JCAMP-DX=4.24
##DATA TYPE=INFRARED SPECTRUM
##DATE=29/4/2025
##SAMPLING PROCEDURE=Instrument type and / or accessory
##ORIGIN=Admin
##XUNITS=1/CM
##YUNITS=ABSORBANCE
##RESOLUTION=4
##FIRSTX=4497.3318
##LASTX=599.83466
##DELTAX=-1.4281778
##MAXY=2.107744
##MINY=0.38629365
##XFACTOR=1
##YFACTOR=1.9629896e-09
##NPOINTS=2730
##FIRSTY=0.3927632
##XYDATA=(X++(Y..Y))
4497+200084202+200615348+202417996+204233351+205287020+205465288+204644164
4487+202917290+201194303+200627448+201506204+203167020+204739431+205691076
4477+205981009+205912416+205687296+205278002+204763753+204332930+203896414
4467+203176798+202275770+201778814+202163498+203221478+204122233+204147496
4457+203379767+202496047+201972659+201834320+202067243+202632382+203045533
4447+202731916+201940033+201548000+201902396+202530617+202908621+202857260
4437+202352045+201560723+200907467+200765985+201220446+202040614+202607377
4427+202193012+200753733+199159794+198411999+198905417+200353016+201913767
4417+202512201+201720378+200346291+199607757+199842062+200352804+200315835
4407+199560449+198558202+197874051+197675925+197727392+197747235+197703328
4397+197784962+198210107+199088681+200305511+201375395+201639290+200929435
4387+199841865+199013681+198394980+197648642+196953787+196788439+197073802
4377+197287338+197435440+198065179+199100006+199707458+199588476+199308411
4367+199306696+199507494+199792554+200117542+200264975+199932320+199061338
4357+198081833+197735195+198362353+199561877+200791309+201803667+202271929
4347+201867234+201009005+200608501+200903003+201236676+200994445+200279565
4337+199677336+199639260+200108539+200633961+200815888+200641567+200414200
4327+200417221+200677792+201008868+201168736+200989374+200500161+199905827
4317+199357191+198944572+198912538+199494514+200511730+201537479+202418345
4307+203212460+203772240+203857472+203573476+203303356+203205507+203068337
4297+202694189+202225122+202003980+202265917+203012664+203962381+204601912
4287+204556532+203926809+203066333+202147693+201217258+200611917+200920599
4277+202218108+203601168+204112532+204030169+204431978+205541487+206417024
4267+206317095+205558521+204859780+204460475+204138645+203752063+203476750
4257+203496912+203759973+204242248+205107081+206360137+207618885+208333249
4247+208188123+207395784+206597418+206330395+206623258+207095710+207206463
4237+206556001+205338973+204293502+203937178+204160128+204633764+205165654
4227+205714776+206444489+207541274+208745322+209398684+209144794+208299590
4217+207429489+206895488+206844932+207225927+207702190+207868525+207584331
4207+206995690+206497747+206713394+207949704+209581689+210550353+210518122
4197+210029182+209580991+209101176+208397227+207747645+207711603+208343239
4187+209094678+209624503+210053109+210288993+209958403+209219611+208844689
4177+209258037+210043954+210597615+210932563+211522100+212455465+213199419
4167+213263093+212713971+212031125+211770114+212218336+213135366+213971293
4157+214305921+213959010+213004132+211888474+211151990+210902351+210937710
4147+211239591+211884922+212687342+213274373+213402632+213098336+212657964
4137+212531816+212997801+213892664+214788880+215470556+216093478+216804790
4127+217401675+217515981+216977426+215935842+214843900+214275922+214437641
4117+214969258+215559645+216343133+217253604+217625960+217070417+216173093
4107+215793115+216149682+216873444+217509529+217813839+217885848+218105639
4097+218760216+219645879+220068458+219426893+217995053+216917001+217029729
4087+217804669+217986581+217289737+216743743+217278093+218665312+219985625
4077+220659118+220783217+220703571+220554908+220312116+220143928+220337865
4067+220729229+220662139+219911263+219179743+219231711+219926308+220494225
4057+220563152+220444139+220452793+220539817+220676395+220986232+221363128
4047+221554620+221645409+221922057+222366771+222687888+222663642+222297571
4037+221887108+221874066+222398229+223210578+224094617+225005179+225784447
4027+226107825+225844188+225313816+225000852+225078038+225413062+225929496
4017+226613375+227201772+227268680+226635601+225469372+224141879+223137840
4007+222790337+223019177+223581037+224404879+225348386+225943100+225858095
3997+225411756+225217121+225464985+225862923+226193893+226596780+227192860
3987+227720439+227812883+227492601+227140300+227070022+227342283+227940640
3977+228860919+229931470+230724341+230832938+230264368+229412697+228566659
3967+227680161+226813384+226517029+227385111+229237162+231034238+231808085
3957+231584164+231161509+231068580+231118954+231051469+231069157+231417723
3947+231964597+232609716+233508345+234483613+234810378+234035574+232612448
3937+231547272+231763146+233529691+236048509+237742665+237590844+236274297
3927+235438689+235923606+236959496+237245725+236733435+236604751+237622469
3917+239019921+239145933+237367561+234874067+233296357+233148529+234084612
3907+236271974+240428426+246244662+251689270+254725161+254720910+251717266
3897+246527824+241483644+239234505+240707549+243872943+245296281+244769067
3887+245308062+248087239+250717190+251422202+251400385+250818865+248033600
3878+244041055+242189627+243838890+247651284+252053200+255596067+256119759
3868+253900104+252263746+252656583+252760869+250366423+246808966+244702676
3858+245613466+250763359+260649311+270091885+269641067+260732418+251208559
3848+245184602+243740479+246436822+251669716+257493740+262835960+267078266
3838+268800585+267052760+263213903+259334237+256276377+254032143+252613997
3828+252046778+252187775+253631168+257888080+264599848+269281251+268986141
3818+266779877+264867751+261442242+256056814+251550232+250314530+252793723
3808+257401190+261127213+263170331+265876208+269634023+270876739+268221692
3798+264666558+261753384+258594321+255238225+253116221+252818652+253820732
3788+255751259+258310719+260448239+261467718+262412288+264463937+266670536
3778+267005331+265381574+263825530+264566113+268605799+274694554+279831238
3768+282282117+282822053+282726588+283236160+286018069+291638274+297753324
3758+301189217+302506174+305511868+313379510+325868435+337347689+341764559
3748+341529236+342575466+346598330+349776128+349277669+348300548+350965859
3738+358798218+369826836+378917246+382081957+380404819+377753871+377015596
3728+379164653+383594641+388734757+393354916+397091415+399740693+401370523
3718+402956355+406191936+413016689+424513524+438184983+447466110+449068430
3708+446923319+446121916+449269411+456094771+463034604+465742394+464123344
3698+461452203+460176511+461454086+466014124+473646261+482248293+488008446
3688+488362432+484742622+480241764+477327224+477502487+481055009+487519005
3678+495989165+503254381+504528464+501158977+499181416+500182463+500589647
3668+498218323+495451414+494898968+496872156+499986159+502994767+506037778
3658+509487426+512276380+513828842+516936377+525667547+540696560+555061265
3648+558917156+552665285+543835006+537758154+535954216+536772471+537500483
3638+537777405+539497113+543187033+547489643+552706823+560889555+569784085
3628+571020152+563398976+555118107+551863852+554843493+562717178+571833366
3618+577841352+579783205+579326588+577285991+574401451+573099919+575327802
3608+579407539+581673195+581182631+579932961+579812233+581453480+584974940
3598+590158355+595184180+596552634+592985507+588400874+588182737+594295237
3588+603428551+609220708+608703302+604140470+598971509+595512295+594577381
3578+595488551+597137996+598922622+600453404+601802911+604360550+609546880
3568+615743975+618421917+616055026+612452068+611552619+613900259+617208987
3558+618764303+617639006+615213087+613967789+615445373+618847259+621610585
3548+622397868+622488111+623511081+625488642+627600595+629398035+630437099
3538+629982668+627834946+624847046+622276472+621140425+621524472+622417483
3528+623586567+626475479+631273694+634959849+634798737+632058062+629786029
3518+629196417+629616475+630172080+630526795+630788899+631115010+631553287
3508+632242130+632708160+631570170+628647371+626184347+626172566+628091706
3498+630139590+631475312+632717148+634565539+636857309+639071164+640851844
3488+641881555+641918235+641206255+640156503+638693616+636177333+632480550
3478+628998138+627346568+627769420+629497812+632473384+636937349+641174251
3468+642201655+639411001+635289544+632330247+631584866+633145223+636019135
3458+638678434+640325996+640579963+639171549+636869273+635523773+636357636
3448+638503354+640004196+640254215+640231078+640319377+639882253+639079666
3438+638740073+638622442+638172748+637740058+637226720+635562518+632859253
3428+630610964+629911616+630668778+632055997+633251740+634097020+635250435
3418+637134292+638966286+639298410+637288360+633857142+631103168+630102303
3408+630094408+630017708+630054874+630849870+632294174+633726030+634462301
3398+634049408+632368202+629500180+625944652+623169180+623015901+626014186
3388+630697381+634842643+637288178+638193153+638090339+637543601+637256781
3378+637336396+637113583+636696500+636959272+637806495+638487261+639149443
3368+640478789+642609628+645282044+648056119+650006049+650318193+649422387
3358+648340267+647422357+646728717+646388334+646365804+646714871+647673348
3348+648917977+649205344+647739542+645740969+645442063+647288997+649193563
3338+649223320+647756364+646239124+645563460+646162303+648231381+650894323
3328+651983245+650223092+647226508+645588723+645901474+646885396+647811323
3318+649594370+653162348+657256842+658636349+655698793+651070922+648603829
3308+648926479+649605484+648664861+646611390+645577731+646952683+649605848
3298+651108573+650961064+651089808+652977430+655784967+657426881+656713565
3288+654397504+652458020+652444052+654603920+658366654+662624871+665444796
3278+665123482+662455196+660679011+661515120+662731389+661483541+658344427
3268+655693753+654451370+654694223+656956843+660799010+664032860+665214271
3258+665378056+666068417+666953534+666546835+664612392+662421674+661114494
3248+660959333+661545180+662110380+662322565+663049242+665451598+668958240
3238+670982683+669588784+666089550+663379422+662313517+661528419+660257677
3228+659252986+659016873+659351851+660165309+661238320+662083477+662671389
3218+663344443+664113022+664510793+663592518+660648768+656516137+653448683
3208+652559740+652641420+652313790+651370191+650350197+649641071+649077571
3198+648630185+648723100+649069069+648253061+645568379+642359427+640432878
3188+640530833+642707644+645887507+647241629+644518080+639121569+634911388
3178+634300095+636460510+638680013+638841611+636801925+634137100+632741136
3168+633019333+633653520+633680119+633830240+634949465+636279296+636174539
3158+633930684+630562382+627960654+627219888+627569623+627498996+626569547
3148+624883119+621838620+617461132+613773094+613009737+615109727+617572994
3138+618376795+618375156+619410029+621140789+621451962+619693388+617362509
3128+615683246+614678251+614180764+614084206+613914470+613057409+611279827
3118+609080850+607517883+607020577+606791388+606182525+605771211+606032101
3108+606194063+605790827+605725483+606508454+607045840+606324690+605239959
3098+605380484+606687239+607390778+606142383+603620149+601463682+600010997
3088+598219691+595730432+593575908+592641176+592728747+593213117+593671191
3078+593967243+594263719+594627178+594548353+593583500+592224944+591581283
3068+592220510+593324128+593346051+591914075+590542827+590553879+591158977
3058+590738129+589236194+587925188+587408814+587212965+586734850+585663600
3048+583948690+582017040+580870912+581329472+583087986+584914879+585673803
3038+585177105+584251118+583657801+583055800+581741636+580026240+578930942
3028+578640842+578118942+576754131+575325373+574677826+574590073+574420823
3018+573804672+572497310+570734242+569527933+569376233+569347326+568600488
3008+567863791+568229498+569294978+569407022+567582437+564702330+562450398
2998+561475038+561260302+561462042+562271006+563423449+563914803+562981832
2988+560858037+558422888+556379983+554818716+553432164+552089215+551114099
2978+550919160+551371891+551852314+552123587+552598970+553431982+553925340
2968+553155181+550941812+548177454+546272281+545941493+546647279+547570898
2958+548479517+549077692+548569395+546729688+544607411+543487093+543555716
2948+543813022+543207135+541805522+540576379+540047373+539733589+538968532
2938+537600685+535657254+533170606+530759201+529559572+529977626+531045475
2928+531585958+531514845+531368551+531227964+530906832+530524061+530141897
2918+529455969+528252271+526832744+525726454+525146436+525028198+525327771
2908+525888538+526255277+526044367+525324128+524319801+523107904+521898619
2898+521158946+521050242+521101801+520757228+519920268+518767825+517498965
2888+516468100+516004499+515894216+515571262+514872096+514003800+512944089
2878+511609035+510384082+509822587+509938517+510145237+509876088+509192347
2868+508640902+508417057+508041998+507142884+506071361+505365575+504947824
2858+504188232+502762481+501253743+500525974+500616246+500857429+500911356
2848+500861863+500648068+500228829+499732192+499104078+498217321+497216243
2838+496282027+495421566+494821843+494799525+495160920+495251314+494756863
2828+493942889+493176102+492613757+492273981+492138708+492086482+491832516
2818+491118744+489974711+488633493+487198966+485572537+483774095+482251208
2808+481658589+482106249+482785496+482732086+481830056+480661884+479665117
2798+478882844+478258708+477786999+477443732+477109756+476563534+475657800
2788+474578686+473750077+473441272+473542901+473679267+473532426+473048116
2778+472252604+471054341+469500847+468005591+466927236+466178637+465648508
2768+465564004+465974195+466325387+465984883+464930698+463701949+462853239
2758+462529313+462416267+462052383+461272721+460359547+459699095+459308368
2748+458804018+457900835+456785344+455830997+455145464+454638837+454306804
2738+454135155+453966118+453765046+453687860+453612253+453082124+452003526
2728+450870637+450062524+449438236+448775385+448126350+447571717+446949433
2718+446035105+444935344+444079528+443639368+443208561+442359668+441255929
2708+440361278+439800208+439309734+438628483+437768173+437025100+436762085
2698+437059685+437534763+437599348+437035879+436243100+435695269+435323611
2688+434733543+433874296+433168116+432985262+433127853+432912540+431843993
2678+430159507+428586246+427649358+427330503+427270291+427169785+426997195
2668+426830982+426663675+426484131+426364557+426317735+426227796+425987615
2658+425575057+425063086+424631458+424404789+424262078+423939184+423274815
2648+422375852+421646443+421457365+421658892+421698669+421253591+420416783
2638+419398701+418442866+417844934+417697819+417731372+417568771+417090596
2628+416524181+416169224+416035348+415866735+415524075+415132862+414841487
2618+414638351+414427957+414152098+413815784+413451049+413106020+412812550
2608+412524394+412229223+412124892+412404941+412812490+412801589+412247017
2598+411591028+411247244+411236769+411376657+411455027+411245605+410676276
2588+410007261+409593488+409458063+409345321+409158642+409005151+408836781
2578+408456621+407890146+407391474+407142093+407147619+407248004+407197447
2568+406968835+406817075+406835020+406804109+406661488+406640628+406825880
2558+407042498+407180382+407207224+407008096+406580932+406192847+406073242
2548+406137432+406134153+405915652+405562334+405335635+405427608+405721503
2538+405894610+405706260+405117103+404321257+403743456+403753811+404290863
2528+404925080+405269592+405204158+404848076+404510032+404524606+404916973
2518+405298955+405271445+404878016+404496702+404396044+404628482+405163136
2508+405776189+405998789+405593275+404940050+404624140+404847408+405433225
2498+406091764+406513402+406515983+406242644+406010601+405964417+406023931
2488+406067200+406021107+405893850+405815480+405933051+406212067+406417208
2478+406332310+405976441+405587840+405401373+405458883+405633599+405789762
2468+405894184+405998911+406114538+406135276+405978384+405761128+405711453
2458+405929954+406310721+406622167+406657207+406423888+406152918+406015975
2448+405947777+405839134+405738325+405744367+405851553+406038293+406387482
2438+406927297+407428306+407617718+407578791+407646898+407894245+407992382
2428+407657222+407050879+406626752+406641357+406918552+407071891+406853390
2418+406323960+405848608+405865551+406452400+407190737+407617354+407696635
2408+407750501+408063799+408617521+409130069+409362871+409378873+409441484
2398+409718406+410158080+410617825+411063055+411594581+412255458+412887580
2388+413218034+412985262+412017433+410372299+408377735+406356328+404308352
2378+401955581+399076021+395761128+392407309+389507344+387345867+385785541
2368+384463999+383334177+382793603+383129735+384148363+385464014+386925596
2358+388763724+391357800+394825667+398961699+403274542+406767672+408251450
2348+407216000+404318130+401098854+398870333+397775794+397397304+397646868
2338+398458564+399180139+398989938+398003283+397375321+397985247+399428883
2328+400586792+400840637+400516469+400418757+401055859+402265569+403611160
2318+404883724+405988890+406722915+407028804+407214269+407653518+408484799
2308+409676321+411071921+412345397+413228965+413790946+414287189+414845404
2298+415465472+416167098+416913572+417480836+417653821+417599955+417805096
2288+418473777+419189826+419412001+419137022+418758806+418460356+418116086
2278+417685370+417331171+417103561+416802257+416300974+415796594+415567557
2268+415645987+415858112+416021198+416027939+415931988+415962777+416288980
2258+416834595+417452780+418148455+418963309+419738355+420185438+420246835
2248+420262472+420620345+421260453+421675866+421448134+420640476+419594034
2238+418511671+417409389+416391459+415735683+415603963+415804185+415990591
2228+416043303+416106430+416307776+416608806+416910809+417156304+417309491
2218+417337366+417244846+417104927+417031871+417104229+417339218+417733922
2208+418265205+418876528+419560816+420416965+421502547+422686114+423771635
2198+424705243+425547881+426332037+427048238+427679844+428159295+428400872
2188+428463119+428579687+428947398+429545573+430181005+430644788+430864868
2178+430972357+431147559+431371009+431450229+431327862+431214057+431340007
2168+431713578+432229922+432919584+433880976+434972570+435822616+436285094
2158+436678827+437371890+438267027+438940262+439279188+439685583+440501287
2148+441539106+442431419+443163804+443946988+444820385+445698852+446646367
2138+447876088+449542749+451584682+453728093+455696787+457425604+459028471
2128+460649070+462431024+464515407+466900182+469316233+471381455+472942753
2118+474152645+475132742+475773275+476071360+476395984+477079969+477984640
2108+478825365+479715158+481017874+482823452+484909656+487092357+489254381
2098+491086406+492148303+492262108+491669976+490770648+489761828+488494516
2088+486655447+484119791+481039311+477586231+473837647+469969549+466371996
2078+463486576+461544571+460380529+459509986+458557795+457610826+457004027
2068+456832652+456827126+456632582+456103607+455371343+454706671+454383808
2058+454598969+455275180+455953183+456215195+456204477+456378950+456899635
2048+457641069+458571003+459742425+461102742+462553271+464078587+465819337
2038+468125591+471322730+475234705+479179867+482642663+485731980+488843067
2028+492114113+495368763+498421764+501244179+503843477+506106887+507825016
2018+508853270+509215272+509046022+508499587+507733650+506847106+505748133
2008+504280843+502587552+501055708+499830846+498737369+497698822+496825577
1998+496132180+495639095+495648448+496383474+497420078+497988254+497860815
1988+497539592+497646687+498428049+499695269+501082428+502402786+503745188
1978+505252164+506945212+508722491+510415964+512015855+513869226+516314942
1968+519054584+521267650+522532259+523310069+524338809+525881008+527794318
1958+530110622+533083097+536572613+539832820+542177545+543648812+544862045
1948+546450580+548790689+551929682+555487943+558756165+561233157+563035273
1938+564557006+566084691+567914682+570303071+573037672+575521101+577492103
1928+579353126+581729005+584821783+588090187+590745234+592727471+594474386
1918+595653975+595456365+594396471+594168982+595607093+597917202+599797476
1908+600742775+601083583+601201821+601197753+601180627+601460767+602361127
1898+603915289+605631050+606606045+606553029+606521693+607499603+608759718
1888+608953321+608309781+607978204+608107981+608056787+607602963+606979950
1878+606337929+605728155+605292914+605439148+606861408+609822162+612886276
1868+613186214+609611131+604410348+600307959+598033619+596609537+594802198
1858+592208061+589391537+587214422+586065683+585804247+586137525+586819141
1848+587944621+589962445+592331401+592550144+589096700+584189903+580751945
1838+579411729+578894262+578032404+577351456+578230257+580400509+581326922
1828+579540413+576615610+573992627+571132682+567599562+564309174+562102424
1818+560858098+560197858+560141199+560843402+562078983+563200758+563685189
1808+563645473+563643408+564287615+566027910+568708402+571179443+572203992
1798+572135308+572821418+575783873+580636682+584390854+583883710+580387514
1788+577966514+578438374+580537938+582539851+584359214+586426410+588435611
1778+590524790+594133638+600685144+609574876+616856763+618165157+614396653
1768+609629775+606353840+605588601+607730554+611563733+614450034+615510717
1758+616117394+616833564+617561152+619739724+625138239+632662067+638321715
1748+640111382+640038994+640291745+641351274+643174828+645493500+647211994
1738+648270005+651358957+658607199+666157384+666913939+662123376+657402894
1728+654762543+654045218+655054282+657356254+660649983+666004105+675038979
1718+686663616+694973696+695351730+690585398+685512084+683070011+684797553
1708+690756895+698550479+704424802+707999581+713076661+721788581+730292505
1698+734085907+733868803+730473537+724983625+721328745+722128903+726344792
1688+731934724+739244363+749060508+757079880+757713581+753638764+750274469
1678+750601188+755374686+762462910+768534235+773715525+779732984+784136160
1668+782824730+778363376+776475511+778412323+780852999+781009132+780576867
1658+782825155+789631052+801426944+814399935+818301069+813643987+811361752
1648+813993844+816305289+812861562+806117912+801282956+800347678+803521164
1638+810141717+816794093+817017087+809859269+802138499+798136069+797702529
1628+799126550+800895327+802097143+801499635+798358943+794930215+794662342
1618+797671436+798994344+794164612+786690763+781877913+780514377+780310694
1608+779271509+777681335+776620166+775821283+774188599+771741365+769970645
1598+770116940+771726547+773147350+773459190+773334089+773594857+773915989
1588+773428765+771813935+769584291+767794077+767384342+768808788+772520389
1578+778827463+785278462+786297425+781883318+778400845+778612302+779247096
1568+776658546+772446179+769607610+769269110+773254353+785132350+804243225
1558+815113129+806996349+792409924+780986784+774594873+772250755+771833490
1548+772323386+775058595+781917872+793199151+807394606+819834887+821614109
1538+812553061+803871081+801309495+802620500+802989365+802176090+804326058
1528+811036794+819399828+826401332+832875773+839747620+844487111+846032771
1518+847096672+848205695+847523411+846089248+847693633+854685237+866907139
1508+882264207+893888177+893450628+885591822+879820859+879831730+885258362
1498+892657272+896457901+894575684+891514484+892668993+899691812+909391601
1488+915926770+917110610+915611104+914296394+914190058+915652460+919577156
1478+926693072+936144117+945828421+953807044+957742186+955616995+949754514
1468+945095975+944704276+948389885+953030692+956222639+959489708+965324861
1458+972408954+974709651+970115120+963994422+960289866+959774949+961546155
1448+963254932+963224993+962309390+962010788+963102078+966588923+973488706
1438+982403762+988573346+990097326+992656119+1000316283+1009036462+1011667643
1428+1007875273+1003717865+1002427203+1002744084+1003577279+1005979028
1420+1010502932+1014342730+1014333317+1011361936+1008084543+1005954615
1411+1004692192+1003601327+1003050581+1003545882+1004006325+1003249041
1402+1002535664+1003765840+1006261658+1007746954+1007842844+1007855779
1394+1007757642+1006539308+1005121967+1005903846+1009270448+1012254704
1385+1012183288+1009878522+1006945885+1003894342+1002108318+1003947661
1377+1009932935+1017335671+1022167833+1023545639+1024822030+1029060267
1368+1035861974+1042397447+1046633984+1049193445+1051722906+1054126173
1360+1054129574+1050675826+1046269735+1043325013+1041043931+1038557466
1351+1038484835+1044327397+1055324345+1065357776+1068189422+1064664986
1342+1061416015+1062757870+1066911331+1069149296+1067063881+1062354998
1334+1058276840+1056657334+1057167089+1058272104+1059280196+1061124397
1325+1064159847+1066736069+1067730072+1068071852+1067986832+1066768862
1317+1065309801+1065092757+1065535832+1065539233+1066271253+1069113709
1308+1072480250+1073741823+1072897576+1071245277+1068709257+1064658913
1300+1059834768+1055949241+1054161517+1054457507+1055587299+1055926164
1291+1054504511+1051355134+1047192929+1042110323+1035042261+1025724697
1283+1016191911+1008881179+1003950759+999686651+995139669+990891654+987506044
1273+984508124+980541889+974364471+966468438+959370316+955047848+952396687
1263+948370088+941668280+933983582+927218616+921271237+915234891+909404779
1253+904756503+901009801+896524095+890122285+882149309+873611376+864954173
1243+855950454+846710925+838473659+832555855+828590592+824894598+820712534
1233+816973302+814603921+813260669+812087517+810823819+809717772+808839335
1223+807943955+807010681+806492971+806925236+808532110+811104020+814025058
1213+816669964+819074871+821969309+825803460+829954917+833303787+835563006
1203+837578158+840243650+843685556+847545273+851337096+854286980+855630050
1193+855644382+855979239+858607080+864013490+870192669+874429206+876436403
1183+878377344+881970707+887495659+894920803+903831912+913074173+921866072
1173+930317831+938236637+944687637+948954660+951184851+952566119+954787080
1163+958503842+962590016+965392391+966555462+967132503+968258105+970311333
1153+972541646+973076724+970896391+968123591+967819463+969042777+967670254
1143+963451024+961788522+967254810+978384815+988685269+992758386+991366672
1133+988606443+986297487+984353266+984100150+986583518+988761847+986425928
1123+981042291+978031679+979700861+984984539+992552881+1000306020+1004455837
1113+1002973820+998623478+995694545+995576125+997152817+998925905+999243758
1103+997568686+994996290+993362573+994734854+999456186+1004965288+1006723012
1093+1001773948+992559743+985237473+984089644+987996608+991517400+990713477
1083+987166451+983777014+981392937+980804843+982539004+984153652+981892125
1073+975273029+966705157+959111309+954838820+954304896+955935880+957582471
1063+958043217+957268383+955478109+952632496+948883608+945255387+942834994
1053+941486945+940390067+939276551+938255949+937561337+937981638+939195114
1043+939794929+940854944+945274942+952442658+957186582+956121405+951801791
1033+948287376+946656149+946227649+947045236+949579981+952842920+953707207
1023+949828299+943739787+940802292+943150418+947826872+950606656+950638902
1013+950039148+949527268+947206410+941562916+933221926+923787823+914701270
1003+907132989+901420507+896616038+891548371+885994269+879974199+873307127
993+866538457+860865267+856991582+854703395+853242755+851749685+849614656
983+846773779+843843693+841780080+840898424+840178853+837941921+833715222
973+829011622+825351458+822359611+818481250+813223382+808026424+804624539
963+803411124+803597439+804194885+804791663+805867771+808530045+813340102
953+819008919+823188251+825318118+827609888+832266363+838802807+844865692
943+848861805+851163231+853733926+858726593+866336717+874576412+881911982
933+888937230+896561018+904167437+910387608+914256495+915473432+914307203
923+911553169+908187477+904934194+902569671+901994391+903137239+904425654
913+904083631+901856659+898675217+895044082+891431772+889661660+891801608
903+897402289+903263008+906709347+907884381+908291869+908964497+910509915
893+913392208+916817656+918678740+918263054+918175240+921304212+926855642
883+930931613+931015844+928607961+926742626+926285827+925619029+924072154
873+923167543+923996972+925798178+928121101+932376889+939284871+946233844
863+949454333+948168773+944519662+940908628+938922018+938779914+939014447
853+938577141+938550178+940133186+942728902+944851361+945264800+943011714
843+938827221+936404156+938755197+944793729+951024953+954864812+956194522
833+957773704+963071410+971342259+977026745+977316966+976114664+976970935
823+979142281+981841599+986574652+993332270+999228880+1002500442+1002935986
813+999232402+992271040+987321673+988275898+993240448+998387123+1003470275
803+1009025956+1012276688+1011170459+1007406085+1002361374+995583473+988166223
793+982751675+979300964+974895419+968683872+962664773+957450811+952592415
783+949346480+948769742+949078181+946970722+940740045+932134401+925480325
773+924397537+928546807+934275625+938763760+941296014+941034396+937681518
763+933549616+932385270+935937033+942415665+948543164+952728932+955336004
753+956523852+955090661+949724696+941662814+935257907+935251045+943123940
743+955392421+965609070+969259517+967197179+963855840+962502263+963339830
733+965282351+968025879+971316207+973694454+974789934+976125838+977420629
723+976729783+974211314+972308024+973415103+977335792+980318955+978157933
713+971559667+966228986+965786640+967284203+965617875+960822090+958376373
703+963456186+975420781+984944883+981760101+968697293+956529561+950808821
693+950442507+952708224+955463109+956495553+954221455+950044189+947394728
683+946168743+942349228+935688715+931344142+931965940+934298701+935666245
673+937640830+938606230+932759782+920603285+913163444+914860318+918807666
663+920583791+920063652+916784377+913257269+914030950+918689307+922841431
653+922567364+918757991+916990003+920141324+925100347+927195721+925745101
643+924077255+924391160+927285842+934208155+943069528+946541433+940732697
633+931447744+926708558+925376054+918798921+904615491+888534844+876326059
623+869777408+866467162+863661204+861199273+860361099+862331191+867839503
613+874043641+875678633+872595268+872704276+881002088+888824822+886623537
603+883462319+894686574+916428205
##END=
