##TITLE=<SNM>
##JCAMP-DX=4.24
##DATA TYPE=INFRARED SPECTRUM
##DATE=29/4/2025
##SAMPLING PROCEDURE=Instrument type and / or accessory
##ORIGIN=Admin
##XUNITS=1/CM
##YUNITS=ABSORBANCE
##RESOLUTION=4
##FIRSTX=4497.3318
##LASTX=599.83466
##DELTAX=-1.4281778
##MAXY=2.1977363
##MINY=0.62203717
##XFACTOR=1
##YFACTOR=2.0468014e-09
##NPOINTS=2730
##FIRSTY=0.63513952
##XYDATA=(X++(Y..Y))
4497+310308331+311552578+312707279+312262050+310711393+309450663+308977361
4487+308880622+308797394+308706683+308551847+308003588+306839103+305492874
4477+304883316+305668473+307786813+310499859+312619567+313015669+311594949
4467+309690794+308872759+309434384+310389724+310894680+311044885+310912589
4457+309839048+307530083+305080289+304054536+305020999+307307745+309665895
4447+311073540+311405110+311327183+311331580+311295325+311287345+311982082
4437+313423041+314202461+312982821+310406672+308508865+308423919+309449236
4427+310307836+310591881+310626826+310542696+310118637+309307971+308400710
4417+307855567+308274908+310054746+312621198+314538837+315043239+314897140
4407+315036600+315156228+314476139+313267681+312430631+311909862+310843835
4397+309339305+308758168+309816479+311623022+312971726+313503968+313342522
4387+312595950+311414604+309884622+308142320+306879930+306836569+307587043
4377+307941677+307758798+308166112+309661585+311220367+311759744+311488250
4367+311237432+311254876+311143867+310565322+309600577+308511020+307565640
4357+307086456+307250028+307896802+308805315+309847784+310660781+310835302
4347+310646774+310641153+310585154+309961559+309061055+308458107+308047153
4337+307500467+306940822+306586596+306337234+306007760+305600825+305372226
4327+305736790+306840268+308136059+308713788+308352311+307861042+307899627
4317+308116490+308164073+308506098+309171743+308969965+307292224+305595205
4307+305633761+307107452+308221354+308096280+307542023+307564824+308308513
4297+309257446+309661207+309136827+308205076+307779212+308067480+308543664
4287+308738949+308391245+307326645+305868737+304763658+304408442+304689371
4277+305323915+305980707+306477800+306979262+307655769+308359766+308940320
4267+309431530+309814383+310113600+310445141+310657927+310461565+309917179
4257+309258232+308476133+307611651+307113014+307380984+308197388+308876166
4247+308845851+308110811+307331682+307351223+308366667+309787184+310980936
4237+311595794+311260816+309809345+307810575+306164227+305191531+304718026
4227+304775656+305454056+306386448+307053695+307296534+307223731+306936192
4217+306526752+306172701+306078757+306392156+307233632+308579949+309868198
4207+310116453+309071393+307829824+307512174+307788705+307539285+306560562
4197+305789732+305986618+306966157+308137923+309199408+310175627+311154758
4187+312104244+312690389+312306110+310789524+309061841+308282566+308480181
4177+308802403+308804907+308713992+308636880+308294622+307703964+307495429
4167+308214423+309613332+310884808+311467953+311447976+311190256+310771032
4157+309982061+308883068+308056326+308069547+308748675+309195215+308760848
4147+307940746+307806207+308591364+309496790+309915112+309978362+309814674
4137+309337703+308833271+308754499+308980914+309072790+309075120+309389247
4127+310005095+310315786+309644637+307931252+306074622+305319576+306068273
4117+307641179+309233421+310560867+311485629+311682254+310943253+309500110
4107+308138389+307841676+308771244+309845891+310052679+309726350+309752675
4097+310148515+310211999+309663886+308933709+308492295+308448847+308766293
4087+309384762+310054834+310424028+310363631+310036866+309823119+310235296
4077+311339530+312230075+311922268+310652918+309338198+308256707+307288787
4067+306753371+307063363+307960402+308694044+308775787+308277616+307614796
4057+307198105+307113072+307046036+306651506+306072292+305926746+306451242
4047+306967235+306653253+305520422+304326204+303906951+304646796+306048151
4037+306877950+306401358+305356996+305062205+305767833+306542507+306720639
4027+306742713+307276265+308120363+308556768+308433937+308242350+308438305
4017+309198709+310361535+311174589+310720013+309111026+307541586+306767058
4007+306474393+306382022+306910536+308418240+310511944+312360857+313329068
3997+313226155+312186103+310444442+308406272+306921602+306877106+308165908
3987+309545713+309959754+309694434+309777428+310500208+311125637+311104146
3977+310972636+311631554+313058623+314129368+313823191+312435261+311270251
3967+311218387+312009543+312773180+312926705+312584739+312366041+312641553
3957+312968493+312677634+311948477+311726517+312650086+314435632+316105889
3947+316650449+315712029+313830151+312066533+311222901+311134636+310953300
3937+310399042+310258854+311311487+313152421+314430361+314292503+313324118
3927+312740739+312972774+313383612+313378865+313291502+313811950+315191028
3917+317061811+318314736+317713973+315443768+313145781+311976695+311646872
3907+311786798+312967503+315547584+318509264+320489833+321179735+320817151
3897+319711082+318630290+318466514+319206418+319342004+317325180+314228175
3887+312778742+313971737+316109995+317588112+318657402+319091943+317830049
3878+315736433+314999471+316259589+318452158+320638000+322259101+322427623
3868+321309993+320600143+321208216+321880384+320879179+318445926+316255687
3858+315625802+317349146+321849923+326945814+327926954+324881843+321315905
3848+318990282+318075683+318398051+319774566+321837809+324213519+326578367
3838+328085576+327776574+325964266+323803963+321963698+320579205+319883769
3828+320067464+320899243+322291599+324599254+327205135+328037293+326892960
3818+326092601+326317706+325816390+323808535+321486495+320014522+319957387
3808+321381630+323492777+325427160+327327181+329117008+329647212+328809666
3798+327964054+327536939+326762352+325548449+324773834+324811254+325335400
3788+326521435+328923937+332057983+334808712+337318494+340514510+343964227
3778+346251031+347410246+348846808+351750770+356679973+363120287+369270033
3768+373886536+377450524+380418465+382539979+383989965+385125388+385730170
3758+385922397+386817369+389367484+393850206+400292413+407531076+413030727
3748+416555984+420690827+426573098+431167440+432343108+432986971+436294461
3738+442909297+450654809+455966514+457475907+457172643+457604592+459453011
3728+461610722+462615392+462420399+462408430+462968104+462829693+461159494
3718+458616485+456344532+455579876+457556659+461844300+465440728+466253113
3708+465291367+464054720+463484126+464590253+467401786+469816693+469878866
3698+468372094+467422666+468221946+471010503+475975583+482374749+486781058
3688+485652886+480353178+475119604+472831926+474300288+478341567+482559900
3678+485240360+485733376+483851673+481275698+480745786+482575217+483889064
3668+482330864+479145536+476350747+474527722+473427710+473210993+474380079
3658+476477044+477736435+477283285+476917585+479305526+485363541+491846605
3648+492961410+488248255+482605008+479280424+477831340+476712108+476003131
3638+476857101+479257797+481900021+484143406+487046524+491622141+495712517
3628+494935572+489801679+485005150+483178427+484099491+486409883+488890836
3618+491156498+493541789+495847754+497254759+497796232+498873122+501176641
3608+503107705+503034320+501894005+501597263+502341360+502730007+502194358
3598+502062848+503663389+506496093+508962981+510533819+512166917+514596996
3588+517017698+518146714+518285679+518419460+518375604+517619976+516366904
3578+515109698+514198156+514003571+514343528+514173928+513255863+513312241
3568+515900446+519736073+522198709+522652412+521753334+519737587+517339192
3558+516164398+516841458+518374614+519519938+519868049+519849586+520232118
3548+521234225+521919614+521215530+519389826+517675829+516987528+517492601
3538+518695817+519741257+520147609+520143066+520076554+520099210+520446448
3528+521185186+521541218+520367122+517871230+515950243+516023802+517127134
3518+517017639+515217911+513701762+514263329+516530797+518550038+518560929
3508+516691835+515091760+515638591+517591961+518569782+517942868+517024046
3498+516461897+516002428+515783730+515968473+515932945+515247498+514692862
3488+515248313+516647105+517713803+517669248+516408955+514049465+511188514
3478+509110623+508705901+509468868+510189726+510406211+510409473+510205219
3468+509487972+508189821+506549501+505080586+504339168+504221170+503763099
3458+502386031+501062371+501108091+502108568+502375781+501346882+499975522
3448+498938295+497993788+496770711+495145417+493310802+491972116+491791333
3438+492593672+493782211+495123868+496440655+497161688+496812238+495572912
3428+494122401+493136718+492864612+492966885+492968399+492740965+492153480
3418+490908214+489328406+488442316+488888681+490365575+492167691+493661417
3408+494326829+494030088+493172886+492105489+490820560+489679779+489505636
3398+490269826+490684507+489802203+488094817+486404146+484986921+484037464
3388+484048967+485140242+486594655+487567671+488008910+488544647+489758347
3378+491662619+493603350+494917575+495733601+496616254+497652375+498551162
3368+499303994+499966320+500254325+500102431+500001206+500280942+500526372
3358+499899516+498201653+496594763+496478862+497697338+498944235+499862475
3348+501342164+503697868+506005523+507310720+507332852+506262660+504837252
3338+504112317+504520067+505488860+506108669+505811753+504497586+502555049
3328+500788751+499954613+500191424+500974834+501662086+501949276+501872339
3318+501506639+500750778+499627819+498772131+498943478+499859854+500525149
3308+500803253+501292251+501807749+501545661+500644661+500174650+500576460
3298+501118982+500956837+500271914+500201092+501515841+503430946+504234683
3288+503512019+502890871+503813595+505636969+506733603+506826790+507091615
3278+508387669+510343543+511780716+511682754+510027057+507830120+506277104
3268+505680068+505283733+504301253+503071828+502690228+503532636+504795143
3258+505514894+505429279+504751054+503796938+503056219+502922263+503108345
3248+502924418+502174322+501287767+500797837+501033308+501906702+502771592
3238+503014867+502823543+502500593+501673094+500397134+499860960+500774540
3228+502152657+502685743+502304260+501706874+501342863+501097840+500270342
3218+498203225+495424162+493427752+493161063+494283731+495703548+496328424
3208+495670292+494184894+492704913+491536060+490641233+490379670+491091093
3198+492006769+491724705+489980597+487862578+486425579+486051551+486618738
3188+487385345+487328501+486293079+485112374+484377566+483841772+482907283
3178+481336474+479814908+479488201+480446190+481353538+481155051+480330377
3168+479907658+480109961+480270621+479458993+477274869+474359666+471914299
3158+470720896+470671158+470872354+470326891+469063045+468238167+468616214
3148+469626126+470350246+470657267+470826954+470803774+470413613+469784427
3138+469061472+467971769+466162810+463963601+462278580+461582970+461496743
3128+461310107+460422911+458564183+456277758+454873433+455175271+456547912
3118+457704448+458220877+458621406+459164569+459381228+459014130+458681308
3108+458991794+459416173+458729881+456642992+454340026+453070094+452817092
3098+452789747+452655587+452575330+452403837+451719409+450598926+449673872
3088+449345330+449472588+449835959+450351777+450808392+450905423+450641238
3078+450330198+450200960+450163306+449849267+448897539+447504920+446389969
3068+445838973+445280115+444281851+443395237+443341946+443915598+444345072
3058+444353401+444242218+444125530+443775293+443272522+443109852+443422931
3048+443691076+443534085+443302982+443407759+443567137+443213464+442335412
3038+441403369+440543051+439431420+438129338+437255159+437021114+436749126
3028+435747950+434240042+433070082+432773427+433107356+433413941+433386713
3018+433260765+433224160+433155814+433047426+433013704+432810877+432051055
3008+430865981+429763639+429009176+428598601+428499007+428555735+428502764
2998+428300578+428220990+428507627+429104634+429698176+429963409+429818445
2988+429402366+428822628+428067989+427193315+426459614+426168056+426307807
2978+426445432+426117386+425294255+424260843+423252795+422562542+422559397
2968+423059432+423203435+422567056+421845703+421857089+422488750+423045803
2958+423012314+422243407+421036230+420085900+419867580+420167176+420488467
2948+420592719+420452764+420070640+419493785+418829858+418264389+418028772
2938+418101370+417989080+417134528+415609555+414200804+413657205+413888046
2928+414131642+413935600+413547215+413334021+413393078+413696401+414065246
2918+414072585+413386089+412169070+411055517+410711832+411153479+411582954
2908+411325205+410682129+410384281+410615005+411030065+411278379+411196141
2898+410878374+410656677+410708862+410773830+410525255+410043887+409623847
2888+409306080+408883915+408191042+407183838+406023663+405243136+405338332
2878+405970022+406163996+405517192+404561766+403825619+403316179+403050014
2868+403294746+403996966+404517560+404283399+403430915+402578838+402193918
2858+402307548+402595320+402633498+402276039+401804514+401552793+401489921
2848+401318137+400884964+400368855+400019434+399771265+399342956+398803579
2838+398692017+399305128+400154904+400489619+400175056+399714596+399508275
2828+399428367+399178277+398769595+398406690+398089943+397671214+397188011
2818+396790890+396450263+396051394+395658437+395405464+395284438+395228904
2808+395168275+394912593+394330613+393656523+393231096+393016475+392783799
2798+392620751+392783013+393165661+393315255+392949643+392242326+391606792
2788+391330697+391387279+391505189+391424349+391108941+390658791+390072005
2778+389306942+388522221+387969828+387697111+387575880+387466706+387191834
2768+386650477+386057984+385711708+385532760+385185610+384573315+383941916
2758+383602221+383695728+384064194+384307354+384142995+383657143+383109758
2748+382671634+382431998+382406430+382408207+382140731+381574534+381043690
2738+380788853+380587628+380095573+379412047+378955665+378853858+378846666
2728+378761225+378700217+378771301+378918332+378987290+378823922+378407465
2718+377902072+377442836+376985259+376521975+376271885+376450396+376948975
2708+377409492+377583460+377491875+377218168+376741518+376089647+375440135
2698+374909582+374475215+374192247+374179463+374324077+374302674+373959368
2688+373487260+373208835+373245003+373427329+373517662+373388802+372972054
2678+372285296+371574368+371131964+370935893+370728640+370394361+370021381
2668+369717330+369536082+369476267+369505592+369638412+369863808+369979447
2658+369754168+369276440+368858788+368628996+368504154+368474480+368597341
2648+368760884+368740907+368487788+368175904+367999956+368023806+368160557
2638+368225089+368070195+367729306+367383321+367156440+366992490+366797555
2628+366639370+366670005+366886344+367118612+367254345+367322983+367332680
2618+367175980+366802272+366359023+366007127+365706629+365349927+365010436
2608+364890167+365059242+365346636+365499463+365473749+365494337+365696465
2598+365833100+365580390+365007233+364454285+364139110+364140391+364484921
2588+364997069+365339123+365377737+365257963+365095323+364894739+364708045
2578+364593774+364502626+364372019+364218435+364070035+363941350+363852444
2568+363772391+363643386+363531911+363583047+363766014+363871198+363813044
2558+363716333+363651394+363522563+363320406+363247749+363404886+363517991
2548+363237994+362644773+362207989+362255193+362667778+363094748+363311524
2538+363363912+363482318+363850843+364368903+364667479+364446248+363771197
2528+362994165+362435219+362169607+362068063+362019227+362092553+362406884
2518+362847366+363067375+362875934+362529687+362491218+362906540+363428153
2508+363607217+363403197+363189886+363268105+363532814+363712751+363786253
2498+363957192+364291383+364591037+364627380+364353352+363890389+363425183
2488+363124859+363064433+363192594+363378240+363502557+363525213+363512429
2478+363624748+363970384+364381279+364478135+364097263+363521282+363175035
2468+363231820+363564526+363902649+364014735+363900465+363780341+363808559
2458+363917034+363967064+363886195+363665022+363393703+363272036+363422678
2448+363733340+363981624+364035993+363879789+363556693+363162250+362839620
2438+362728932+362873313+363159280+363419504+363599355+363744027+363896271
2428+364110164+364414856+364664596+364653996+364469749+364464041+364804668
2418+365277940+365581147+365643058+365591921+365526778+365480126+365570547
2408+365947254+366534011+367065962+367409093+367618094+367737081+367778404
2398+367817484+367954643+368271770+368875475+369939697+371797521+375020969
2388+380250292+387899064+398106745+410890867+426240800+444161145+464602222
2378+487138546+510894743+535183590+559829750+584124887+606220991+624958060
2368+641027657+654438227+663125915+666244702+665689891+662493293+655206785
2358+642436233+625055789+604688942+581449145+556630880+535300714+522696268
2348+520994036+529417599+544094752+558586871+568540793+574732182+579429205
2338+583015382+584907365+585593103+586554500+588899196+592150250+594107115
2328+592645364+587964241+581946413+575417979+567950455+559887118+552367410
2318+545569200+538789162+531855540+525019531+518002624+510314539+502019283
2308+493426237+484622065+475751265+467192262+459210987+451856685+445233841
2298+439461560+434344848+429443223+424516175+419708930+415315697+411532982
2288+408417020+405869759+403675355+401763861+400351907+399539988+398921780
2278+397978235+396722689+395567464+394733151+394140832+393713716+393443911
2268+393218283+392866415+392400889+391983383+391630613+391200905+390692018
2258+390267639+389956774+389610439+389189031+388836232+388627231+388440363
2248+388143359+387794607+387578793+387596323+387775213+387938319+387945541
2238+387842890+387843297+388062519+388330140+388357456+388038145+387528996
2228+387070167+386750886+386503912+386300444+386149657+385931978+385547233
2218+385169768+384977046+384775996+384303102+383691622+383300820+383305770
2208+383649105+384130765+384430768+384302374+383881257+383654172+383987781
2198+384718104+385307161+385427634+385291202+385371110+385916398+386774037
2188+387576900+388042688+388148513+388105880+388195514+388559467+389106182
2178+389622379+389946494+390026955+389914869+389745618+389661954+389755782
2168+390092768+390706549+391521671+392304965+392761551+392772238+392530564
2158+392328727+392242588+392161719+392058194+392069639+392345880+392867376
2148+393389077+393648514+393690449+393820036+394158334+394461016+394518442
2138+394532304+394855196+395466269+396000695+396269218+396435411+396707895
2128+397188477+397957850+399010832+400189820+401347870+402431661+403367169
2118+404100549+404752012+405509417+406396439+407282354+408049835+408670080
2108+409171804+409562198+409756813+409654220+409351305+409146236+409183889
2098+409265078+409198187+409139247+409323727+409671460+409953029+410170592
2088+410494212+410943460+411356597+411610444+411708960+411690789+411574567
2078+411376895+411096315+410714453+410295258+410017125+410034888+410369138
2068+410912067+411451124+411781675+411902847+412007536+412246939+412634858
2058+413136378+413685801+414177041+414590587+415086661+415834834+416767663
2048+417626351+418292054+418950331+419818570+420806001+421580849+421965128
2038+422144687+422448418+423040649+423888445+424888660+425934448+426992788
2028+428177280+429601757+431152297+432574939+433814207+435129190+436782527
2018+438622763+440150618+441161346+442057890+443282510+444800465+446354937
2008+447853817+449330479+450837076+452441403+454098934+455613220+456893548
1998+458094027+459385305+460759082+462133849+463499939+464844275+466041929
1988+467015148+467950365+469128770+470561226+472001370+473316119+474669803
1978+476302465+478228374+480204545+481993819+483648613+485473065+487674544
1968+490079725+492245211+493900791+495242972+496728078+498641960+500935462
1958+503416852+505956542+508425875+510614192+512458883+514258320+516360323
1948+518751147+521260318+523970481+526971969+529883707+532213785+534080375
1938+535986802+538146988+540435132+542717626+544936928+546993735+548823283
1928+550680670+553201431+556818593+560994468+564563581+567171355+569508014
1918+571844207+573522152+574311386+575016752+576352410+578195761+580044412
1908+581668891+583154405+584552789+585738766+586639649+587421254+588319924
1898+589446494+590755011+592013848+593023702+594013986+595307594+596535796
1888+596993168+596827762+596894914+597597368+598613279+599493137+600115683
1878+600673173+601310512+601911276+602546927+603834244+606137239+608418685
1868+608713097+606463684+603295333+601022915+600128496+599975728+599901645
1858+599864661+600014517+600097453+599615503+598416771+596946167+595912493
1848+595750406+596307896+596756765+595878771+593258766+589929143+587194460
1838+585576097+584728912+584148766+584082545+585230199+587321194+588611657
1828+587789574+585528280+583015207+580574470+578210496+576227947+574858334
1818+573868457+572867806+571873736+571269303+571193589+571290153+571137152
1808+570622062+569867540+569259438+569441560+570691253+572307811+573187029
1798+573141950+573130068+574176673+576225501+577693018+576991438+574936669
1788+573695887+574278188+576150544+578288715+580171437+581715659+582842229
1778+583620572+584561700+586426368+589583770+593184274+595508470+595965551
1768+595434037+595060474+595851339+598150432+600766185+601859441+601620708
1758+601905743+603365805+605311779+607692934+611185459+615351782+618244708
1748+618795966+618095260+617652623+618119197+619463999+621213232+622568051
1738+623511451+625583285+630197895+635657185+637698908+635749382+632815512
1728+631219863+631717364+633683896+635795335+637501410+639738126+643709398
1718+648941487+652499242+652214324+649739515+647757199+647424056+648589008
1708+650718443+653353998+656193225+659486155+663988534+669406239+673165220
1698+673501449+671755478+669368848+667242500+666471729+667440347+669508803
1688+672304698+676724023+683011861+687588206+686719239+682994330+680458892
1678+680609971+683099340+686490349+689563300+692655820+696271060+699064160
1668+699346399+698371666+698633462+700539249+702389065+702991051+703407480
1658+705213149+709156814+715390719+722030162+724030300+721695563+720712384
1648+722725103+725376209+725747209+724073283+722260858+721520896+722791673
1638+726662012+731927008+734862625+733595459+731405802+731650068+734809683
1628+739276592+743419211+747363983+751714991+755581136+757951051+759734122
1618+762346963+765518809+767871717+769581229+771711071+774294326+776728714
1608+778991232+781585668+784334271+786184844+786553049+786007964+785263227
1598+784483195+783838110+783720636+784313887+785496544+786800169+787316715
1588+786659864+786010352+787002267+789732000+792689749+794458318+795038988
1578+795711622+797934768+801478195+804200065+804920224+804087542+802826259
1568+802367430+802963244+803688179+803879677+804539323+808037032+815530298
1558+822838589+825307923+825223181+825195400+825324405+825183285+825020383
1548+825812355+828527934+832942135+837533273+840893706+842369202+841212870
1538+838349065+836645378+837171883+838259664+837644282+835987945+835708909
1528+837407413+839859856+842086671+844379416+846934423+849284186+851803258
1518+855532827+860229383+864232863+866091881+866089202+866255832+869101349
1508+875997696+884870243+890037742+889934887+887993282+886910452+887754025
1498+890267331+892916050+894203250+894619213+895968791+898876161+901662912
1488+902945104+904454264+908050866+912703275+916128123+917739032+919291815
1478+922738678+928046307+933415089+937115129+938281129+937099986+935632411
1468+936168642+938678221+940735261+940507303+939441072+940157387+943092946
1458+945237873+942265913+935549300+930468989+928705137+928409560+926896382
1448+923254467+919702244+919176613+921818167+924920938+926075930+926134521
1438+928353881+933831751+938068022+936503533+930785765+925316283+922901638
1428+923446315+925008417+925844128+925938247+926862310+929598624+933061329
1418+935543709+937140057+938516251+939267103+939257901+938867565+937487760
1408+934169727+929879466+927134590+927221371+928946433+930331480+930880467
1398+932195682+935918436+940655587+942845302+941930440+941220357+942866793
1388+945527858+946614591+945531178+943734129+942687001+943191316+945914642
1378+951514935+959469942+966862276+969878442+968345752+966123771+966119403
1368+967851745+970107332+973221285+976983178+978997643+977652492+975323521
1358+975709664+979681052+984855249+988268215+989554659+990944190+993986972
1348+997623470+1000060538+1001293283+1002529056+1003797096+1003531979
1340+1000856120+997587593+997243618+1001825496+1009652837+1016802478+1021636659
1330+1026284817+1032407422+1038531309+1041994596+1042286038+1041691157
1321+1042401589+1044379596+1046815032+1050208663+1054348952+1056215716
1312+1054018488+1051033482+1051532148+1055492470+1059806087+1062514328
1304+1064071014+1065991244+1068631226+1071136087+1073197962+1073741823
1295+1070363452+1062924350+1054592169+1048599443+1046026323+1045601391
1287+1043988095+1038867946+1032302237+1027477142+1024131503+1019852016
1278+1015057206+1012948621+1014077929+1015730597+1016144113+1015742827
1270+1014773335+1013004300+1010901307+1008741238+1005679935+1001288274
1261+996925967+993965772+992178566+990852751+990178544+990354784+989720648
1251+985822761+979064854+973096065+970510597+969532952+965789114+956781270
1241+944053876+931654441+923263611+919520996+917049275+911511416+902208171
1231+892004391+883404648+876664680+871131831+866696780+863809678+862767675
1221+862799067+861928470+858791045+854603347+852189984+853022957+855697709
1211+857223818+856014661+853695416+853286385+855773831+859190001+861257700
1201+862325853+864399725+868015722+871691010+874162731+875989600+878608964
1191+882341328+885855286+887711392+888124443+888685078+890492436+893264393
1181+896185799+898979540+901909100+905032721+908461704+913341780+920598527
1171+929129778+936597069+941934168+946150579+950385336+954817766+959679205
1161+965309901+970827549+974511573+975354214+973479995+970050138+967177481
1151+966997106+970455734+976318756+981772979+985613789+989286514+993758082
1141+997626732+999359074+999302580+998212644+996146926+994314174+995027985
1131+998486380+1002359107+1005374282+1008736578+1012557703+1014177406
1123+1011726942+1007815427+1007911060+1014844157+1024650553+1029483453
1114+1026557388+1021130538+1019771060+1024593826+1032796826+1038749832
1105+1038567768+1034250191+1030496627+1029325968+1029391664+1029172093
1097+1029590618+1032347782+1037012597+1040648979+1040983170+1038471553
1088+1035287127+1032514936+1029773497+1027970566+1027960199+1027714069
1080+1024164817+1017602137+1011657518+1008607398+1008126554+1009860061
1071+1013372505+1016298104+1015603746+1010647257+1003606063+997796448+995763112
1061+996824277+997854341+998215323+999767349+1002529522+1005544697+1009780620
1051+1015039034+1016904401+1011914248+1002057065+991100744+982267917+979285474
1041+983215161+988718307+990109936+990137892+994424368+1001630270+1005668869
1031+1004124414+999499437+994311612+989632586+986455499+985418213+985616701
1021+984983613+982796636+980258693+978486281+977428145+976688707+975956259
1011+975114433+974711575+975599820+977313991+977912832+976001513+971874212
1001+965847356+957150174+946327459+936349134+930108064+928104024+928547826
991+928068147+923355283+914832827+906613926+901643808+899166729+896852959
981+893346864+888795679+884465347+881700378+880450743+879457255+877840465
971+875447020+872263177+868843163+866194503+864292793+862158641+859624601
961+857477111+855883908+854244752+852803560+852978460+855465558+859038805
951+861835399+863288356+864466820+867037727+872236444+879978519+888236500
941+894334236+897420350+899106973+901592381+905224453+908577255+911241932
931+914712907+919956528+926319905+933049739+939318880+943213797+944165467
921+944536060+945943588+947428811+947885950+946987688+944180144+939878642
911+936477324+935239745+934201819+931596258+928517541+926738838+926826259
901+928783414+932405294+936763873+940352147+941455071+939415853+936496019
891+936635217+941224434+947091824+950031984+950087255+950941196+954643682
881+959407857+961909864+960701289+957262988+953558871+950474272+949008443
871+950000417+953369527+958230383+963787520+969384901+972814758+971351201
861+966806888+964550545+966530240+969866094+971646020+972016613+971640254
851+969912513+966874158+964738782+965773796+968997652+971029997+970357422
841+968130956+965273383+962137414+960689991+963060138+969090372+976981896
831+984502886+989483021+990357696+988010437+985546229+985647569+989927755
821+998697099+1009119343+1015917203+1015999441+1010414290+1003248575+999400659
811+1001866149+1010299670+1020067627+1024515432+1021860773+1015727452
803+1011279646+1010884417+1011753967+1010486859+1008421956+1009718767
794+1015202693+1020383996+1020383064+1015831355+1009972701+1002491898+992685386
784+984912791+985102893+992923827+999509455+997393415+988378408+978174687
774+970210361+964838492+960970075+957073935+953138016+950471068+949179965
764+948752587+949431453+951594202+955683996+962173641+969763997+974782513
754+975104648+973082437+972182019+972984183+974152396+976344382+982187427
744+990518094+994142245+989581799+983830893+984050348+989070087+994664790
734+999341835+1003230403+1005635205+1003893311+996987121+988872415+983612370
724+983052434+988005195+996250363+1001616292+999996006+995250702+993520572
714+995964745+999124593+999599263+996821016+991230623+984595490+980344891
704+980241920+983407825+987129705+990052043+993103561+994660247+992932331
694+991734764+994307768+996156011+991949210+982699023+973244640+968962066
684+973472249+987970017+1006656066+1015442067+1006891480+988942538+974837901
674+969527826+969185598+969580244+971869028+980378089+992250902+997073668
664+995263282+993584289+995053844+995449422+986226026+970754456+958275171
654+950395238+946620182+950134023+961949468+973235321+970216651+951321456
644+930761537+921509835+925223446+932984100+931578843+917901351+904275695
634+901474616+909103411+918649525+920486936+913115219+902454825+895322890
624+897006833+910470636+933134655+954426265+960681196+949282121+932920267
614+921816012+916864008+916563946+922332733+933182297+940359893+938200406
604+926791721+908186977+889930286+878911006
##END=
