##TITLE=<SNM>
##JCAMP-DX=4.24
##DATA TYPE=INFRARED SPECTRUM
##DATE=29/4/2025
##SAMPLING PROCEDURE=Instrument type and / or accessory
##ORIGIN=Admin
##XUNITS=1/CM
##YUNITS=ABSORBANCE
##RESOLUTION=4
##FIRSTX=4497.3318
##LASTX=599.83466
##DELTAX=-1.4281778
##MAXY=2.0842276
##MINY=0.41921419
##XFACTOR=1
##YFACTOR=1.9410882e-09
##NPOINTS=2730
##FIRSTY=0.43062651
##XYDATA=(X++(Y..Y))
4497+221847990+221131953+221072244+220905045+220511660+220654416+221672347
4487+222862252+223387123+223237965+223109380+223571380+224415756+224873518
4477+224529571+223796476+223377635+223559665+224123319+224655300+224831296
4467+224627602+224326460+224069936+223617686+222860501+222223181+222089683
4457+222170750+221952624+221396231+220755242+220170077+219836847+220147677
4447+221265021+222681005+223340403+222436548+220270412+218173858+217415875
4437+218236131+219905830+221425326+222041551+221557473+220610843+220295423
4427+221049843+222177121+222780510+222750893+222429240+221935197+221302192
4417+220729586+220453440+220692907+221540077+222573638+222981517+222452162
4407+221601430+221244448+221486218+221672117+221192983+220207355+219298357
4397+218615314+217971838+217657215+218255246+219580061+220664872+220956095
4387+220738077+220310868+219565230+218536214+217705855+217463118+217596032
4377+217603171+217349825+217100378+216914157+216570455+216300235+216720443
4367+217678802+218198930+217971530+217731204+217856656+217866360+217529844
4357+217242796+217178297+217183440+217320131+217607071+217665675+217344758
4347+217125097+217383004+217836006+217897266+217263170+216325568+215968647
4337+216555777+217422539+217861692+218039347+218331906+218531086+218402977
4327+218283358+218437215+218480511+218045227+217519680+217559552+218136211
4317+218619137+218696902+218614900+218525435+218266869+217842101+217518682
4307+217309123+216957653+216616193+216900338+218042694+219435309+220272392
4297+220334958+219925881+219393440+219000931+218952276+219189854+219320542
4287+219026202+218475214+218128135+218255123+218728039+219123113+219093895
4277+218792969+218672168+218787902+218793982+218640509+218636963+218871179
4267+219215940+219769707+220675880+221584741+221788081+221064675+220113331
4257+219891674+220603581+221482134+221595657+220903003+220425036+221100064
4247+222585998+223674201+223772525+223250632+222495520+221555477+220623832
4237+220049000+219941219+220150563+220411418+220494311+220497381+220724028
4227+221139154+221444764+221587366+221630002+221470711+221109292+220691771
4217+220219469+219855578+220174683+221304894+222338378+222388906+221672623
4207+221001894+220869348+221287790+221935197+222379633+222547353+222780050
4197+223197570+223442273+223264649+222862728+222463109+222111885+221922239
4187+221939742+221871419+221482794+221079966+221209672+222149930+223810632
4177+225688907+226962933+227120151+226486056+225861786+225737623+226006784
4167+226265811+226212151+225767025+224996852+224179682+223817879+224175828
4157+224814852+224939000+224251505+223325971+223131428+224073544+225436727
4147+226059799+225594652+224649005+223821256+223282275+223140010+223507724
4137+224253593+225056991+225569948+225456180+224675566+223774705+223480687
4127+223965947+224703417+225005235+224673417+224143095+223922236+224034485
4117+224191427+224212492+224043681+223717298+223465226+223521865+223771911
4107+223922113+223974852+224288230+225166507+226423368+227423934+227767236
4097+227753449+227833256+227904895+227621271+227066445+226637578+226557725
4087+226891647+227753971+229070510+230238137+230512672+229878392+229103643
4077+228793090+228835158+228871116+228747475+228329586+227418683+226149494
4067+225131609+224944527+225652964+226845771+227884936+228177080+227616988
4057+226769787+226345526+226565341+227099900+227414906+227170511+226492535
4047+225886137+225797087+226222084+226723128+226916888+226964238+227255553
4037+227659640+227647864+227164354+226709294+226548498+226501563+226472806
4027+226602051+226912143+227214022+227388253+227536659+227809919+228205146
4017+228585327+228747244+228374141+227243071+225712704+224648391+224625314
4007+225469537+226684360+227920740+228831565+229018002+228507670+227881849
3997+227664583+227922014+228484793+229158915+229706357+229970712+230059301
3987+230152312+230239719+230175772+229787377+228972663+227935786+227223587
3977+227285462+228009114+228765100+228952212+228588168+228350681+228874140
3967+229944795+230640535+230477574+230035871+230083575+230600017+231102135
3957+231352181+231256759+230747471+230246136+230522206+231624796+232579548
3947+232626314+232199858+232169980+232665527+233077106+232925660+232353592
3937+231873936+231921884+232579118+233586209+234494302+234773918+234166645
3927+233219186+232987165+233780399+234724926+235119831+235378444+236049526
3917+236681702+236184175+234312134+232235816+231321919+231741083+232618484
3907+233562273+235319225+238459904+242069920+244684575+245829310+245534555
3897+243771585+241260780+239542043+239664655+240922176+241366089+240549672
3887+240080702+240825081+241653305+241814209+242329408+243211984+242580037
3878+240311402+238861487+239651666+241808298+244317782+246696102+247620362
3868+246427740+244889835+244795135+245670279+245942603+245206929+244166735
3858+243772153+245417148+250478445+256763149+257937470+253247893+247229080
3848+243072206+241932737+243511897+246297727+248699169+250499833+252224957
3838+253366345+253004987+251604449+250100444+248631292+247173209+246203073
3828+245953473+245894101+245948299+247422610+251058774+254459032+254977793
3818+254092746+253863627+253185651+250468619+246967858+245058907+245969625
3808+248875903+251224636+251882530+252715192+255204655+257807303+258636541
3798+258410877+257984942+256861150+255031008+253724018+253880270+255249778
3788+257106850+259129877+261297993+263671201+266698832+270814436+275231458
3778+278413790+280292956+282470898+286520084+292908238+300502066+307097860
3768+311874920+316057680+320370760+324467725+328903663+334972774+342214578
3758+348306627+352568733+357011672+363820449+373629128+384695221+393868270
3748+400476039+406694293+414058771+420812767+424677343+427043150+430617147
3738+436789986+444722325+451486669+454542059+453868259+451363013+449263004
3728+448900479+449924736+450754710+450303873+448641467+446122433+443380068
3718+441382313+440462214+440502502+442069501+445772744+450110727+452183867
3708+451336850+449866823+450623500+454320386+458485736+460100914+459357287
3698+458671236+459846263+463417435+468843607+474837977+479996876+483106832
3688+483360041+480878653+476757460+472851123+471103782+472033339+474606294
3678+478474002+483996716+488748719+489066535+485734046+481515206+476875221
3668+471514793+466509274+463190757+462064001+462826360+464970003+468228488
3658+472099420+474934181+475208547+474141024+474627666+477934422+481712927
3648+482149547+479043829+475186162+472658468+471916530+472635377+474576263
3638+477586452+480948511+483351627+484260948+485140576+488171032+492967191
3628+495865393+495617988+495282946+497518648+502430235+507832209+510679499
3618+510346545+509436763+509719727+510239102+509900221+509620851+510648639
3608+512395580+513367513+513519388+514021476+515185940+516088659+516669386
3598+518723979+523201464+528038648+530400739+530490034+531446245+535769151
3588+542201493+546197187+545159112+540895900+536197142+532982875+532644056
3578+535152128+538297428+539591720+538871092+537984279+538406498+539972546
3568+541484366+542383216+543363991+544743465+545392730+544157210+541831045
3558+540635015+541705639+543889999+544964861+543800949+541367802+539603634
3548+539515690+540741260+542314739+543196946+542838598+541882449+541435787
3538+541377506+540868878+540377385+541060550+542607498+543571754+543258606
3528+542035123+540499721+539097893+538017074+537400174+537589205+538411964
3518+538810846+538328810+538068785+539320333+541829817+543902712+544176617
3508+542905539+541185035+539721119+538635510+537622983+536606342+536271760
3498+537359150+539413805+541150767+542090518+542686169+543371361+544731243
3488+547233665+549703230+549822680+546944591+542934833+539892831+538411411
3478+538016337+538149605+538359824+538047842+536722659+534785734+533563050
3468+534107359+536185535+538382363+538695941+535976238+531678757+528626683
3458+527920549+528550223+529416585+530113876+530408968+530679004+531932518
3448+533933681+534452934+531835423+527403446+524046208+523412358+525040127
3438+527298675+528821364+529196602+528591677+527289585+525838013+525112288
3428+525596227+526645295+526973551+525985221+524369735+523286522+522977918
3418+522485626+520859147+518555952+517119671+517406411+518688728+519441352
3408+518807318+517443259+516999914+518523894+521218724+522999843+522442575
3398+520001076+517286470+515697270+515795839+517322889+519427657+521069612
3388+521548331+520855954+519692227+519054385+519393634+520003963+519925046
3378+519577752+520373673+522603970+524832733+525799138+526007944+526560114
3368+527348972+527581055+527360272+527507727+528319983+529461233+530488253
3358+531042757+531276497+532084578+534076898+536479891+537750662+537284594
3348+536114418+535622556+535910771+536075543+535836706+535942276+536830256
3338+537817848+538015907+537483144+536956154+536624397+535892347+534574717
3328+533356946+532764980+532511034+532121181+531779966+532273425+533890508
3318+535598114+536097161+535402204+534353689+533438687+533289452+534835418
3308+537603760+539460049+539349873+538669594+538885647+539651844+539932013
3298+539529139+538821163+538000431+537224715+536706630+536404413+536337841
3288+536969972+538327582+539101946+537933920+535549843+534499977+536671686
3278+541357731+545939557+548599995+549749106+550400275+550364286+549095972
3268+547362572+546692181+547302387+547804996+547388243+546940906+546969218
3258+546097021+543328187+540132221+538611313+538854326+539194128+538499294
3248+537264880+536674756+537359703+538967266+540550325+541316891+540924642
3238+539415831+537487812+536521222+537446910+539590676+541214821+541079404
3228+539251673+536892529+535404354+535195854+535302653+534864159+534377149
3218+534451951+534334467+532998167+531073955+530250644+531037844+532394533
3208+533477747+534430825+535122220+534621391+532639328+530444588+529788691
3198+531084518+532734887+532804407+531481926+530732373+531415599+532168776
3188+531276252+528529035+525068008+522248140+520968832+521305870+522429801
3178+523080233+522500857+521040809+519487597+517943903+515979895+513890972
3168+512859407+513484843+514961166+516037133+516162109+515434665+514018405
3158+512160305+510563304+510053663+510628464+511291762+511210880+510673265
3148+510442504+510547828+510199643+508789126+506696272+504993394+504293371
3138+504085609+503533131+502666063+502123412+501976879+501746148+501343305
3128+500924679+500125411+498613745+497035568+496354123+496494883+496466203
3118+495649186+494291883+492947447+492048382+491900375+492504501+493287003
3108+493536956+493190338+492649498+491903661+490572520+488893932+487832980
3098+487941775+488716385+489277091+489206527+488492440+487143735+485447398
3088+484257570+484225666+484866579+485013019+484092306+482453422+480734454
3078+479502005+479236453+480022486+481226592+481930239+481855714+481540815
3068+481428582+481298845+480855101+480234486+479616941+478924318+478047699
3058+476955059+475705813+474682263+474444101+475007970+475589619+475398008
3048+474577399+473959025+473826310+473526765+472580289+471389724+470367893
3038+469296225+468160810+467688754+468319871+469315970+469527724+468609682
3028+467064730+465617517+464870113+465049103+465669719+465773416+464932817
3018+463799674+463367506+463840360+464359091+463931897+462625783+461471974
3008+461128272+461173565+460896006+460220794+459577578+459314605+459430554
2998+459584825+459396807+458890083+458419870+458143969+457917383+457716745
2988+457732436+457894998+457772293+457144830+456269103+455365769+454233793
2978+452711994+451285294+450757136+451250104+451898509+451788394+450984490
2968+450275131+450073910+449960448+449272369+447881381+446355621+445522422
2958+445787974+446667602+447108306+446486155+445113868+443655816+442411821
2948+441312455+440337391+439724606+439674431+439976985+440202128+440203233
2938+440144000+440065974+439788046+439287709+438794435+438437622+438111055
2928+437719942+437348911+437117842+437011413+436927706+436786454+436499131
2918+435954453+435186813+434428263+433852449+433426699+433091411+432898818
2908+432900107+433017438+433030366+432644442+431776483+430808328+430238409
2898+430061968+429843335+429422099+429166526+429375793+429700395+429404566
2888+428283276+427021041+426316074+426096152+425938288+425698498+425335052
2878+424713239+424026635+423866775+424454534+425170587+425171170+424269188
2868+422967557+421794710+420924355+420363158+420135774+420175263+420244230
2858+420122140+419824222+419547523+419401819+419241038+418784919+417891136
2848+416726887+415722405+415274976+415393136+415716939+415923044+415920771
2838+415673581+415111002+414299635+413518178+412999570+412687527+412407266
2828+412123412+411817603+411368178+410818987+410434537+410278332+410107940
2818+409771546+409393238+409197360+409313524+409617275+409731075+409354671
2808+408518063+407428985+406308769+405373194+404669209+404009227+403347864
2798+402989239+403128464+403509812+403769069+403784177+403508860+402835306
2788+401857079+400954728+400395280+400043994+399613485+399054406+398562114
2778+398268035+398109434+398007887+397939533+397763767+397276266+396545413
2768+395914419+395592795+395442578+395153657+394518118+393601612+392683631
2758+391971018+391460271+391080704+390754475+390347917+389802656+389276464
2748+388996878+389006182+389085897+388928986+388477534+388037874+387863275
2738+387746988+387319211+386602913+385948367+385560540+385415266+385513988
2728+385843810+386084183+385738854+384718589+383547155+382831901+382690803
2718+382749576+382541875+381888157+380978253+380114040+379471469+379188045
2708+379399984+379941591+380313972+380218781+379851221+379525176+379323002
2698+379147543+378828622+378217955+377353743+376460451+375770315+375405456
2688+375332866+375403430+375497915+375536759+375364494+374897719+374297217
2678+373677307+372912308+372058352+371546193+371611045+371914152+371984072
2668+371709737+371238572+370712687+370271276+370047700+369977965+369811442
2658+369483247+369257306+369340706+369598490+369770018+369737991+369511743
2648+369144336+368706733+368248557+367801650+367420179+367128495+366824743
2638+366321335+365567176+364832607+364553144+364879097+365437286+365685121
2628+365492712+365221386+365186657+365228387+364983961+364418556+363824164
2618+363421107+363199987+363056525+362911128+362739876+362557447+362402623
2608+362360647+362472942+362576086+362438151+362088891+361772888+361615699
2598+361561840+361532453+361491060+361473312+361551307+361657307+361589261
2588+361306482+361005340+360821989+360693082+360545198+360393046+360242797
2578+360108609+360077042+360131854+360022107+359565958+358971904+358590955
2568+358468895+358397993+358282228+358208317+358270468+358490206+358780907
2558+358920224+358751951+358455814+358384605+358632348+358989314+359226801
2548+359190628+358816466+358321625+358131304+358388597+358779433+358947860
2538+358821409+358524075+358245902+358151264+358228215+358323314+358378617
2528+358465763+358604988+358770497+359043727+359506294+359958053+359996007
2518+359512374+358930142+358741848+358941320+359123779+359049592+358848370
2508+358719401+358730609+358899282+359185040+359391082+359320641+359029448
2498+358766966+358730456+358943592+359243475+359373887+359225204+358954278
2488+358791685+358801266+358857951+358827213+358758307+358827981+359071516
2478+359323251+359435884+359381471+359194589+359009796+359010011+359204078
2468+359422373+359516827+359397746+359046490+358649697+358464535+358465579
2458+358419396+358294450+358252443+358293528+358282750+358302955+358592367
2448+359042161+359134527+358625408+357972765+357790367+358150619+358664160
2438+358970399+358926580+358572316+358136709+357912027+357985662+358195236
2428+358365475+358470676+358562582+358668152+358823805+359124455+359629122
2418+360231774+360699899+360859114+360745468+360597215+360643337+360862615
2408+361058862+361199898+361476137+361963700+362474477+362827544+363056586
2398+363269323+363485438+363709321+364044947+364646217+365616429+367035514
2388+369061243+371981800+376260150+382527136+391346994+402936853+417202873
2378+433935787+452791954+473278439+495004159+517688484+540697780+562804909
2368+582334078+597579338+607939451+614393287+617562599+616310867+609383899
2358+596717766+578933297+556854418+531695830+506620149+486918531+476890728
2348+478049235+489574210+508047372+527394664+542083271+550306189+553433556
2338+554156702+554509953+554792824+554291812+552424468+549207806+545163288
2328+540612046+535232027+528683921+521141589+512909090+504135876+495092963
2318+486204874+477704029+469578789+461790158+454278748+446878005+439501981
2308+432431245+426156828+420852379+416161973+411595532+407067750+402952268
2298+399637528+397161545+395311797+393893480+392689005+391320985+389558138
2288+387751686+386562626+386183427+386160489+386046936+385885203+385898253
2278+386040395+386117531+386107612+386075616+385987180+385886400+386007262
2268+386417505+386800419+386863246+386758750+386870185+387309539+387800510
2258+388017423+387946582+387882067+388101590+388586482+389064740+389340733
2248+389529642+389861859+390322246+390642856+390597717+390159746+389449712
2238+388672123+388034250+387625635+387382068+387160396+386811750+386206273
2228+385309941+384326064+383633103+383398718+383347468+383107464+382684447
2218+382389569+382400624+382597116+382795053+382987369+383312739+383888000
2208+384732622+385755651+386766642+387645379+388523932+389617432+390898275
2198+392160909+393360133+394653596+396135170+397705824+399207418+400539910
2188+401639490+402524921+403370034+404287247+405056299+405391925+405464055
2178+405786385+406570729+407473694+408014564+408055711+407799677+407483244
2168+407246433+407164967+407161283+407000072+406574936+406003390+405321483
2158+404366471+403065269+401630892+400400347+399529932+398876736+398197593
2148+397368141+396390958+395484892+395185899+395932536+397546240+399483012
2138+401460101+403533425+405810827+408339872+411087426+413965484+416965264
2128+420172161+423674305+427579291+431974696+436748808+441600271+446260184
2118+450633879+454847592+459215698+464011059+469258210+474826247+480627901
2108+486769634+493728598+502360162+513418056+526841573+541549034+556068938
2098+569358481+580996550+590930575+599276013+606098392+611207332+614284585
2088+615232689+614246079+611437080+606623233+599815102+591519286+582045556
2078+571173008+559057878+546690830+535058288+524512829+515010757+506471221
2068+498940067+492466885+486739633+481277320+476157818+471862670+468338602
2058+464985264+461558321+458420668+455970540+454273927+453166793+452465725
2048+452067949+451935541+452121287+452850512+454441340+457164974+461304223
2038+467227691+475291148+485745592+498628792+513519818+529502564+545565425
2028+561020720+575599642+589195762+601417691+611670513+619989482+627243477
2018+634044178+639937860+644034089+646146779+646982066+647106060+646012284
2008+642770810+637482052+631237820+624718947+617718836+609980349+601614398
1998+592738101+583528389+574450225+565746684+557129613+548535941+540528708
1988+533521412+527442198+522338356+518452285+515626583+513334533+511294864
1978+509587196+508296220+507382815+506784953+506530823+506789467+507656904
1968+508830211+509760382+510249481+510622139+511236275+512160028+513399110
1958+515068486+517149272+519353346+521413344+523309859+525170016+527179716
1948+529565022+532438259+535696069+539064545+542136885+544575928+546482515
1938+548315466+550405495+552747811+555145277+557399035+559435818+561308320
1928+563122970+565046998+567225340+569565445+571905919+574428545+577317934
1918+580028303+581711528+582464459+583217144+584575614+586492641+588720236
1908+591001507+592913007+594061381+594524071+594772980+595131452+595597459
1898+596186170+597038468+598088150+599011320+599645723+600104360+600441889
1888+600613847+600722918+600890025+601015247+600999279+600970169+601024336
1878+601057561+601040304+601178669+601769345+603057005+604915504+606309533
1868+605787885+603398035+600842368+599259308+598226454+596836724+594917057
1858+592943038+591293836+589945070+588634994+587206943+585853079+585030689
1848+585202402+586491535+588064707+588040203+585416858+581556335+578392305
1838+576642876+575786340+575056254+574521710+574803414+575657862+575704721
1828+574250446+572075298+569795378+567318381+564833278+562750681+560969009
1818+559273379+558040500+557835563+558636028+559818732+560614161+560547835
1808+559727410+558761435+558433240+559313421+561264348+563253842+564138629
1798+563835614+563367458+563919812+565892725+568125664+568643995+567375865
1788+566287676+566786294+568637239+570867107+572944055+574746300+576131116
1778+577261434+578941035+582183860+587223279+592396825+595052535+594749520
1768+593142510+591628541+591129064+592280508+594577501+596426973+597224367
1758+597814921+598608324+599533213+601334045+604934850+609690783+613507580
1748+615371545+616216965+617084740+618220524+619560201+620973881+622165613
1738+623370303+625897106+630707698+635927673+637926072+636743307+634815165
1728+633307153+632557845+632840777+634090054+636115107+639285341+644203775
1718+650232752+654620940+655277329+653564994+651981812+651874707+653425647
1708+656341566+660119856+663929897+667485870+671861530+677888542+683783637
1698+686968364+687331933+685494375+682616102+680925385+681477985+683470243
1688+686267573+691041624+698538141+704879345+705255442+702104431+699993153
1678+700738039+704191082+709015676+713739552+718307192+723025417+726386524
1668+726898837+726647287+728600793+732622465+735825002+736325216+735441597
1658+735266814+737215284+742362054+749485238+752651541+750509003+748863179
1648+749836463+750633489+747831799+742588916+738234812+736401001+737201958
1638+739938979+743032568+743810004+741156136+737475310+735103638+734378220
1628+734757449+736204170+738871917+741487708+741929948+740495080+739955868
1618+741978772+744775549+744565330+741160988+737951879+737234322+738563498
1608+740058920+740934494+741877009+743220310+744299655+744509996+744107614
1598+743898071+744524367+746037783+747972313+749869749+751766264+754115212
1588+757183254+760545835+763293419+764829497+765395178+765889620+767414029
1578+770614601+774354446+775632955+774033130+772648928+772804120+772134404
1568+768351201+763349920+760215675+759901544+762247299+767423609+774149017
1558+776995416+773874560+769219897+765490861+762766736+760958964+760332054
1548+761398502+764607978+769729323+775783787+782249292+788701655+791535955
1538+788040844+782738452+780501705+781952664+784541310+786380772+788442243
1528+791730759+795547617+799295814+804069926+810872961+818342149+824152985
1518+827919913+830142227+831115695+832057412+834870770+840662138+849288114
1508+859288465+866680088+867916344+866338075+866587292+869500693+873459539
1498+876290033+877286223+878144479+881174444+887015126+893992883+898937540
1488+900696304+901739292+903853641+906357106+908601529+911372820+915659922
1478+921078140+926336990+930939451+935397528+939039910+940062079+939365525
1468+940023388+943734798+949273142+953540530+955332457+956494956+958700381
1458+960318569+956780345+948283154+940749236+937316520+937458325+939212298
1448+940480858+940344950+939542274+939232442+939935689+941992923+946005261
1438+951623196+956172534+957156442+956264225+956253170+956812342+955847288
1428+953001932+950351320+949905027+952061751+955971528+960071993+961684163
1418+958476836+952375820+947661341+945995680+945837663+944948393+943072145
1408+941617809+941390087+942082710+943449962+945452784+947371960+948239673
1398+948334127+949393451+952682581+956910849+959088147+958121066+955454486
1388+952450745+949657591+948619087+951333201+957186289+963065724+967202178
1378+970651291+974290234+977232807+978478152+978333708+977862112+977902829
1368+978966084+981344880+984919952+988815910+991705791+993065427+993781572
1358+995002536+996531797+996960096+995609119+993677598+993059900+994876700
1348+999222881+1004975006+1009916470+1012989854+1015618788+1019035351
1340+1022776793+1026426606+1030056582+1032548133+1032348662+1030457858
1331+1029795144+1031630368+1034871657+1038005595+1040240683+1041431002
1322+1042138241+1042899279+1043167534+1042902964+1043729837+1046617507
1314+1051048132+1057161246+1065082500+1071922014+1073741823+1070715850
1305+1066553357+1064056278+1063741963+1064966428+1066712909+1067668137
1297+1066768918+1064294440+1061259255+1057780050+1053251039+1047611793
1288+1041709451+1036738877+1033864596+1033036494+1031694361+1026711565
1280+1018611106+1011600678+1008746663+1009370319+1010720927+1010628070
1271+1008482830+1004546031+999581107+994873506+991173089+987490297+982019263
1261+974494127+966576558+959908633+955099208+952338542+951440306+951173648
1251+949819478+946771089+942392603+936068227+926802997+915719309+905379708
1241+897128233+890202617+883181196+875924437+869788416+865822016+863443528
1231+861255667+858454898+854848075+850347008+845403639+841318711+839167084
1221+838603921+838335544+837622163+836680446+835820410+835093149+834872060
1211+836026145+839057215+843236905+847064940+849820201+852160307+854850040
1201+857806984+861035253+865285077+870869112+876826542+881818796+885175297
1191+887200166+889228474+892571341+896631213+899384755+900294106+900924947
1181+902501742+905041811+908826672+914191399+920164735+925552615+931081501
1171+938583422+948059608+957381462+965040910+971201619+975752615+978288876
1161+980052675+982630759+985633394+987858717+989127953+990012309+990971775
1151+991740244+991839120+991797174+992749147+994373046+994598557+992335096
1141+989098167+987449211+989146623+994161599+1000600328+1006517164+1011017187
1131+1013293053+1013197924+1012499650+1012931634+1013486138+1012726697
1123+1012075774+1013840065+1018227209+1023408617+1027248259+1028825177
1114+1028244204+1025976689+1023179052+1021389828+1020770778+1020410710
1105+1021093998+1024093624+1028455590+1032562013+1036262676+1038360934
1097+1035039684+1026153561+1017641876+1014169119+1014544111+1014878017
1088+1014070550+1014034009+1015838833+1017947040+1018029457+1015285189
1080+1010419939+1004210222+997947934+994072672+993822043+995042946+993907715
1070+989267423+983870884+980433870+978530477+976642560+975243557+976074791
1060+979569227+984149088+987679697+989110389+988585302+986493676+983185631
1050+980223282+979525378+981473541+985037129+988223637+989551400+989740247
1040+990774146+993123893+994647934+992889538+987729994+981278246+976373139
1030+974712698+975583359+977074482+978649619+981019449+983442524+983373556
1020+979667489+974056555+969496039+969135848+974690958+983462668+989517254
1010+989538073+984599618+976568741+966761044+956733425+946981492+936434805
1000+925071193+915156207+908980144+906728536+906806102+907141666+905822194
990+901722956+895150530+887550715+880743873+876489013+875855101+878111745
980+880557052+880364828+876746029+870821332+864214760+858302100+853944189
970+851368808+850005609+848453072+845495207+841727910+839302686+839569221
960+841562708+843111560+842946050+841534027+840370853+840751495+842871555
950+846059783+850087535+855319609+861160598+865998396+869297414+872271677
940+876148044+881398788+888448152+897091938+905811508+913297093+919424087
930+924103069+927447594+931211882+937095124+943576720+946952566+945579848
920+941413117+937300737+934447521+932224777+929615066+927198439+926836958
910+928858573+930633918+929270781+925571837+923186102+924257033+927394226
900+929762827+929839594+928287733+927243701+928335451+931130386+933894184
890+935761220+937748750+941666571+947935491+954196919+956592911+953946351
880+949716364+948308456+950960052+955851525+960925643+965510724+969361728
870+971317936+970441871+968092246+967379295+969781613+973061961+973725597
860+971901919+972026404+977819307+986927687+991240275+986704387+979955765
850+978609025+981344695+982013981+979213642+976843014+977578136+980460830
840+983907978+987618222+991259805+993673238+994232778+993455281+991774267
830+989705794+989247034+992519767+998979131+1006476938+1015186190+1025278539
820+1032734708+1035194324+1036634842+1040066759+1042492721+1040380215
811+1035839290+1033879089+1037017818+1043870106+1049988501+1051032902
803+1046801747+1041029602+1037391950+1037722969+1041931769+1046047834
794+1043433087+1032758905+1020326880+1012132090+1008971314+1007652026
785+1004655041+999724078+994878911+989713655+981304470+970455689+962536154
776+960031645+959270791+955706835+950652308+949949982+957231735+970897191
766+985111133+992940205+991440422+984047940+976877037+974201982+976664055
756+982585190+990197042+997663958+1002956462+1003165637+997410811+991427771
746+992013841+1000615927+1012133257+1017698684+1012252031+1000980417+992238922
736+989993148+994477142+1002170368+1006752869+1004867041+999431197+995877005
726+997567661+1003327892+1007394580+1005386968+999820805+995207289+992815965
716+991493975+989626816+987685961+989621780+999093483+1013368531+1022882916
706+1021135084+1012835153+1006131670+1002668125+998502008+992890828+990780778
696+994160187+997307267+994974716+990049526+987160260+985934260+984542504
686+983118997+980935558+976921317+973751820+975749299+984039772+993380356
676+994919505+985991927+973185341+964445934+963842422+970009212+976127607
666+977857015+976254610+972343483+967399439+962115348+955626321+947903618
656+940710975+936503035+937228822+941261241+944995436+948031358+951515845
646+953659243+952490418+949466349+947317056+947473722+948049598+945994268
636+941577644+935889513+930341712+931635882+942198291+952487286+951556010
626+941896320+933984216+933780139+939734867+945940469+948740501+946841407
616+939710178+936079588+943591152+954474570+953088403+937729527+923149745
606+918141893+921118857+926884124+927983183+918773900
##END=
