##TITLE=<SNM>
##JCAMP-DX=4.24
##DATA TYPE=INFRARED SPECTRUM
##DATE=29/4/2025
##SAMPLING PROCEDURE=Instrument type and / or accessory
##ORIGIN=Admin
##XUNITS=1/CM
##YUNITS=ABSORBANCE
##RESOLUTION=4
##FIRSTX=4497.3318
##LASTX=599.83466
##DELTAX=-1.4281778
##MAXY=2.2232876
##MINY=0.64083368
##XFACTOR=1
##YFACTOR=2.0705979e-09
##NPOINTS=2730
##FIRSTY=0.66318226
##XYDATA=(X++(Y..Y))
4497+320285389+321367519+321744273+321291466+320060338+318549207+317671199
4487+317957017+318970896+319475057+318488468+316573264+315533967+316493642
4477+318623792+320228075+320758547+320814220+320602497+319687125+318007134
4467+316137297+314927154+315349908+317567108+319800629+319694609+317303253
4457+315039967+314595969+315558723+316791723+317620218+317922876+318082093
4447+318583692+319425401+320166559+320453989+320222836+319642967+318806239
4437+317415261+315438397+313786645+313442794+314444151+316224404+318255875
4427+319934111+320451629+319393074+317315862+315282808+313831811+312714417
4417+311757333+311582917+312984028+315818605+318906040+320809297+320706934
4407+318938194+316749493+315371037+315405178+316729631+318459566+319342813
4397+318858428+317607437+316234220+314903809+314032911+314162276+314996212
4387+315677121+316012567+316400749+316752113+316686193+316397697+316228060
4377+315995957+315584401+315406502+315557831+315280390+314006744+312381159
4367+311788652+313122260+315872551+318292606+318973774+318295485+317684901
4357+317747108+317886635+317486334+316703867+316190724+316479968+317485153
4347+318377065+318204981+316631585+314005737+311234288+309518947+309492089
4337+310661356+312051730+313242356+314495390+315907094+316702486+315918465
4327+313958585+312550767+312748471+313841886+314600690+314788635+315013484
4317+315647759+316329013+316457832+315942703+315274258+315117949+315820045
4307+316786541+316714777+315211994+313572504+313199004+314057984+315024164
4297+315028741+313952079+312787879+312601488+313390000+314412371+315148894
4287+315464823+315360415+314814082+313785494+312694497+312496160+313497718
4277+314679104+314894367+314116362+313027898+312352776+312667639+313848622
4267+314972665+315377054+315277079+315068869+314826633+314775566+315326822
4257+316289979+316877390+316778481+316450952+316279904+316354172+316906580
4247+318118018+319482426+320030775+319265724+317611381+316136319+315836597
4237+316838385+318123545+318326545+317123570+315570756+314759129+314617990
4227+314535662+314487560+314644934+314675448+314455435+314578582+315327398
4217+316029867+316088332+315750583+315456561+315320604+315469774+316016712
4207+316592206+316690194+316490072+316613191+317100080+317414253+317352449
4197+317087098+316566039+315643096+314631520+314127704+314419049+315374693
4187+316358663+316479911+315619980+314769291+314773839+315317783+315611431
4177+315418966+315093884+315201890+316143889+317630236+318713259+318737037
4167+317878229+316478299+314659299+312993009+312499614+313355831+314541880
4157+315412317+316473002+317900308+318930480+319335358+319693573+319749361
4147+318376058+315649400+313281850+312564872+313094049+313798678+314446972
4137+315558378+317180480+318479314+318667662+317898581+317065767+316946017
4127+317530290+318178268+318423238+318264885+317689478+316604987+315381400
4117+314757373+315089652+316086720+317168246+317830645+317917206+317694803
4107+317413533+316939482+316213322+315737572+315903870+316131511+315505095
4097+314169761+313212044+313164143+313489802+313618534+313815575+314745168
4087+316456536+318144617+319002877+319016148+318610924+317997519+317361747
4077+317171470+317614720+318158894+318254868+317993374+317698776+317476662
4067+317426314+317682943+317969798+317739480+316878196+315744366+314736849
4057+314311849+315028367+316894000+318779554+319121908+317437915+314912502
4047+313381594+313705382+314970391+315437015+314513669+313286514+312840759
4037+312849050+312384959+311584098+311598261+313017190+315041781+316474614
4027+317178091+317897861+318828375+319292927+318944297+318349142+318095450
4017+318029961+317566244+316376626+314843473+313962989+314495016+316133987
4007+317766596+318597625+318823827+319112639+319752700+320340082+320188379
3997+319199170+318082553+317483196+317323663+317332241+317621514+318258783
3987+318801834+318682544+317750533+316315138+314953465+314188356+314076983
3977+314360872+315029806+316126416+317103333+317267443+316796991+316475852
3967+316620272+316942275+317174608+317366094+317821204+318725321+319546936
3957+319403610+318413364+317807156+318303344+319336480+320032387+320115608
3947+320019634+320612112+322255948+323864895+323751506+321804062+319651804
3937+318742650+319313192+320718851+322012589+322443231+321923611+321012931
3927+320427333+320526185+320988376+321164663+320991687+321191204+322313664
3917+323744828+324021895+322394150+319720949+317535443+316615897+316961849
3907+318877657+323114036+329283465+334597311+336055591+333864990+330454171
3897+327383461+325133071+324337478+325376401+326926077+326846195+325761992
3887+326448428+329336777+331538317+331377978+330483677+329513323+327215493
3878+324354059+323664860+326002069+329610793+332802146+334818361+334608480
3868+332362523+330384768+330068436+330372217+329818658+328511506+327550565
3858+328268752+332289925+340145563+347083671+345519717+337348639+329188298
3848+324295047+323160957+324798978+327734307+331039510+334383343+337118637
3838+338111070+337150417+335559289+334475459+333701111+332574534+331307567
3828+330691772+330912534+331886285+334172513+337591681+339662531+339000765
3818+337704379+336872198+334619592+330045522+325371478+323279844+324838444
3808+328743897+332199421+334409337+337035071+340127399+341148446+339586737
3798+337314959+334612366+331098924+328210402+327625179+328900954+330426133
3788+331700498+333358238+335476183+337533446+339855744+343215036+346927966
3778+349374736+350576272+352079516+355115308+360042930+366223816+371992859
3768+376037089+378272251+378921092+378617283+379032466+381640122+385894664
3758+389624722+391886339+394130741+398484625+405545938+412678323+416785480
3748+419431508+423800447+429667218+433396096+433932498+434641790+438258402
3738+444796036+451843473+456193125+456806761+455401994+454153594+454334084
3728+456539452+460320520+463510923+463982901+461972502+459368618+457612170
3718+456836641+456899136+458411793+461959635+466019583+467197802+464689977
3708+461148296+458895142+458634368+460030297+462155640+464171278+465762349
3698+466578524+466304364+465756102+466697613+470305416+476166459+481779278
3688+483776609+481665803+478108779+475832481+476053531+478678918+483492259
3678+490386035+496789007+497376879+492189088+486959844+484164935+481579991
3668+477512991+473549880+471213822+470247469+469748547+469747367+471441434
3658+475360935+479547369+481359086+481355085+482518623+486425342+490790021
3648+491050248+486235987+479778637+475021171+472727055+471940040+472097933
3638+473467321+475938990+478665993+481269734+484844750+490616267+496522274
3628+497436351+492861130+487260084+484111968+484781938+488670723+492642240
3618+493292635+491084273+488774699+487671036+487704255+489002628+491365457
3608+493274212+493805663+494389332+496604142+499585414+500917985+500127631
3598+499676954+501598606+504977472+507569497+508816284+509907281+511505318
3588+512622626+511659210+508301299+504135706+501612193+502167306+504815809
3578+507126477+507790920+507289867+506422309+505752339+506294671+509280030
3568+514243692+517954924+517490257+513589497+508973515+505618713+504044569
3558+503852335+504656679+506398935+508662912+510417949+511475669+513183324
3548+516107426+518081986+516586140+512430046+508708336+507263730+507719761
3538+508564175+508252881+506229614+503798159+503315242+505572195+508380404
3528+508988196+507509103+505877041+504648331+503306548+502173178+501762975
3518+501338609+499971897+498448992+498581697+500816772+503463548+504507451
3508+503734945+502482457+501812660+501734592+501800742+501680358+501224212
3498+500699267+500842507+502158555+504005362+505005049+504909824+505130039
3488+506414249+507101088+505443348+502335820+499617136+497554778+495489195
3478+493130051+490360934+487384383+485326630+485327379+487085582+489133260
3468+490471070+491371329+492377983+492982608+492081715+489826086+487878182
3458+487633096+488799398+489587621+488427768+485728313+483508437+483128804
3448+484000393+484714866+484672320+484111795+483279126+482125749+480579844
3438+478703934+476708273+475051972+474338650+474810773+475926526+476642151
3428+476340990+475270373+474188617+474077732+475543382+477808366+478962462
3418+477873135+475306759+472744096+471009699+470379080+470939892+472213998
3408+473129227+473126838+472881838+473388130+474604520+475459038+475212743
3398+474322415+473765402+473875826+474248492+474568019+474992874+475600637
3388+475858418+475169794+473816843+472772364+472746140+473819606+475536070
3378+476985513+477396176+476945788+476479221+476601706+477446264+478912950
3368+480701494+482254567+483037379+483070944+483045382+483686220+485033932
3358+486388323+486825528+486124008+485385469+485885831+487337692+488505951
3348+489249556+490309579+491527005+491968816+491440474+490468479+489231594
3338+487754286+486656150+486460058+486602953+486369555+486269724+487207866
3328+488952022+490614425+491846993+492598543+492624565+491901917+490717307
3318+489269707+487891769+487201245+487274247+487294570+486667549+485818702
3308+485331870+485009176+484426601+483806374+483653749+483953817+484309787
3298+484578880+484817575+484949013+484822642+484281001+483467560+483101860
3288+483858707+485632398+487566657+488672796+488800491+488936880+489899088
3278+491189861+491920225+492122246+492226049+492098239+491301494+489723780
3268+487854116+486693054+486911368+487927176+488384991+487609491+486173117
3258+485068246+484655221+484586192+484476459+484385322+484571684+484919133
3248+484954713+484467765+483910810+483889048+484319517+484505533+483929233
3238+482575015+480838603+479563202+479608799+481118779+483490186+485656751
3228+486309794+484972791+482907553+481704175+481312309+480517694+478966550
3218+477641061+477483024+478365984+479280838+479148853+477648488+475660023
3208+474807088+475848889+477483312+477557667+475620960+473263025+471958607
3198+471734881+471867528+471973806+472106568+472273500+472474974+473020818
3188+474019469+474579245+473491847+470867841+468058135+465904150+464078817
3178+462161311+460507083+459744508+459863078+460146507+459877068+458981213
3168+458157323+458336344+459601728+460820334+460889680+459960692+458903490
3158+458224913+457965031+457755209+456808258+454892623+453088275+452434396
3148+452346224+451626972+450418931+449731430+449721009+449723657+449396646
3138+448871557+448273610+447717576+447393127+447336044+447349660+447139175
3128+446498941+445584864+444778476+444069961+443024360+441715941+441081090
3118+441752528+443001878+443377308+442298516+440543911+439136813+438338716
3108+437869385+437550866+437412347+437500404+437710111+437659534+436999610
3098+435869291+434692425+433670976+432893806+432599035+432864214+433451596
3088+434270736+435493228+436963196+437953383+437781674+436574093+435187116
3078+434269182+433693256+433114884+432609341+432324069+432058977+431734154
3068+431695206+431963637+431789999+430618516+428985244+427865576+427555664
3058+427605867+427573253+427502179+427601780+427716176+427457244+426809727
3048+426231960+426107315+426446158+426967821+427130866+426448605+425106074
3038+423846764+423110874+422780178+422674475+422696093+422588893+422080759
3028+421247888+420470834+420043848+419888777+419654975+419245837+419058698
3018+419376497+419805844+419748847+419166099+418411757+417634645+416858770
3008+416318683+416197839+416313905+416411260+416446149+416289897+415522659
2998+414011239+412466773+411909271+412625184+413939072+414906029+414944142
2988+413951681+412319676+410799218+409885284+409408614+409083128+409163413
2978+410032440+411388816+412422183+412642887+412071165+410951784+409836780
2968+409474966+409948931+410328880+409779179+408524762+407195963+405950182
2958+404838805+404330095+404812177+405972635+407056896+407515202+407257910
2948+406500258+405539720+404668908+404126173+403919431+403761164+403428770
2938+403062984+402787932+402356369+401582135+400749495+400244873+400194266
2928+400613566+401360827+401863665+401530781+400490534+399348096+398399879
2918+397639750+397233404+397387468+397825450+397941084+397569685+397142670
2908+396971997+396885350+396711165+396577252+396550999+396486086+396368782
2898+396389422+396556065+396555576+396135182+395447940+394860587+394551193
2888+394501306+394731452+395210569+395576327+395342237+394471052+393479972
2878+392967433+393154947+393773130+394260596+394181376+393566158+392819386
2868+392331086+392289058+392693533+393243580+393386877+392908019+392259178
2858+391925056+391830235+391710369+391573894+391449422+391131363+390455147
2848+389560328+388765656+388319240+388315526+388706673+389215642+389329434
2838+388743203+387809407+387130945+386786835+386434895+386052384+386009406
2828+386396379+386727276+386486278+385747653+385043658+384743965+384756602
2818+384742295+384498159+384189312+384190118+384593154+384995355+384939193
2808+384419976+383792034+383341069+383093681+382858296+382376645+381599965
2798+380825990+380466479+380695330+381307641+381834803+381871016+381426355
2788+380887823+380540115+380291315+379976826+379689914+379620136+379753100
2778+379849246+379590746+378779982+377594826+376606538+376304312+376582041
2768+376853581+376677007+376119878+375548588+375286144+375447606+375849403
2758+376076440+375868316+375416891+375094802+374978275+374798016+374305945
2748+373597027+373034458+372858546+372929677+372891794+372526929+371907047
2738+371280746+370883640+370793107+370869276+370843454+370551361+370111076
2728+369790945+369699318+369725744+369756286+369773644+369759309+369692784
2718+369641688+369628734+369419603+368727813+367704694+366951416+366904236
2708+367396912+367894913+367981214+367620062+367148314+366963132+367076089
2698+367095635+366736614+366139674+365624833+365372896+365393910+365583266
2688+365771009+365823112+365665249+365241286+364609774+364029934+363726729
2678+363594255+363363907+363045158+362913317+363048065+363154948+362911561
2668+362348647+361842326+361750844+362060986+362442634+362621166+362561348
2658+362349770+362106785+361970857+361955830+361877100+361556911+361013975
2648+360433530+360056488+360006256+360114089+360072724+359866183+359805789
2638+360010258+360136312+359844507+359315992+359043761+359241983+359683333
2628+360018922+360066909+359834144+359410699+358925824+358582002+358562859
2618+358782843+358894879+358710733+358430327+358306172+358319903+358323185
2608+358259078+358120674+357891449+357634792+357499353+357549469+357686405
2598+357811251+357956190+358122372+358105360+357707189+357092546+356711330
2588+356854599+357427704+358096119+358464957+358206716+357329226+356345630
2578+355902726+356204837+356950285+357727368+358293305+358571840+358571207
2568+358310576+357814561+357221134+356794983+356711071+356880910+357074785
2558+357175393+357223235+357221048+357057197+356723219+356420187+356276313
2548+356162090+355944408+355713572+355650933+355832430+356174640+356489331
2538+356666021+356791615+356961367+357081924+357048244+356954084+356934107
2528+356935604+356787067+356458415+356178671+356187220+356359678+356302048
2518+355925122+355626897+355724165+355987588+355986667+355725720+355638987
2508+355987242+356535763+356898095+356982669+356946917+356868532+356700881
2498+356511986+356531100+356859838+357253346+357345404+357070323+356701255
2488+356470447+356329510+356143839+355962889+355946280+356097234+356273866
2478+356486222+356918936+357532111+357927461+357817642+357367857+356873138
2468+356415207+356038280+355905086+356060043+356326401+356551078+356712050
2458+356816342+356940612+357248394+357707074+357946258+357660987+357038946
2448+356587607+356600705+356930940+357263248+357447537+357469991+357283715
2438+356916231+356610435+356578453+356737152+356892942+356983014+356970320
2428+356792191+356539304+356409133+356475284+356722096+357174356+357769022
2418+358282625+358560729+358649246+358638163+358566083+358493081+358497975
2408+358593430+358752157+358994306+359341151+359697524+359911262+359962847
2398+359981702+360098775+360453306+361322736+363024720+365667725+369218819
2388+373930889+380542705+389871881+402247154+417466073+435277332+455683092
2378+478634213+503539601+529125582+553874747+576988395+598875752+619952719
2368+638907165+653121848+661171160+664285367+664540585+662022771+654762892
2358+641528149+623165490+600910994+575515290+549450941+527809764+515123283
2348+513309062+521944116+537919823+555512336+569666395+578604222+582872064
2338+584507236+585809638+587447055+588694706+589147226+589057758+588154677
2328+585519819+581123763+575975409+570474482+564106859+556765169+549081672
2318+541499387+533963390+526251049+518107491+509460001+500662766+492113380
2308+483687602+475027216+466293771+458080550+450652415+443802020+437398357
2298+431574419+426372609+421615258+417079934+412571037+408074431+404020183
2288+400997574+399020308+397444551+395762861+394090383+392739504+391725510
2278+390861090+390042986+389268407+388521808+387782434+387093897+386533459
2268+386096168+385660546+385109031+384439695+383733598+383085678+382587706
2258+382280442+382092439+381908956+381713699+381580160+381515995+381425664
2248+381283288+381212877+381275516+381309051+381160025+380960076+380948965
2238+381105591+381192007+381114399+380989266+380861628+380624688+380263940
2228+379932179+379698118+379425311+378972792+378362698+377731272+377239403
2218+376993021+376929980+376837634+376603400+376393347+376441161+376701676
2208+376893968+376883548+376800154+376743762+376635727+376466695+376467673
2198+376867427+377577295+378236125+378554615+378568490+378572635+378846047
2188+379404844+379979618+380279974+380291488+380258067+380419731+380847695
2178+381453932+382065869+382527485+382778731+382865752+382908960+383016649
2168+383172843+383270111+383280215+383299560+383420490+383639611+383867223
2158+383992559+384006290+384044143+384240149+384594680+385019103+385404666
2148+385624304+385609451+385473752+385420786+385473954+385505273+385605104
2138+386108488+387085693+388119521+388799048+389157810+389457100+389819058
2128+390239653+390765491+391485981+392398215+393394707+394409018+395460808
2118+396502609+397383380+398049982+398617215+399184015+399749376+400289203
2108+400739103+400966024+400924601+400748689+400568372+400355412+400016022
2098+399519460+398938699+398492743+398466288+398898628+399415456+399572859
2088+399372248+399245070+399472337+399823126+399939912+399893048+400021463
2078+400352072+400577612+400583197+400656630+401106760+401832172+402388120
2068+402533922+402547941+402800252+403233686+403555602+403707651+403850027
2058+404058209+404275718+404483727+404767069+405191810+405700779+406231423
2048+406865555+407722030+408799527+410026250+411278824+412299900+412874242
2038+413135131+413473858+414152810+415122300+416171010+417202103+418329745
2028+419641532+420980781+422133093+423118646+424153078+425406631+426864335
2018+428344205+429667967+430852720+432059236+433377414+434776999+436217374
2008+437686766+439156359+440588875+442002134+443458082+444946588+446341653
1998+447586253+448921530+450751296+453110584+455385442+456852243+457462108
1988+457779648+458329522+459300337+460615377+462042625+463427788+464904463
1978+466680427+468678621+470608506+472318435+473964890+475889305+478274127
1968+480858293+483153618+485001634+486675149+488450394+490419312+492658418
1958+495202657+497837746+500214968+502204555+503949805+505646521+507489932
1948+509773023+512786477+516482971+520243139+523186528+525016927+526350707
1938+527963655+530113581+532604682+535057208+537191762+539123374+541151189
1928+543318329+545639418+548376928+551504088+554516046+557313431+560269889
1918+563061862+564780571+565465222+566069732+567082201+568262089+569272255
1908+570037680+570789000+571879363+573377858+575055920+576861736+578989151
1898+581383588+583529368+584847489+585316473+585621665+586430269+587592310
1888+588384391+588458314+588076033+587667442+587619484+588192099+589287645
1878+590368509+590800532+590483539+590217439+591187707+593843003+597104825
1868+598833436+597854302+595082422+592160335+590122157+589225466+589053152
1858+588717275+587554773+585779816+584190530+583360509+583279907+583629257
1848+584319089+585514292+586686409+586210112+583424990+580013998+577791300
1838+576925181+576388664+575463475+574765007+575373605+576977629+577734419
1828+576764439+575054481+573092874+570372406+567313930+565168033+564128161
1818+563222317+561879901+560689189+560498221+561260710+561875295+561297211
1808+559791635+558609386+558748999+560381522+562803708+564616835+564714766
1798+563563260+562925646+564311932+567657003+570616455+570341317+567354863
1788+564759500+564390921+565880665+568006698+570026338+571688971+572872257
1778+573851794+575485813+578736006+583614691+588148863+589846960+588953610
1768+587385395+586185586+585947121+587255972+589627840+591533256+592524825
1758+593467343+594570833+595673172+597703520+601755696+607043548+610993706
1748+612199790+611793847+611520493+612317641+614203021+616391694+617909878
1738+619104160+621738270+626437387+630234632+629645148+626308482+623135494
1728+620885162+619843274+620450778+622450959+625364410+629737609+636397469
1718+643943253+648050814+646451683+641910775+637910299+636185833+637119542
1708+640207611+644186497+647697722+651003357+655693492+661370591+664385255
1698+663556327+661812056+659926272+657140402+654882470+654899799+657119100
1688+661117157+667815303+677041741+683067038+680750382+674764637+670936418
1678+670860768+673477088+676312068+677857599+679611888+683061971+685989988
1668+685056164+682034074+681250628+683632514+686260694+686641362+686264033
1658+687864027+692706845+701043559+710753144+715067504+713181547+712435294
1648+715368262+718075547+715548291+709491157+704930732+704361283+708072746
1638+714926797+721696217+723629614+720581904+717887458+718693068+722481678
1628+727331404+732089129+737069027+742296601+746568530+749684521+753894215
1618+761507474+771223565+777769834+779006604+778003636+777656301+778635953
1608+780117579+781211340+782016029+782956820+783646249+783578198+783433058
1598+784116731+785070130+785260406+785378660+786997596+789864529+792046580
1588+792757945+793432348+795658557+799208759+802447840+804319691+805539708
1578+807458711+810012681+811841756+813352455+816559641+821705059+826107275
1568+827090093+826162429+826757613+830466830+837453240+848097744+860209537
1558+864222046+857353946+849241419+845050552+844307350+845163221+846514157
1548+848272591+850497189+852775731+855200335+859646997+866689196+870087349
1538+864907272+857340417+853166360+851775238+849448680+845270766+842357373
1528+843251817+847559499+853047819+858312642+863180849+866960707+868827434
1518+869133201+868361731+866705431+865268251+866304497+872138941+883747494
1508+898363514+906369302+900997279+891584652+887198672+888497563+892545133
1498+896196374+898461560+900351662+902677011+905686148+909252931+911737180
1488+911145623+908594993+906791077+906841338+908679970+912056246+916242220
1478+920047928+922988611+926133331+930576826+934441258+934005666+929612604
1468+925719616+925871779+929498150+931926611+930517124+928085323+927824578
1458+928849942+926677505+920193586+913595271+909883464+909981394+913427505
1448+917605765+919000686+916702569+912863008+909575739+907565829+907400481
1438+909837751+913814795+915860342+914697552+912797088+912285730+912625752
1428+912044904+910660691+910266838+911447591+913308618+916043825+920558653
1418+924091008+921916901+915343572+909786454+908006776+908796785+909820019
1408+910271617+910682972+911238315+911576783+912155961+914148485+917213351
1398+918641319+916368476+911856297+908198838+906741680+906785435+907610333
1388+909171005+911113843+912442039+912715162+912860475+914622133+919292060
1378+926484004+934159844+939943740+942665936+942883790+942132298+941721749
1368+942200981+944229142+948473322+954525908+961255546+967582925+971911103
1358+972954775+972015194+971919393+973223178+973776218+972395747+970563563
1348+970631614+973584732+977810086+980480524+981073405+982325950+986798980
1338+993177080+997120099+996537581+994361114+994813633+998813188+1004094880
1328+1008435033+1011265983+1012774955+1013637390+1015357077+1019048850
1320+1023362174+1025405188+1025049506+1026109529+1032034305+1041532484
1311+1048672843+1048866632+1045054418+1044324400+1049296352+1055618838
1302+1058453242+1059600430+1063775695+1070503951+1073741823+1069875030
1294+1062399485+1056556577+1054528647+1055658563+1057295001+1055272482
1285+1047825608+1039265283+1035712260+1037702883+1038919273+1033621460
1277+1024531930+1019036184+1019687328+1021596889+1018482107+1009977858
1268+1000951772+996029217+996652726+1000731500+1003298884+1000056521+992351147
1258+985391795+981767958+978998035+973552492+966453009+962134216+962580632
1248+964997752+964969138+960583791+952599651+942319868+930856686+919386479
1238+909274117+901814289+897004806+892724701+886699174+879197317+871901973
1228+864987240+857607668+850246058+844347190+840584776+838951850+839245124
1218+840576946+841787291+842636944+843157053+842450525+839964664+837163766
1208+836243759+837809095+840653690+843526495+846692747+851268544+856948636
1198+861380790+862984297+863417414+865252707+868650975+872048265+874659173
1188+876681288+878227165+879819272+882750283+887423722+892471210+896255962
1178+898510382+900528985+904170554+909969419+915864603+919137133+920259795
1168+922972088+929824643+939065646+946567790+950673911+954169938+960540784
1158+969352816+976276472+978161623+976955251+976557886+978213668+980595093
1148+982848707+985415400+987910703+988735715+987664178+986885799+988249919
1138+990402321+990156487+986520444+982521235+981484241+983426619+986984017
1128+992371643+1000057328+1006531804+1006164953+1000187441+996775010+1000159806
1118+1006360584+1008958942+1005951244+1001253337+999971545+1003846628
1110+1010894641+1018350727+1025331265+1031655824+1035637876+1034962667
1101+1030019501+1024741378+1023532243+1027478831+1032745669+1033848181
1093+1029519082+1023050707+1017420242+1013610216+1011934974+1012300444
1084+1014128482+1016630118+1019134172+1022830435+1028662289+1032384690
1075+1027548263+1015316316+1003763723+997203579+993503861+989956480+986449400
1065+983903894+982345294+981131898+979658966+977927418+978118674+982601491
1055+989867819+994550643+993031192+987695727+982579153+978445685+975331940
1045+975325376+979003331+982918255+983667732+982171771+981341692+981850287
1035+982923436+983672338+982796662+979597018+974966700+970913028+969282577
1025+970274780+972788276+976870965+982854349+988642909+991017425+988903711
1015+983683161+977342943+971991244+969618455+970405009+971471595+968601266
1005+960553853+950694868+942821036+937429611+933123829+929235677+925804189
995+922526362+919275652+916222933+912519819+906688541+899100038+892355777
985+888476088+886751046+885015757+882426381+879983123+878535004+877407622
975+875260920+871525104+866881545+862847044+860509259+858810988+855266371
965+849429911+844181784+842129098+842476317+842680354+841879349+841270463
955+841730121+842689853+843400872+844418464+846901044+850443819+853337350
945+855410532+858236531+862165617+865936839+869643178+875272664+883488764
935+892062734+898198915+901183986+902544825+904367222+907499103+911433543
925+915727523+920727283+926179043+929634539+928192638+922660276+917435466
915+915563672+916588057+918931945+921408652+922491128+921387811+919675377
905+918968906+918872185+919200750+920790670+923102605+924696842+925746905
895+927517659+929861835+931335170+931358659+930458112+929402177+928686264
885+928159822+927674717+928194250+931075115+935913788+940807326+945183577
875+949817522+953403707+952620607+947487970+943084948+944358565+951447627
865+959682668+963569092+961431257+956606920+953429845+954271841+958752470
855+963815214+965979188+964740576+962521044+961415194+961442310+962162426
845+965657243+974025737+983223734+985833951+981752644+977511400+976633652
835+978118213+980900687+984026408+986102584+988098158+991914287+996249950
825+998199696+997704689+997212215+998037573+998475353+996242926+992146189
815+989168084+989307409+993210242+1001314248+1011607502+1017891299+1016173454
805+1010515239+1007589294+1009528217+1013427711+1015296857+1012845769
797+1006418272+1001649550+1004476009+1012835291+1017163699+1011733586
788+1002135921+996321455+995110592+993570185+987527501+977159863+967407790
778+963500869+965864677+970110468+971394333+969146476+966353409+963718435
768+958894156+952850321+949969858+952111149+956981831+962105544+966665566
758+970324292+972590687+973105960+972359822+971892795+972467252+972456429
748+971285982+971944264+976112506+980451162+981745275+982951186+987979214
738+993438229+993084274+988785573+987440912+990716091+993982979+993047658
728+988423443+982965003+979104889+978597331+982136652+987989232+991380246
718+989162902+985431060+986856667+993311224+996815656+991989822+984226990
708+982263772+986716536+990349239+988184978+982960973+979834216+981280550
698+986625687+992879892+996728031+997514009+997792890+997200930+991827123
688+982720666+975396651+972917238+974138003+975219443+972868532+966883651
678+959818481+953778618+948127657+942225853+937540093+933571109+927576268
668+923549654+929038722+939390527+943742195+939552709+932833376+929178623
658+928432369+928901757+930033228+931250308+933213469+936236078+937189534
648+933234598+927383631+925698832+930777639+938877615+943806042+943799191
638+941419666+935554478+923296221+910411978+906384847+911346436+916712989
628+920607590+931720962+954162511+975821881+976558692+954677669+926734790
618+906720321+902020974+913263021+930776199+937687708+929401889+915841746
608+901020308+887617799+882722533+887193260+892318470+889287974+879534864
##END=
