##TITLE=<SNM>
##JCAMP-DX=4.24
##DATA TYPE=INFRARED SPECTRUM
##DATE=29/4/2025
##SAMPLING PROCEDURE=Instrument type and / or accessory
##ORIGIN=Admin
##XUNITS=1/CM
##YUNITS=ABSORBANCE
##RESOLUTION=4
##FIRSTX=4497.3318
##LASTX=599.83466
##DELTAX=-1.4281778
##MAXY=2.1210849
##MINY=0.38590086
##XFACTOR=1
##YFACTOR=1.9754143e-09
##NPOINTS=2730
##FIRSTY=0.39787108
##XYDATA=(X++(Y..Y))
4497+201411462+200953613+199827276+198372956+197382655+197248264+197819549
4487+198775588+199654866+200111146+200549352+201706013+203288448+203949800
4477+202961204+201144097+199867995+199720493+200302142+200952527+201453976
4467+201949239+202403211+202564366+202407586+202200839+202124802+202159577
4457+202299671+202536365+202590224+202075786+201166515+200634591+200939250
4447+201638591+201893615+201337975+200369534+199719361+199864163+200717522
4437+201701668+202142785+201775200+200976695+200406512+200409831+200852351
4427+201243532+200864632+199425369+197836974+197382565+197878673+197832795
4417+196706383+195580861+195351861+195808955+196523397+197225438+197448810
4407+196975407+196393788+196465540+197260650+198244343+198831846+198808718
4397+198524486+198573985+199169590+199977569+200482578+200400718+199935613
4387+199568827+199410478+199137652+198698857+198438538+198368385+198015660
4377+197256727+196674791+196820000+197532300+198158289+198213672+197767455
4367+197320785+197359784+197978803+198849256+199468381+199537960+199284897
4357+199304600+199877575+200634259+201131725+201387700+201563339+201616036
4347+201542564+201422626+201053532+200102094+198737208+197620843+197138147
4337+197058685+197028678+196979858+197085721+197574180+198448329+199297660
4327+199710566+199841005+200022150+200079087+199807860+199684677+200116698
4317+200575648+200512148+200357646+200608356+200839709+200551524+200092288
4307+199973435+200049095+199966058+199857434+200138076+200895258+201742070
4297+202217328+202258092+202143766+202022108+201804453+201535519+201482474
4287+201727994+201969395+201867862+201518908+201402591+201725414+202035836
4277+201847767+201401308+201373504+202025457+202965836+203631442+203810913
4267+203751019+203824174+204104031+204304713+204158101+203801469+203693237
4257+204074250+204633496+204836954+204475720+203898385+203813538+204586078
4247+205625215+205988712+205649549+205412493+205615227+205762940+205444809
4237+204957617+204950405+205658903+206522672+206676511+205906022+204881158
4227+204406080+204701054+205395068+206025704+206428803+206629244+206665090
4217+206685683+206832054+206899642+206594801+206102223+205824358+205696363
4207+205371609+204914695+204721541+204878140+205078491+205118078+205174849
4197+205556223+206255594+206914924+207313739+207699413+208363345+209071707
4187+209345017+209132989+208742442+208342330+208026099+208055503+208604460
4177+209486016+210336042+210827850+210778713+210423634+210392088+211006566
4167+211877215+212454233+212503898+211937803+210860437+209896267+209795005
4157+210560364+211406784+211558812+210860286+209809760+209185476+209497346
4147+210700972+212263583+213370111+213444504+212777811+212246536+212312509
4137+212792128+213458293+214221329+214814957+214940327+214722401+214566556
4127+214578746+214488196+214130703+213651975+213192376+212722367+212296397
4117+212173999+212556007+213366581+214320508+215159852+215863220+216572593
4107+217292361+217775902+217771995+217351515+216936935+216921245+217213986
4097+217338330+217061505+216691174+216613025+216786009+216923719+217033957
4087+217456790+218275737+219052471+219332751+219033824+218265176+217379064
4077+217192970+218303013+220056848+220977645+220370966+218951135+217890289
4067+217762415+218292604+218815038+219051732+219302864+219740135+220050843
4057+220044779+219963235+219924795+219688237+219127180+218500014+218235818
4047+218617766+219473901+220209238+220446309+220410267+220412968+220365671
4037+220032000+219460293+219072446+219428339+220693398+222250940+223213044
4027+223387144+223317504+223405429+223560776+223704370+223914240+224038388
4017+223853396+223569948+223453630+223136479+222094537+220663209+219929125
4007+220630562+222443249+224284149+225240489+225198458+224584719+223817414
3997+223236836+223136585+223463693+223768624+223745028+223575998+223605930
3987+223941124+224444112+224897073+225115301+225019591+224713197+224523422
3977+224808032+225552179+226247838+226456848+226420263+226735438+227488275
3967+228108863+228170009+227996800+228260831+229078224+229768602+229648603
3957+228828269+227995110+227685110+227992244+228691056+229336084+229494132
3947+229258086+229368807+230405514+231925084+232808571+232554271+231701877
3937+231013037+230972560+231812492+233176760+233855160+232869672+231002446
3927+230200246+231441799+233626160+234735826+234281976+233751470+234440687
3917+235767902+236129408+235019606+233304755+231824667+230877514+230854899
3907+232517580+236239872+241068223+244980893+246582322+245834765+243189855
3897+239509534+236474544+235772096+237624673+239965769+240266204+239288500
3887+240000860+242984465+245527677+246149035+246594542+247209760+245868001
3878+242752177+240832797+241600193+244237319+247772506+250952146+251222725
3868+248223264+245194700+244391956+244569752+243563430+241634605+240554856
3858+241760563+246580482+255693931+264624033+264760687+256979039+248217531
3848+242376082+240639794+242630141+246707089+251056229+254994968+258338947
3838+260002519+259052786+256425421+253619099+251204440+249253514+248134660
3828+248110174+248794594+250274576+253950250+259949715+264293968+263949721
3818+261759235+260305488+257947842+253398894+248892069+247102931+248919737
3808+253012360+256637448+258981818+261793692+264971176+265387748+262604598
3798+259789043+258072246+256027074+253183699+250783750+249778800+250227053
3788+251982547+254591461+256896184+258220065+259554929+261913752+264060668
3778+263862068+261714035+260284125+261741674+266317807+272188192+276721178
3768+279033413+280201419+281081271+282172305+284557047+288873419+293728384
3758+296955864+298929857+302404396+309747054+320812636+331307280+336233816
3748+336872704+337867395+340967937+343486949+343404456+343401589+346773358
3738+354210156+363425817+370934156+374912859+375687799+374650473+373748112
3728+374795365+378371255+383391569+388332558+392408419+395112605+396303271
3718+397108112+399486185+404997177+413924532+424228180+431990819+435572412
3708+437006727+438520458+441362385+446117205+451808571+456188850+458392221
3698+459400218+460132100+461200052+463817037+469430768+477526549+483373761
3688+481743320+474621862+468352829+466678516+469709388+475523499+482583856
3678+491069053+499888660+504114030+502125070+498995563+498159915+497825746
3668+495821972+493560216+492442146+491862096+491168896+491512298+494872359
3658+501367662+508061202+512201996+515546096+522090973+532388315+540497795
3648+540178441+533854674+527704885+524977466+525781040+528426327+530782556
3638+531952131+532756127+534364662+537485118+543146160+551929892+559567523
3628+558166700+549444220+542424356+541585178+546337946+554062234+561728047
3618+566635664+568063703+567821352+568372013+570652688+573428324+574875492
3608+574396040+572910853+572044096+572960457+575645815+578771401+580908873
3598+582286281+583944904+585432203+585480722+585046408+586669366+590373554
3588+592650245+591255879+588563884+587178691+587091852+587776121+589230652
3578+590722718+590899775+589546867+588114544+588644084+592443558+599297832
3568+607333569+613592826+616011995+614699399+611078671+607221505+604815793
3558+604198267+605028152+607092967+609797696+612050853+613889670+616760050
3548+620904043+624237461+624933015+623750224+622752878+623121112+624628929
3538+625954741+625553376+623252546+620671286+619409079+619527117+620288509
3528+621632907+624043930+626820833+627572570+624893971+620957208+619283016
3518+620537317+622336306+622841466+622879605+623903142+625633094+626709434
3508+626797781+627112126+628780465+631435106+633515370+633840818+632700934
3498+631285266+631184910+633632623+637827125+640961763+641042929+638708003
3488+635733103+633301804+631864230+631233006+630786442+630289851+629958126
3478+629844433+630400043+632894344+637346285+641215882+642099656+640315452
3468+637805763+636391060+637100916+639394444+641296565+641590935+640727799
3458+638971596+635843476+631764236+628350677+626763806+626937423+628152922
3448+629416335+629633462+628595563+627688918+628619279+631246222+633305183
3438+632797910+630105009+627019796+624764346+623678411+623893366+625571903
3428+628439266+631343319+632760918+632212127+630301075+627457972+624492063
3418+623348558+625000422+627722229+629465820+630499977+631779624+632861516
3408+633298243+634001159+635381222+635710352+633138928+628637081+625056001
3398+623818777+624267031+625725666+628304029+631558273+634446818+636842392
3388+639177438+641035385+641210028+638930018+635402585+633444402+634461240
3378+636705647+637786452+637782107+638640173+641456181+644987536+646386247
3368+643976431+639716091+637385329+638178583+639888621+640480922+640616641
3358+642006179+644821885+647504829+648345033+646870105+644187644+642035870
3348+641439405+642361077+644110159+645815550+646850553+647251314+647702645
3338+648832633+650268758+650870352+650120668+648629265+647457940+647252581
3328+648050422+649582076+651157360+651685694+650652803+648770838+647322583
3318+647079930+648123260+649602775+649804211+648447743+647609893+648589678
3308+649972035+649997561+649103226+649193686+651114212+653358860+653532537
3298+651369357+649467116+650176670+652662160+654111562+653539899+652743869
3288+653042886+653082473+651201956+648402966+647153734+648541340+651502602
3278+654342689+656213972+657001796+657001071+656887017+657166723+657538457
3268+657796438+658541295+659290255+658237450+655189169+652386316+651104557
3258+649682191+646541519+642965386+641203933+641839080+644342915+648472364
3248+653735060+658875554+662943027+665585056+666134812+664188819+660918885
3238+658046514+656243965+655496573+655629637+655887981+655469900+654796011
3228+654871384+655830471+657169076+658266356+658238476+656683709+654640016
3218+653552934+653724499+654623119+655409312+655144090+653626376+651666745
3208+650124832+648929308+647733965+646430119+644570904+642055301+640652125
3198+642494141+646246304+647802277+645945114+643593774+642966895+643114925
3188+642555513+641884521+642544530+644301759+645351184+644490644+642069845
3178+639121376+636524969+634749516+633795196+633502094+633792360+634344772
3168+634419420+633437885+631546807+629525563+628228596+627538594+626281396
3158+623747991+620869162+619390674+619857816+620723305+619988466+617918521
3148+616763128+617584805+619062872+619581851+618987680+617709481+615907113
3138+614254766+613675802+613616904+612343955+609721056+608101900+609491800
3128+613107459+616371479+617356997+615876698+612994792+610008728+607685932
3118+606299773+606119518+607181857+608648760+609167136+608167979+606185658
3108+603859301+601199289+598167241+595526298+594239590+594336084+595063501
3098+595917283+596661113+596828333+596153780+594938282+593570650+592378445
3088+591811007+592055712+592812758+593606676+593780897+592646021+590426598
3078+588641006+588612462+589712277+590144961+589487004+589036940+589649698
3068+590625862+590886257+590222929+588843046+586913649+585107962+584413494
3058+584898378+585436790+585092815+584319354+584301431+585380003+586524836
3048+586314770+584357915+581491397+578958294+577809055+578288387+579460678
3038+579950993+579317416+578149108+577052190+576332136+576129009+576040119
3028+575201363+573356330+571186693+569446603+568631020+569131172+570598074
3018+571665663+571351862+570048800+568448231+566682976+564955015+563586839
3008+562263320+560552800+559116010+559144313+560612663+561981683+561848861
2998+560420701+558874081+557605297+556006839+554101339+553098562+553645602
2988+554654294+554663949+553663525+552772389+552664851+552996033+553087156
2978+552707335+552067602+551342721+550594304+550045875+549901948+549809196
2968+549030485+547276454+545022393+543005855+541651258+540899703+540483312
2958+540419103+541000421+542085631+542882627+542826083+542145435+541204995
2948+539899158+538097152+536137581+534536468+533509734+532939218+532686789
2938+532773265+533024910+532732169+531390667+529765597+529077707+529190917
2928+529027318+528640738+529129967+530496272+531244025+530316198+528244986
2918+526220181+524841385+523851039+522789423+521738490+521187828+521253183
2908+521438990+521177931+520182697+518452745+516484544+515197294+515083963
2898+515620986+515874683+515440128+514585984+513824955+513367890+512797676
2888+511572160+509995367+509062049+509185216+509848786+510581995+511410613
2878+512199824+512396312+511764122+510757121+509828328+508894768+507757720
2868+506636422+505880190+505383327+504803398+504202468+503943249+503958396
2858+503768969+503347479+503127667+502963826+502050724+500243015+498525282
2848+497768749+497868411+498335312+498809122+498765461+497706290+495996916
2838+494695967+494213738+493902592+493239022+492525394+492131392+491857993
2828+491304585+490292514+488826186+487153955+485843410+485379798+485624262
2818+485892743+485751171+485459607+485263752+484663063+483167798+481433380
2808+480579779+480642208+480670691+480161458+479476555+478956308+478393065
2798+477498428+476495077+475876435+475622890+475150980+474250943+473429748
2788+472934002+472179791+470692190+468949384+467743330+467208238+466975149
2778+466896578+467053570+467243963+467029823+466226038+464934624+463360335
2768+461957853+461329978+461577248+462130172+462438392+462356200+461843526
2758+460881030+459633427+458325629+457160368+456379606+455970004+455484034
2748+454620566+453720981+453242222+453060519+452675267+451828968+450739473
2738+449918761+449744873+450065433+450295172+449976543+449145572+448107612
2728+447023941+445908647+444919448+444269275+443825457+443232884+442497472
2718+442014127+441980605+442160588+442218219+441990622+441442374+440556579
2708+439389991+438236196+437515991+437310723+437237583+436994417+436675063
2698+436361925+435893667+435188247+434355767+433457570+432500385+431593075
2688+430857090+430314846+429986592+429889856+429869489+429623185+428966555
2678+428005839+427024455+426258779+425797219+425575506+425375668+424921290
2668+424125893+423239705+422651116+422527224+422710859+423032867+423523545
2658+424073150+424167049+423340936+421726095+419912804+418515240+417904473
2648+417985217+418242232+418254724+417996532+417574106+417038561+416477792
2638+415961920+415470398+415107022+415113086+415415271+415453803+414730097
2628+413391824+412130281+411566524+411773663+412292583+412556780+412354468
2618+411906546+411549144+411469819+411646212+411816449+411641987+411102671
2608+410523164+410086346+409664101+409172821+408720011+408423891+408332556
2598+408377092+408346979+408134077+407890066+407773114+407821060+408077864
2588+408399058+408299155+407533479+406552486+405897365+405539691+405197708
2578+404864022+404677069+404633408+404683013+404829866+404992801+405012776
2568+404902764+404865018+404987038+405113555+405091558+404993405+404980461
2558+405013410+404841030+404320843+403628096+403060900+402739886+402553808
2548+402300775+401878591+401441441+401301649+401556854+401928196+402086485
2538+402022095+401982448+402135185+402417093+402678122+402813298+402730985
2528+402409188+402061230+402028673+402402157+402892080+403153622+403155764
2518+403149428+403290578+403460122+403558848+403716353+403975269+404062319
2508+403765384+403287923+402978466+402916008+402930883+402893106+402855510
2498+402931245+403084495+403123811+402935711+402630327+402410515+402379980
2488+402500824+402660470+402767646+402844618+403016153+403337317+403658420
2478+403787803+403762095+403775673+403866525+403875154+403696770+403375244
2468+402978919+402570554+402311879+402442861+403023907+403717590+404009063
2458+403746375+403280470+402983143+402897994+402945064+403136966+403458794
2448+403785630+404003602+404042586+403821205+403363115+402924456+402793595
2438+402973126+403235512+403441957+403604108+403709745+403745711+403846882
2428+404145658+404517332+404705914+404623994+404373677+404099040+403894013
2418+403705249+403366886+402925784+402792659+403291574+404173055+404874130
2408+405186664+405345949+405504570+405552968+405552696+405868067+406607945
2398+407338499+407654835+407712285+407881225+408175535+408350479+408353859
2388+408320004+408191436+407701725+406741159+405428956+403770061+401547802
2378+398695707+395523625+392354198+389115553+385587849+381989841+378962047
2368+376906797+375668246+374848801+374167399+373651316+373716641+374901393
2358+377413979+380988060+385173721+389765002+394623617+398892919+401074595
2348+400222231+396923965+393166431+390724209+389691711+389266540+389017279
2338+388831502+388713796+388911341+389647356+390786155+391973260+392907122
2328+393452322+393758762+394277108+395418652+397155484+399042005+400594569
2318+401599760+402187958+402692424+403348149+404099372+404762368+405300237
2308+405834997+406488579+407274230+408090567+408858868+409684468+410707945
2298+411800819+412716547+413534513+414542541+415672559+416518133+416931839
2288+417142840+417269477+417159888+416753394+416234535+415774212+415372727
2278+414986600+414624612+414289357+413944567+413578113+413250432+413067311
2268+413092536+413257915+413393966+413412251+413430476+413650710+414156384
2258+414867748+415606721+416168365+416452205+416591847+416854052+417326987
2248+417783388+417938116+417795035+417593930+417397894+416954951+416105424
2238+415119906+414422632+414115529+413960770+413741743+413483460+413331115
2228+413306253+413243522+412989102+412615074+412366869+412424198+412743522
2218+413104695+413369978+413715553+414413882+415348709+416067949+416420734
2208+416772584+417478276+418454410+419308313+419708199+419708380+419763084
2198+420275788+421216529+422306386+423335867+424177278+424788407+425287321
2188+425792934+426267589+426690407+427172877+427772389+428394471+428907657
2178+429213584+429288896+429242218+429219829+429287810+429502160+429914749
2168+430395288+430695180+430811166+431026874+431476094+431944563+432263102
2158+432626810+433303898+434307309+435588977+437163809+438734568+439705784
2148+439957761+440058449+440437093+441007910+441743775+442879827+444424727
2138+446068324+447616422+449114252+450644337+452289684+454127324+456141207
2128+458317120+460731733+463316855+465715115+467616240+469078767+470357961
2118+471599258+472778278+473752541+474382076+474783923+475403983+476635383
2108+478398526+480225787+481747635+483018682+484381215+486092520+488093911
2098+490041865+491476422+492037885+491669681+490621916+489192760+487442924
2088+485180323+482240635+478736074+475020783+471447789+468185790+465265322
2078+462707959+460534129+458690966+457086263+455708372+454617187+453827613
2068+453321035+453129586+453257701+453544438+453739477+453731693+453623974
2058+453521234+453316962+452871454+452379690+452258575+452622977+453197325
2048+453793940+454530499+455553402+456848558+458332870+459993032+462013673
2038+464752830+468374614+472525818+476615106+480425292+484235297+488319245
2028+492510610+496311744+499354503+501718245+503801858+505814413+507408978
2018+508032598+507665028+506881730+506153167+505453118+504548766+503369022
2008+502055250+500789633+499607355+498359782+496892186+495244939+493663227
1998+492490876+492066037+492532093+493581096+494505724+494816267+494741287
1988+494800064+495111935+495489764+495965868+496807067+498097547+499635688
1978+501237374+502910781+504695800+506531178+508377659+510345497+512555144
1968+514866716+516877279+518349311+519579836+521120723+523200021+525616475
1958+528096293+530496936+532714970+534644428+536290197+537898009+539911529
1948+542695372+546322799+550555259+554662380+557475854+558540727+558996886
1938+560335190+562778981+565434105+567507369+568964072+570252651+571756243
1928+573603449+575896494+578684321+581538769+583851126+585809007+588070611
1918+590324613+591372590+590977924+590412175+590956139+592716385+594780295
1908+596256068+597111479+597883733+598839138+599799613+600580074+601171409
1898+601543143+601562454+601209125+600874142+601271403+602668967+604231277
1888+604758343+604131283+603109195+602099417+601069785+600125604+599456241
1878+599029230+598689238+598424015+598609761+600029593+603034124+606224219
1868+606841986+603841921+599150526+595059578+592433300+591030304+590180324
1858+589210255+587762603+585867422+583801038+582025765+581024678+581037471
1848+582186046+584482229+586853363+586801947+583243557+578377881+574773748
1838+573151575+572755883+572554688+572409917+572948328+573943864+573755703
1828+571643999+568963891+566718701+564400853+561756169+559639878+558687188
1818+558495468+558307368+557988859+558094345+558946437+559874626+559889954
1808+559103579+558676628+559534091+561700107+564400612+566455952+567141549
1798+566958216+567274130+569388489+573562051+577805374+578888533+576735733
1788+574644607+574969392+577330870+580037047+582257194+584221472+586096437
1778+587957824+590488333+594743966+600729431+605941134+607203039+604988263
1768+602234714+600757734+601109192+603259819+606091155+607870652+608597344
1758+609704582+611394766+612998956+615309140+620064985+627064995+632971346
1748+634801957+633566423+632275129+632769487+635024032+637854281+639971417
1738+641591297+644805109+651065513+657767110+659899151+657505689+653917246
1728+651046805+649932387+651054771+653804036+657533508+662956665+671094025
1718+680440367+686040037+685010526+680345140+676088239+674460876+676402343
1708+681746566+688549545+693901312+697739227+703428934+712641548+721486591
1698+725798830+726776020+725229461+721056622+717083471+716239586+718800630
1688+723958986+732212453+743428932+751613905+750728321+745426159+742304436
1678+743587703+748548304+754380791+758521887+762001706+766893633+771398015
1668+771587020+768616042+767078474+768569575+770849224+771500000+771426498
1658+773167313+778614789+789256951+803752053+812200198+809899790+806713919
1648+808151794+810908481+809104484+803679819+799298423+797734363+799154497
1638+803809805+810034363+811912526+806168447+798370053+794077849+793978217
1628+795553924+796290151+796028006+795055100+792490375+789015323+787569542
1618+789455551+791313619+788420609+782411246+778080542+776907346+777015789
1608+775933233+773241237+770350098+768286852+766731723+765046307+763558283
1598+763121375+763671191+764182266+764134471+764102970+764564018+764902622
1588+764146601+762492926+761420690+761950231+763548326+765359505+767793580
1578+771747119+775769875+775743323+771531441+768034724+768027121+769371037
1568+768115347+764473437+761875703+762627499+767712172+777637056+789212777
1558+792547342+786200583+779404664+775804152+774222954+772781518+770713444
1548+769300250+770911441+776733367+786041811+797152804+806327882+806647537
1538+798819574+792610525+792608232+796228055+798152685+797302282+797548013
1528+801257028+807039790+812655633+818213060+824763851+831364307+836025167
1518+838262935+838311635+837018893+836975262+840743900+848690987+859364891
1508+869953585+874919376+871365270+866008978+864767168+867987799+873732180
1498+879670333+883969356+886220219+888129461+892379965+900353847+909740620
1488+915005186+913910501+910222607+908402377+909926970+913806826+918840386
1478+925184188+933634264+943488481+951198347+952316929+947837833+944002332
1468+944363324+948078072+952136312+953689027+952855461+952567307+955306735
1458+960031019+961347598+956868200+951304074+948271543+948088029+949940546
1448+952699526+955539431+958658378+962714084+967273924+971125840+974508501
1438+978516050+982136718+982972517+981406103+979623408+978705779+978902871
1428+980169906+982173831+984848145+988815021+994693854+1001554102+1005786924
1418+1003833991+997896803+993356455+992101973+992598383+993493261+994728432
1408+995565498+994415053+991759326+990741160+993056835+996955881+1000457425
1398+1003819750+1006777632+1006176400+1000744071+995093951+993532426+994909532
1388+995726925+994885635+993964687+993850995+993686430+993170528+993815390
1378+997583907+1004843648+1013086856+1018613145+1021327409+1024828591
1370+1030334965+1034226347+1033016883+1028875667+1027505681+1031699037
1361+1037372571+1038226836+1034605806+1031764452+1032378538+1034998420
1352+1037613112+1039876709+1042010319+1043997649+1045974720+1048257748
1344+1050567690+1051921744+1052317497+1053314058+1055856093+1059208340
1335+1062034124+1063126757+1062034124+1060141296+1059491727+1060295301
1327+1061730943+1064180889+1067896060+1071158632+1072654862+1073134979
1318+1073500920+1073741823+1073498747+1072487703+1070676946+1068296519
1310+1066183668+1065503564+1066401760+1066911085+1064576280+1060087709
1301+1057192164+1058032428+1061278345+1064609591+1065745794+1062468377
1293+1054909860+1046015755+1037961311+1030827634+1025058390+1021179560
1284+1017670775+1012525513+1006309766+1001417779+998698265+996238301+991663918
1274+985010719+978201222+972290708+966775281+961249173+956139698+951602789
1264+946593006+939784173+931295597+922902066+916223401+911183625+907088091
1254+903947479+901417695+897996713+892679465+885949988+878374996+869940068
1244+860926718+851944025+843241037+834744072+826423259+818605252+812242320
1234+808472777+807458654+807925616+808127957+807137973+805201395+803117148
1224+801510604+800608907+800310916+800329563+800505835+801001340+802075025
1214+803842814+806399996+809823935+813918745+818226880+822233644+825564770
1204+828301482+831021781+834296603+838365102+843186665+848232656+852712054
1194+856351429+859096530+860407799+860226096+859983322+861144086+863614610
1184+866862397+871721556+879508545+889291191+897593478+902197431+905184944
1174+910366353+919161127+930121797+941142150+950738085+957211572+958665198
1164+954963967+948754134+944109386+943958279+947934086+952726199+955647693
1154+957645584+961041038+965247972+967159085+965337406+961789455+959525014
1144+959754150+961678961+963906229+965694596+967095661+968598107+971580973
1134+976774028+981838425+983740124+983176427+983190005+984774100+986301771
1124+986053808+983692510+980406524+978980054+981483890+987151329+993230452
1114+997176629+998257736+997139938+994257971+989924491+986227062+985498741
1104+987530244+990541956+993430259+996428332+999694465+1002316519+1003186534
1094+1001930362+999340714+996686253+996157618+999673947+1005101690+1006681319
1084+1001516506+993547090+988623481+987989421+988006801+984158989+975709758
1074+966835628+961332210+958047250+953848101+949280657+947722571+950543769
1064+955186163+957240598+954450539+949394651+946912480+948081874+949256458
1054+947413718+943880854+941177815+939371645+937674702+936801790+937436695
1044+938351126+938197001+937282027+937069668+939417267+945308833+952561634
1034+956157077+953349458+947044035+942156876+940816521+942042278+944079334
1024+945785751+946254341+944895278+942464100+940547315+939602108+938761120
1014+937653943+936701434+935738425+933575306+929023311+922804606+917007301
1004+912109280+906179213+897502536+886999473+877506852+871205714+867968910
994+865739470+862307385+857233212+852001716+847979020+844885177+841665511
984+838370714+836352607+836646555+838767673+840955776+841321536+839182978
974+835364434+830940253+826398577+822026052+817998589+813972634+809477184
964+804825738+801012504+798850954+798422977+799154497+800550733+802896461
954+806733411+811576336+816110891+820081206+824546664+829533999+833482710
944+835962286+838683369+843130784+849179070+856434587+864934388+874005127
934+882040079+887873109+892230849+897525588+905184582+912995769+916422182
924+913805981+908727282+905562954+904565186+902941926+899782909+897433862
914+897625884+899096467+899359638+896985849+892576031+888733167+887922714
904+889716996+891750793+893102795+894166824+894309845+892957601+892312136
894+895528060+902304908+909050860+913254776+915017557+914839234+913358693
884+912374864+913393694+915980385+918295155+918487902+916255083+913425557
874+911947129+912479445+915929875+923034888+931251906+936171471+936912767
864+936054218+935302844+935282266+937335253+941843859+946130812+947232678
854+946021404+945138656+944052540+940467899+936179437+936358002+942785747
844+950962996+954343605+951512752+947467547+947780624+952695966+956995773
834+956835613+954017976+951984541+953094916+958678051+967865199+976207013
824+979054461+976947223+974745421+975566495+978320045+982433864+987692758
814+991412454+992026781+992063411+993443354+994212893+992218743+988826668
804+986797518+985643633+983011199+979017228+976302602+976559255+978544715
794+979608985+978070391+975023981+973911614+975938833+975716818+967408376
784+954643769+944065695+936055304+928535409+922592850+920013642+919576553
774+919107902+918288216+917150624+914778163+911387294+909429775+911535385
764+917656086+924839610+930163678+933506028+937157593+942653105+948799394
754+952955757+954276259+953746356+951203296+947231049+945727999+949519146
744+956120206+959634422+956989678+951769466+949943563+952916472+956503044
734+956873209+955542992+956575641+960940622+965274223+965831342+962651203
724+958478425+954825231+951460009+947842962+943400074+939263987+937889053
714+940793046+947557644+955755351+962776060+967217681+969061809+970148046
704+973018365+976791468+975699077+965498832+951139087+941905473+942001243
694+949267501+958248566+962290572+958037896+948748703+940276239+936333079
684+936360175+936237792+932950056+928395345+925817163+924960967+923319663
674+921751440+922147554+921569435+915921125+909419698+912322604+921526709
664+927168381+929080036+931521232+934023921+932968280+926244235+915289237
654+905744295+903391930+906815566+909382705+909897099+912175902+914974651
644+911793909+901288312+892068577+892496735+903910789+920823311+931358357
634+925854940+911139814+903085852+905518841+906589569+896229225+879186475
624+867460009+865898121+867535864+865325614+860658176+858513704+860037573
614+861962746+860889605+855830881+850106655+847118238+845238324+844034171
604+847163920+855754422+866819914+877320502
##END=
