##TITLE=<SNM>
##JCAMP-DX=4.24
##DATA TYPE=INFRARED SPECTRUM
##DATE=29/4/2025
##SAMPLING PROCEDURE=Instrument type and / or accessory
##ORIGIN=Admin
##XUNITS=1/CM
##YUNITS=ABSORBANCE
##RESOLUTION=4
##FIRSTX=4497.3318
##LASTX=599.83466
##DELTAX=-1.4281778
##MAXY=2.1953156
##MINY=0.63366807
##XFACTOR=1
##YFACTOR=2.044547e-09
##NPOINTS=2730
##FIRSTY=0.64406431
##XYDATA=(X++(Y..Y))
4497+315015656+315145008+317241544+320120343+321726323+321448524+320275816
4487+319269980+318863879+319229632+320485805+322363840+323936877+324169780
4477+322981184+321376225+320353101+320052563+319906419+319311377+318217995
4467+317050651+316129795+315586763+315694279+316371299+316664170+316072976
4457+315821503+317268569+319778000+321615891+322196065+321997008+321263578
4447+320226839+319525360+319340326+319080573+318440898+317947630+318204030
4437+319136809+320123171+320731273+321178713+321693030+321772064+320962048
4427+319979243+319967698+320991988+322001031+321840369+320108391+317631611
4417+315938377+315749087+316481876+317417891+318377811+319069145+318898221
4407+317928797+317232915+317614236+318546199+319171764+319665994+320459771
4397+321016302+320800424+320440385+320504929+320236664+318932068+317569516
4387+317722131+319547400+321571783+322305738+321790372+321169559+320920010
4377+320479042+319761441+319589992+320110431+320284154+319589526+318910203
4367+319193891+320359864+321705595+322452699+321922522+320159146+318357054
4357+317754754+318185285+318361690+317517477+316377916+316124956+316871272
4347+317668402+317756823+317222012+316566099+316282586+316587293+317137089
4337+317297926+316793113+315830744+314769634+313965216+313693597+314014367
4327+314777768+315546823+315646381+314840271+313743216+313091967+312919615
4317+312865827+312975938+313775313+315609444+318085028+320238559+321304392
4307+321235066+320509273+319720714+319229253+318775370+317840493+316729297
4297+316449166+317259707+318182370+318253853+317686506+317383432+317822359
4287+318867144+320097021+320700808+319642759+316790023+313449703+311124782
4277+310322230+310927883+312772538+315263748+317266499+317957309+317500161
4267+316746002+316400189+316349434+315803340+314400907+312986258+312754434
4257+313854405+315417938+316658193+317205336+316859436+316084375+316119767
4247+317392353+318655406+318885277+318863296+319729752+321258417+322422205
4237+322616159+321895498+320757511+319786221+319217505+318832306+318150068
4227+316984036+315949922+315755034+316149794+316548170+317037648+317546106
4217+317169012+315832785+315137224+316187052+317976579+318753272+318039870
4207+316830254+316258652+316459137+316791889+316943135+317160237+317436753
4197+317474418+317310929+317141900+316927654+316657464+316479165+316313751
4187+316002805+315854096+316283461+316882700+316538637+314760509+312291076
4177+310347972+309930792+311435261+313995389+315730283+315707981+315144541
4167+315762701+317638637+319338956+319738119+319170656+318834259+319348168
4157+320004810+319449737+317284837+314844061+313867116+314655995+316205564
4147+317681113+318649255+318491333+317132862+315796198+315695066+316649651
4137+317747465+318592261+319297821+319912220+320397180+320765003+320926540
4127+320641191+319817181+318716860+317644730+316603473+315641745+315343073
4117+316284248+318049140+319344145+319246133+318039666+316737723+316138658
4107+316388149+317051963+317558146+317723210+317832271+318204613+318710097
4097+318833064+318314199+317592721+317355124+317699859+318141934+318288370
4087+318061064+317472553+316619478+315712879+314917964+314350268+314228438
4077+314843857+316224339+317811544+318816943+319087774+319198701+319446880
4067+319340997+318397577+316885936+315628335+315373450+316178947+317250203
4057+317645721+317182626+316564321+316768071+318149747+319784034+320084514
4047+318696832+317210817+317303203+318701293+319637599+319075588+317675137
4037+316526655+315935112+315760923+316131720+317216560+318549930+319226834
4027+319021159+318820703+319456909+320552361+321127783+320884297+320350215
4017+320168475+320436857+320537843+319870094+318787906+318228956+318468506
4007+318885685+318936586+318823794+319072031+319680250+319978951+319501338
3997+318672927+318195372+318053484+317672367+316871010+316098514+315780135
3987+316025632+317007300+318863821+320987003+322233497+322253904+321806698
3977+321485461+321051927+320247538+319423121+319013259+319011422+319145118
3967+319171851+318994484+318788227+318928424+319449562+319699899+318994309
3957+317611292+316663820+316916255+318127183+319572209+320772787+321614842
3947+322225218+322945326+324060078+325293132+325816195+325037956+323229130
3937+321337859+320354413+320713548+322055927+323431597+323913613+323399267
3927+322700907+322540595+322607122+322155338+321456133+321591374+322858596
3917+324231555+324495536+323465648+321912027+320630608+319760333+319150161
3907+319263945+320927356+323958858+326834742+328304664+328249274+326760489
3897+324460144+322964654+323407780+325177920+326419982+325928317+324745085
3887+324842165+326467677+327694522+327355443+326585571+326139443+325140429
3878+323383932+322297372+322927601+324841261+326979137+328486258+328821430
3868+328281954+327913111+328272538+328779158+328461682+327156503+325486358
3858+324205318+324192899+326595717+330904003+333227437+331803722+328973521
3848+326973277+326428962+326850951+327391068+327584819+327893228+329196775
3838+331236289+332191923+331109677+329227036+328165955+328344546+329084944
3828+329415393+328834141+328195778+329371780+332881916+336166641+336885729
3818+336136672+335158094+333242859+330186635+327444039+326400946+327387512
3808+329474749+331095013+332168688+334221000+337420336+339233622+338255132
3798+336163842+334429152+333170881+332431911+332597121+333683128+335151855
3788+336593499+338086773+339677564+341122532+342493305+344341663+346892140
3778+349766187+352757575+356100460+360152871+365112026+370370175+374413082
3768+376558042+377883715+379687527+382388376+385734031+388823868+390454890
3758+390737208+391454371+394164257+399225215+405656801+410731082+412320240
3748+411929415+413029707+418137631+425716940+431409264+434083875+436010305
3738+439970242+447094648+455231508+460886516+463527194+465276285+467438591
3728+469462887+470364705+470157690+469652644+469111389+467930198+465938175
3718+463936502+462535467+461657729+461638751+463654651+467537799+470593644
3708+470834855+469260099+468428248+469696198+471808828+472647705+472325506
3698+472727030+474659552+476951822+478099692+478352914+479501688+481986076
3688+483581881+482920604+481314916+480117253+479174300+478057536+477682308
3678+479833915+484542180+488406117+488986844+488429643+489190390+490586294
3668+490403329+488245105+485157367+482270463+480328904+479258144+478408276
3658+477632515+477691200+479244908+482054061+485356540+487969609+488473169
3648+486702854+484079843+481793666+480140109+478981744+478087972+477295215
3638+476895207+477687206+479922540+482809356+485832433+489502269+493543281
3628+495386507+493816269+490857708+488779479+488765456+490712992+493257057
3618+494981747+495744797+496117781+496357476+496717749+497867951+499987023
3608+502038577+502862557+502580123+502123820+501946803+501689207+501184161
3598+501253370+502774923+505538975+508266529+510035532+511502918+513749389
3588+516293453+517395902+516596119+515199166+514645085+515311114+516371991
3578+516983271+517330833+517864857+518231135+518040008+517586096+517283022
3568+517455957+518453339+520089346+521322401+520901024+518588667+515894815
3558+514980228+516597460+519395797+521479127+522186787+522076938+522026096
3548+522771596+524436639+525947930+525662172+523166327+519964921+517751743
3538+516466680+515467199+515631097+517777340+520019904+519408566+515924843
3528+512469981+511318030+512426893+514290993+515418747+515698266+516392398
3518+518300053+520456441+521223864+520187359+518123794+515781235+513712539
3508+512555574+512636619+513508235+514295482+514312099+513299150+511497962
3498+509561329+508265304+508274283+509947898+512855325+515736631+517660086
3488+518822066+519682196+519993899+519196449+517161745+514282713+511370797
3478+509441744+509098030+510022996+511205907+511701566+511228880+510276044
3468+509607274+509513460+509669545+509562204+508966958+508058026+507087465
3458+506026180+504665202+503188312+502237750+502186616+502886520+504048675
3448+504970959+504390465+501916076+498877985+496698858+495592969+495404465
3438+496168215+497330486+497914362+497828828+497767490+497799441+497152478
3428+495383592+493237466+492167668+492663852+493083188+491349052+488017945
3418+485741476+485899427+487541002+489230447+490563904+491813518+493035377
3408+493869094+494038473+493744903+493213036+492233845+490812696+489708964
3398+489586346+490178268+490766925+491010294+491021139+491176641+491841621
3388+492720642+492992581+492483628+491889548+491662505+491712940+492101607
3378+492933400+493740821+494043488+494372217+495759549+498149044+500072791
3368+500347995+499517835+499048239+499687330+501268821+503572548+506297361
3358+508269327+508063099+506064545+504476058+504609753+505443295+505375602
3348+504555529+504555470+506144716+508098374+508416258+506840073+505413618
3338+505947642+507896577+509463142+509827438+509157619+507470594+504873763
3328+502285328+500957992+501318906+502472140+502967799+502305210+501375463
3318+501115068+501394587+501602448+501608045+501856954+502875792+504479265
3308+505534777+505183601+503883378+502675278+501960797+501412954+500716256
3298+500144682+500425717+501686175+502789558+502743554+502482169+503881803
3288+507147520+510224560+511028016+509547161+507418410+506213984+506615770
3278+508431535+510645412+511894676+511650899+510856305+510770945+511417208
3268+511524141+509979908+507214514+504848866+504032174+504426264+504786129
3258+504328660+503475586+503195367+503711783+504225225+503941567+502893400
3248+501736843+501314300+502163177+503687936+504295776+503206154+501516097
3238+500768614+501121424+501620640+501644079+501422691+501529274+501987209
3228+501936425+500571190+498394046+496884737+496894824+497873140+498606279
3218+498390314+497443950+496337652+495230772+493886586+492377453+491344912
3208+491315643+491962897+492323403+491776318+490635329+489668149+489240417
3198+489190682+489310151+489378485+488945534+487784313+486521639+486130202
3188+486741073+487478119+487487565+486688423+485490818+484246511+483040598
3178+481813898+480631512+479687917+479125498+479040458+479501105+480345229
3168+481022570+480805788+479243013+476598021+474052849+473111412+474295023
3158+476389840+477308130+476051141+473691498+471996952+471384972+470908671
3148+470069823+469488483+469500523+469441809+468819918+467998707+467271836
3138+466402669+465345086+464344993+463285749+462040945+461274193+461632629
3128+462441128+462402209+461418150+460524232+460225473+460073469+459599937
3118+458837062+458105613+457699920+457641352+457631236+457291370+456503220
3108+455663176+455384328+455576300+455383249+454576820+454058479+454333246
3098+454631919+454108156+452860467+451362353+449811210+448388778+447379064
3088+446822388+446525990+446403402+446470104+446697409+447150330+448014891
3078+449112151+449701858+449329953+448466033+447738200+447174323+446719828
3068+446746620+447459002+448333475+448647423+448230915+447372301+446294952
3058+445124198+444261182+444176405+444693579+445031258+444784974+444411057
3048+444506854+445063385+445545808+445340659+444127078+442151760+440178073
3038+438972423+438701621+438821002+438719112+438370384+438062762+437765839
3028+437273941+436789389+436697819+436811603+436495760+435561698+434569797
3018+434124311+434117051+433929190+433339162+432879682+433068973+433682905
3008+434101338+434014025+433529969+432911284+432440230+432325280+432441046
2998+432269948+431443490+430267167+429401615+429119939+429089911+428815815
2988+428172058+427475973+427021332+426699483+426389820+426446260+427134504
2978+427827849+427549788+426207701+424657229+423671304+423300449+423165762
2968+423061045+423094746+423329398+423524752+423366160+422886477+422526350
2958+422647393+422979504+422807093+421907286+420963837+420693444+420940136
2948+421040656+420756939+420315388+419767661+419013736+418317913+418041193
2938+417947670+417478423+416605670+415841338+415589252+415908331+416631413
2928+417384871+417693806+417265490+416201727+414996222+414211919+413930010
2918+413617810+412811001+411825660+411412241+411782747+412416124+412796921
2908+412888403+412775202+412343912+411582116+410859151+410608873+410763675
2898+410712715+410039515+409161631+408835963+409180726+409597293+409498377
2888+408771856+407727158+406898893+406672170+406882509+406968219+406630073
2878+406164471+406057042+406408511+406862248+407019965+406827118+406512528
2868+406238840+405976259+405755804+405803236+406179718+406536434+406566287
2858+406409502+406260909+405971187+405377224+404625019+403929749+403434761
2848+403352928+403710956+403986248+403589038+402650837+401786509+401250998
2838+400872446+400599837+400569197+400754668+400944338+400972908+400776038
2828+400347605+399768336+399188279+398759118+398643468+399013011+399854978
2818+400712892+400877840+400103711+398935522+398042246+397461081+396821843
2808+396054537+395446551+395128696+394913985+394654319+394461181+394448091
2798+394473658+394374771+394260929+394249530+394117758+393592655+392812813
2788+392155529+391752402+391482416+391312717+391329159+391479909+391599786
2778+391713016+391956065+392132090+391778319+390805688+389627470+388585513
2768+387727104+387165617+387121072+387486912+387764332+387577811+387061920
2758+386680104+386769895+387250452+387670430+387560582+386866858+386029992
2748+385519261+385307231+384971185+384324018+383702651+383525605+383749296
2738+383924389+383730084+383300719+382990035+382958171+383059857+382995341
2728+382540934+381795871+381212403+381190626+381627425+382033672+382069238
2718+381724767+381056026+380137795+379282155+378852207+378773902+378641460
2708+378391677+378356052+378500505+378257282+377419891+376599964+376389159
2698+376594162+376671330+376478600+376260652+376188382+376136548+375804729
2688+375097506+374411887+374330200+374998386+375953263+376512826+376283887
2678+375432124+374496722+373868300+373537851+373355849+373257428+373180231
2668+373027236+372788357+372560730+372444323+372466100+372569564+372685097
2658+372797453+372856138+372701860+372288908+371915517+371954436+372374239
2648+372748884+372710110+372227366+371508862+370816595+370362391+370204878
2638+370183771+370068034+369839737+369687762+369638144+369444714+369017010
2628+368653852+368656330+368969433+369315129+369451885+369312563+369077532
2618+369001151+369087007+369143942+369112778+369040624+368869584+368584817
2608+368400949+368487242+368673442+368683034+368511964+368354509+368296290
2598+368318621+368466573+368707143+368750465+368365062+367781332+367427182
2588+367337040+367161714+366760453+366487960+366748442+367424120+367961439
2578+367982458+367594490+367120288+366784591+366684655+366820420+367057463
2568+367182880+367102476+366969480+367030759+367317916+367607260+367711132
2558+367587727+367167049+366463909+365881053+365898924+366412162+366832053
2548+366849952+366657776+366469127+366280012+366099759+366087602+366372193
2538+366843772+367222528+367364240+367382373+367376718+367221799+366803104
2528+366283860+365934257+365839743+365915279+366052210+366156724+366175527
2518+366113636+365957580+365694212+365471833+365546435+365983963+366574049
2508+367044315+367250689+367236025+367131774+366924846+366494986+365997082
2498+365850938+366184740+366644162+366827301+366597837+366056379+365521684
2488+365375511+365674679+366081771+366306104+366410121+366596001+366888813
2478+367136060+367208651+367106003+366913477+366754302+366713575+366707453
2468+366569967+366366304+366408256+366805086+367200809+367185241+366832665
2458+366583786+366680690+366975806+367208913+367190634+366861176+366480817
2448+366569209+367320948+368244981+368655513+368389784+367837947+367422721
2438+367274070+367306022+367402868+367471144+367383248+367007670+366373447
2428+365762051+365565647+366021745+367020731+368100645+368717376+368679652
2418+368306523+368093590+368291072+368789326+369264752+369451186+369404628
2408+369439904+369747934+370229774+370714734+371117833+371367936+371416388
2398+371376041+371484956+371899716+372650055+373858213+375937550+379454216
2388+384788104+392047430+401345191+413026704+427496730+444809287+464498017
2378+485885579+508516078+532057812+555620303+577460494+596032811+611392060
2368+624526937+635055420+641187284+642848713+642462960+641209848+636626416
2358+625504961+608194619+587828694+566603865+545935740+528735888+518513278
2348+517347042+525279685+539646625+555005875+566274494+572019556+574224396
2338+576071588+579110087+582405190+584643789+585539077+585049715+583170223
2328+580354219+576940755+572830825+568097255+563029242+557548365+551362102
2318+544556571+537542246+530663950+523998528+517259524+509994834+502115074
2308+494048385+486270136+478911602+471852324+464968197+458224936+451689391
2298+445523156+439847245+434597930+429631398+424945260+420672483+416919415
2288+413747279+411237119+409399811+408023557+406734528+405280902+403760487
2278+402517666+401753566+401262047+400628349+399675163+398603790+397680486
2268+396928952+396229717+395588322+395111992+394761719+394319614+393650203
2258+392881118+392278934+392007899+392030696+392175237+392238615+392078653
2248+391696049+391239484+390902971+390793998+390870378+390996844+391089026
2238+391175464+391283535+391384520+391520869+391793799+392132353+392287068
2228+392107223+391624158+390913787+390128727+389556249+389376288+389434944
2218+389415499+389161197+388752881+388345759+387998168+387664600+387350068
2208+387181943+387233864+387356744+387319108+387089470+386865458+386821116
2198+386946533+387207219+387710370+388523272+389436664+390152078+390634822
2188+391050602+391448949+391743073+391908079+392015858+392136842+392299574
2178+392520641+392852432+393340132+393873048+394222505+394343986+394442581
2168+394610765+394668575+394524034+394430278+394694026+395301894+395964483
2158+396421690+396625586+396679402+396686778+396687361+396711937+396824526
2148+397026206+397171446+397130836+397005974+396988715+397052823+397035914
2138+397003962+397260159+397955574+398882260+399678224+400128725+400287230
2128+400396233+400684614+401186103+401773507+402383096+403104924+403983186
2118+404867105+405571937+406065905+406433291+406799627+407309746+408007581
2108+408742994+409308008+409607963+409669447+409590355+409487066+409435786
2098+409500243+409770987+410266150+410854078+411367696+411740854+412003289
2088+412214094+412415512+412600721+412703718+412647570+412468366+412368284
2078+412509356+412799952+413060580+413286283+413536036+413755383+413926511
2068+414186410+414636474+415211837+415786851+416269070+416613542+416835717
2058+417005066+417224617+417610137+418218618+418987615+419784395+420479198
2048+420994390+421391774+421868921+422538594+423265203+423860011+424409516
2038+425205334+426296385+427353880+428124073+428758616+429518722+430454970
2028+431527071+432717854+433944699+435143557+436434218+437946413+439546999
2018+440961297+442130769+443312107+444787189+446497741+448064539+449272842
2008+450382696+451739622+453303825+454871702+456484299+458233945+459913157
1998+461268391+462411684+463642290+465037464+466438702+467666917+468642930
1988+469467522+470401263+471597527+472908828+474142845+475393537+476862264
1978+478465970+479969797+481440973+483159629+485129788+487162946+489404257
1968+492195072+495338405+498061410+499903995+501218153+502674228+504608937
1958+506898262+509205896+511269986+513116477+515080630+517503010+520309976
1948+523033856+525432447+527887828+530816070+533846115+536166459+537655010
1938+538972025+540698407+542938639+545491915+548059827+550516257+553109123
1928+556144124+559517999+562779110+565517741+567642994+569438234+571267934
1918+573181594+574972578+576584330+578202846+580086012+582429154+585066508
1908+587300851+588477873+588733428+588850973+589494554+590760377+592330498
1898+593913155+595503742+597230998+599080755+600896111+602435505+603343213
1888+603497082+603359888+603420002+603541395+603412072+603313418+603820447
1878+604932109+606001557+606452670+606340839+606305098+606958882+608084654
1868+608550519+607669282+606240786+605543738+605959518+606733763+606764898
1858+605624026+603848434+602291898+601326817+600762008+600374914+600276202
1848+600687609+601457656+601886147+601208981+599455429+597349942+595462170
1838+594054431+593170571+592568561+592077275+591924222+592182634+592176745
1828+591224726+589550994+587659840+585703792+583843423+582409505+581482381
1818+580779211+580037676+579265647+578596236+578053524+577466675+576630567
1808+575590563+574695625+574387886+574926692+576116367+577316187+578044720
1798+578498282+579170025+580310490+581775777+582818463+582490142+581089516
1788+580101113+580487099+581905275+583430675+584669619+585758191+586712310
1778+587462533+588314558+589919896+592622844+595639304+597493608+597944838
1768+597956266+598113284+598519327+599429308+600982113+602714966+604221067
1758+605749208+607496697+609209143+610750578+612339940+614108477+615816492
1748+617092984+617879473+618577862+619789635+621902177+624732057+627385795
1738+629117715+630546387+632991156+636250984+638169367+638228781+638062725
1728+638571562+639257823+639434548+639303476+639934056+642415732+647008493
1718+652402728+655689786+655305199+653007303+651229321+651086355+652431182
1708+654593633+656989950+659244584+661360915+663682134+666031807+667395058
1698+667674227+667922494+668235131+668183413+668353958+669472733+671289780
1688+673459695+676699058+681378054+684855480+684315625+681921349+681013058
1678+682754483+686422803+689904135+691399625+691578916+692219524+693690875
1668+695030396+696047077+697633058+700055204+702203954+702966130+703002571
1658+703814540+706080835+709610328+713410070+715454335+715662779+716488275
1648+719239675+722655705+723961234+723065130+722349132+723077782+725074587
1638+727890415+730905533+732664916+732538625+732334846+733800716+736971161
1628+740755160+744500327+748807564+754164658+759605946+763964025+767717239
1618+772033047+776635428+779749025+781058344+782198167+784337355+786981297
1608+788612290+788546579+787716769+787407456+787904048+788560165+788874842
1598+789178849+790156699+791924536+793951484+796009976+798346938+800456681
1588+800907153+799383560+797903579+798749715+801782967+804785899+806423655
1578+807574207+808953201+808961539+806932433+805600317+807400688+811498782
1568+814761817+816255091+817646971+819775314+822237516+824959064+827868065
1558+829347113+828812564+828796646+830982595+834665433+837947301+839656483
1548+840279307+841122120+842828969+845213449+848395439+852451202+855135726
1538+854104118+851477259+850437373+851692525+853063065+852014316+849007477
1528+846655414+847300511+851055183+855681528+858587439+858703701+857662007
1518+858381152+861978980+866684913+870119776+872600520+876306389+881897582
1508+887530871+890569137+890643943+889812267+889385467+889593328+890419057
1498+891933963+894457562+898124366+902375570+906392502+909623352+911895069
1488+913192144+913785465+914666118+916933696+920748480+925284043+929458867
1478+932464831+934062357+934572942+934671479+935609913+938381896+942504303
1468+946899232+950790572+953092958+952546106+949535594+945704134+942550248
1458+941943399+944917936+948086574+947719830+944401287+940116498+936295184
1448+933823943+932656775+931806265+930381501+928122028+925573591+924309459
1438+926296118+931714725+937339327+940346049+941542662+942185194+941575139
1428+938993934+936217928+935811127+937971072+940589884+941865561+941338125
1418+939668300+938725668+939662237+941105834+940644167+937563105+933438599
1408+930523651+930046125+931358417+932597827+932649720+931744928+930532105
1398+930083791+931560214+934723546+937969148+940240982+941941009+943660918
1388+944978575+944935195+943615323+942880085+944987612+950182732+955884764
1378+959038651+959426502+959703630+962344657+967352207+972433047+974520576
1368+972070967+967321888+964618648+966038515+969902335+973772860+977942611
1358+983318363+988131754+990002559+989841052+990985131+995102116+1000861463
1348+1005862832+1009032461+1011231879+1013338357+1014318363+1013108048
1340+1011811557+1013479341+1017541284+1020693538+1021819893+1022795818
1331+1024499985+1026127421+1028281710+1032457233+1036787151+1036906911
1322+1032938841+1030240907+1032407557+1038210283+1044405875+1048813690
1314+1050604266+1049697841+1047502972+1047199314+1052031363+1061279739
1305+1068849369+1070205799+1068142234+1067207590+1068129874+1069858296
1297+1071791372+1072967403+1072889740+1072884259+1073741823+1073311758
1288+1068908725+1061328133+1053716172+1047177508+1040788456+1035265832
1280+1032891146+1033337187+1032734770+1028585251+1023148336+1019896845
1271+1019112397+1018182650+1015502674+1012956686+1013147230+1015223622
1263+1015129516+1010450229+1003825855+999300612+997344913+995855079+993788366
1253+991653434+989243999+985133428+979096661+973015407+968372795+963965680
1243+957590622+949383182+940899198+932607972+923879044+914636207+906160735
1233+899971499+896401832+894326257+891827263+887359451+881047889+874746996
1223+870260527+867612620+865729570+864259677+863608865+863751657+864174492
1213+864480365+864218454+862997353+861466879+861090864+862565655+865387664
1203+868711046+871771759+874074495+876036549+878490064+880989699+882023989
1193+881371953+880863525+882387468+886145055+891152313+896598440+902200594
1183+907620192+912174938+915203058+916891599+918662351+922288866+927926353
1173+933923413+939316424+944474753+949315431+953073600+955998228+959453614
1163+963601384+967676855+972252007+978236532+984510953+988725775+990341317
1153+990975919+991836399+992931618+994225894+995751761+997423859+1000290881
1143+1006412424+1015262803+1022021748+1022923974+1020773067+1020411220
1134+1021360325+1019079862+1012369895+1005087946+1001173283+1002306051
1125+1008696385+1018511029+1026990699+1029506368+1025512876+1018756614
1117+1014371305+1014755775+1018095541+1020864141+1021407786+1021444169
1108+1023870397+1029050649+1033076792+1031387902+1025092490+1020455416
1100+1022080870+1028504089+1033771333+1034410017+1032426798+1030067505
1091+1026634799+1022395256+1019528585+1018796262+1020224525+1024085079
1083+1028711425+1031554190+1033383948+1036869013+1038484438+1031559788
1074+1019318450+1012382255+1014972673+1020568180+1020114093+1012596005
1065+1004670008+1001000581+1000359332+999576283+996323509+991012652+987386254
1055+988876904+994685345+999360201+999625376+998946112+1000256946+1001325112
1045+999201259+995423615+993940544+995301755+996425545+995661387+994770588
1035+995333241+996591367+997320191+997476801+997598661+998026743+998256352
1025+997038690+994296677+992448261+993548728+995733569+995614975+993072602
1015+990889160+990735349+991474902+991935752+992835296+994912272+996803018
1005+995698703+989874519+980759781+972019425+965715908+960574255+954734504
995+948579376+943891693+941306290+939385750+936488293+932742543+928625733
985+923078037+915167375+906796271+901154468+899146702+899097492+899090554
975+898191826+895770962+891666980+887084422+884175188+883923481+884340835
965+882023989+876015268+868853546+863661982+861660047+862173606+863756671
955+865448885+867386334+869976519+872947266+875460778+876469354+875146917
945+872498718+871431952+873674633+877943563+882296569+886766422+891600977
935+895500247+898119002+902018388+909801302+920718278+931501908+940262905
925+947748924+954190801+957914395+958015964+955654047+952101990+948168902
915+945234071+944159434+943354404+940580439+936995963+936252270+939371640
905+942829009+942364427+937685723+932688843+931715425+935467297+940304593
895+942893437+944472246+948448188+955521926+962758047+966138860+963551474
885+957051758+951886899+951471585+954507985+957469462+958744089+959207446
875+959308665+958757499+958783212+961729704+968528413+976918234+981873775
865+979744091+972945615+968288951+970282840+977695860+985798233+990858141
855+992326519+991250424+988761692+985861670+982617992+978727818+975471138
845+974776947+976940973+981013995+984937986+985852807+983516953+982481090
835+986687165+993670355+998290986+1000445741+1002708596+1003124900+999289067
825+995259076+995911286+999647299+1001130370+999123129+998401301+1002814130
815+1011488425+1021546438+1029452144+1030874343+1024326933+1016291787
807+1015349213+1022952428+1033489715+1039718192+1039745829+1038532832
798+1039747112+1041262600+1039292092+1034196733+1028999689+1025058323
790+1021953763+1018241889+1012936862+1007324679+1003798568+1003373517
781+1004126247+1001876220+994379005+983724872+973607096+967114843+965885054
771+968760471+972464241+974847556+976055305+976322580+975428225+975052559
761+977771600+982318183+985431605+986816488+987360016+987398965+987538083
751+988091056+988136185+986668507+985150803+985109289+985212141+984576723
741+983304370+981638918+981636586+985236280+990593782+994567450+998047617
731+1004035523+1011519327+1016315110+1016979098+1014444887+1009532843
723+1003414681+998907047+999554709+1004729714+1008265621+1005998685+1001137133
713+997896138+996316163+996096932+1000103135+1009360957+1018605368+1021887994
703+1019163006+1015444485+1015026314+1015760503+1014337954+1010690683
694+1002347682+987803958+972562836+965361466+970265465+982637583+992589712
684+996061482+997264801+997281360+992318706+983216678+975607282+972851684
674+974231903+975833335+972416488+960086934+941769706+930237893+931271833
664+939703284+952148110+967275476+981034985+985820272+975628389+955115650
654+934413067+920603765+918787476+931634379+953247644+965716141+957369467
644+940383015+931151723+932862478+939627778+946697493+952520976+954493584
634+948192633+934035186+921346700+919156553+926919526+934231969+929262551
624+914716437+905360136+907268724+911285772+906578090+896169541+891815077
614+898725325+912733567+927505909+940055685+947277754+944510844+930329317
604+915002719+905695687+901088641+900745802
##END=
