##TITLE=<SNM>
##JCAMP-DX=4.24
##DATA TYPE=INFRARED SPECTRUM
##DATE=29/4/2025
##SAMPLING PROCEDURE=Instrument type and / or accessory
##ORIGIN=Admin
##XUNITS=1/CM
##YUNITS=ABSORBANCE
##RESOLUTION=4
##FIRSTX=4497.3318
##LASTX=599.83466
##DELTAX=-1.4281778
##MAXY=2.1978567
##MINY=0.51321107
##XFACTOR=1
##YFACTOR=2.0469135e-09
##NPOINTS=2730
##FIRSTY=0.5242402
##XYDATA=(X++(Y..Y))
4497+256112527+256058132+256462832+256939601+257151910+256906959+256401506
4487+255986032+255793467+255939092+256749802+258314381+260043338+261083362
4477+261134816+260615561+260074962+259740643+259533954+259156044+258303665
4467+257252721+256926032+257849550+259316783+260093802+259764317+258887477
4457+258106644+257583167+257077802+256473052+256304685+257321443+259227066
4447+260545150+260408028+259737760+259795416+260371338+260429576+259967424
4437+260004289+260868753+261593823+261161314+259671223+258105101+257329538
4427+257507369+258244495+259049381+259602443+259669068+259101650+258147440
4417+257366840+257052468+257118976+257523356+258293968+259167750+259600783
4407+259301437+258665093+258515537+259215652+260042406+259823313+258401564
4397+256956898+256522089+256724526+256581376+256094618+256062500+256577969
4387+256730904+255962824+254957802+254754258+255464739+256258443+256338201
4377+255565987+254239749+252726100+251412326+250724354+250984476+252143452
4367+253634622+254751841+255270979+255470505+255672447+255992410+256329087
4357+256431295+256181889+255854122+255870604+256371484+257115482+257634737
4347+257500002+256627210+255300011+253890318+252661805+251842854+251635729
4337+251895414+252133115+252100094+252092465+252478615+253110445+253469777
4327+253349835+253022476+252670919+252144501+251529414+251477378+252462920
4317+253966232+254939719+255036686+254808740+254748434+254816573+254836636
4307+254846799+255013186+255417158+255960349+256364816+256397459+256232469
4297+256279176+256491572+256316594+255615402+255117201+255549855+256715063
4287+257725909+257854354+256954161+255474319+254180725+253515961+253326685
4277+253357348+253673059+254333513+255038666+255518348+255943577+256535280
4267+257096729+257330207+257298031+257249809+257321035+257603987+258014394
4257+257955078+256878305+255340487+254574184+254858709+255291945+255359007
4247+255707244+256912695+258351100+258863250+258203931+257415148+257752029
4237+259372837+261102057+261534420+260338695+258471829+257180418+256827813
4227+256835937+256707870+256484933+256043572+254943650+253428777+252647187
4217+253360056+255090789+256770913+257777858+258210658+258326669+257983964
4207+256911880+255471699+254623076+254856204+255609637+256050270+256010696
4197+255854151+255854967+256065062+256448971+256758742+256588831+255981635
4187+255579848+255802494+256323496+256719343+257175438+258071118+259199723
4177+259891627+259769238+259095564+258565243+258830724+259910438+260949151
4167+260974252+260012297+258952763+258326203+257854267+257198239+256552781
4157+256400109+257006343+258091385+258852359+258651145+257857296+257589515
4147+258465423+259935859+260880663+260639555+259474027+258229149+257728530
4137+258286339+259475920+260441806+260623219+260177840+259627223+259239005
4127+258998131+259030715+259564442+260384296+260826880+260473226+259466514
4117+258213017+257168333+256648263+256568738+256705075+257177360+258122135
4107+259077364+259427203+259265271+259181699+259316958+259104736+258068294
4097+256638508+255803804+255907469+256347694+256614776+256927109+257572625
4087+258247727+258488106+258356662+258203844+258029332+257622186+257167110
4077+257039102+257094079+256973351+256926265+257391329+257994069+257951962
4067+257308484+256818349+256857951+257271270+257932481+258777290+259542486
4057+259945905+259936994+259629873+259312968+259424233+260126969+261018630
4047+261523325+261461476+261105435+260783026+260561748+260362194+260195486
4037+260038155+259665020+259082606+258911996+259671427+260882294+261577895
4027+261569188+261592746+262208997+263033742+263309473+262943007+262520690
4017+262410299+262348624+261983847+261397472+260934475+260772077+260853698
4007+261142300+261592222+261907496+261860759+261822351+262298248+262990238
3997+263041488+262186546+261051360+260366533+260375735+260900872+261620584
3987+262321514+262985026+263615982+264083259+264238698+264157659+264162988
3977+264515826+265127884+265624019+265627338+265055785+264258616+263699176
3967+263419835+263183474+263155286+263772003+264866306+265720229+266049830
3957+266130112+266043656+265607828+264925942+264458519+264627848+265463542
3947+266554962+267534476+268483386+269481100+269976972+269316256+267745504
3937+266284036+265916988+267024743+269108752+270929551+271481536+270988226
3927+270441046+270451791+270770036+270752739+270417547+270565444+271605672
3917+272748720+272823149+271709278+270325151+269473674+269286001+269677393
3907+270918340+273299249+276299990+278790475+280207361+280504931+279407250
3897+277133122+274916621+273969924+274564161+275752927+276046041+275474808
3887+275686127+277415579+279319019+280283682+280889276+280782292+278513405
3878+275117719+273575533+274984906+277824763+280321508+281597137+281006161
3868+279244794+278544912+279791508+281130558+280467367+278322033+276627961
3858+276848365+280178300+287362637+295184745+296514972+291202538+284528662
3848+279761516+278019076+279138246+282046913+285543236+288900164+291305650
3838+291666467+290161524+288305403+286839073+285404948+283887863+282843762
3828+282635909+283154086+284624260+287765619+292080339+294845127+294547674
3818+292986968+291457419+289007673+285281308+281923156+280927568+283407744
3808+288429131+292754101+294605271+295861797+297876910+298884874+297721238
3798+295960366+294583316+293177874+292145391+292726525+295089379+298105816
3788+300858316+303258851+305302704+307093132+309435050+313019662+317051547
3778+320073138+322292347+325499079+331232490+339480729+348133756+354407300
3768+358088967+361332884+365316197+369786094+374645956+379764106+384008503
3758+386419113+388113069+391231016+396884494+404202286+410077857+412237255
3748+412814341+415338371+420515954+425045166+426330287+426674419+429382949
3738+435530814+443712487+451324965+456545178+458759845+458375383+457059279
3728+457078906+459535524+463124476+465757237+467051880+467568369+467229362
3718+465946920+464526365+464134099+465250882+466745574+466321219+463453407
3708+460305060+459088048+460132120+461955045+462699363+462000704+461114488
3698+461555587+464392358+469628616+475617985+480044290+481764308+481016670
3688+478481080+475571715+474145977+475316514+479031900+484121484+489276732
3678+493829240+496196871+494161200+489748814+487302591+487068996+485414235
3668+480959684+476391685+474100609+474354558+475938792+477362288+478045631
3658+477998923+476876404+475007733+474306104+476495699+481278773+485708718
3648+486327328+482929021+477922514+473676778+471196339+469992316+469227964
3638+468908991+469403931+470457787+471645068+473367764+476119070+478509850
3628+478366088+476628250+475735336+476834560+479961941+484085784+487117218
3618+488046967+488520213+490029990+491679248+491946621+491000069+489942341
3608+489070277+488148651+487379175+487328216+488345469+490319901+492970047
3598+496207878+499891583+503254452+505239804+505745897+505681485+505606824
3588+505141730+504025006+503083813+503340004+504541640+505187215+504557190
3578+504050689+505189544+507392127+509128509+510435499+512746638+516370415
3568+519044905+518105284+514417910+511381759+510851497+512114167+513437172
3558+514088512+514957082+517079994+519528285+519857449+517772975+515870787
3548+515611276+515666195+514807176+513729472+513234327+513125363+513250168
3538+513786312+514381627+514246688+513205965+512003805+511514077+511940849
3528+512895495+514145936+516064430+518795003+520973707+520328599+516443447
3518+511909691+509619111+509953225+511216070+511974977+512166698+512263141
3508+512355449+512140200+511155735+509045344+506217863+504022094+503639176
3498+505038474+507162783+509014595+510360429+511361958+511863159+511516232
3488+510410806+509054604+507990935+507435456+506786911+505264031+503570571
3478+503411288+505071437+507157542+508625619+509150873+507877778+504291506
3468+500087148+497950841+498400618+499365456+499393410+499440816+500497264
3458+501779211+502425193+502859245+503307857+502958425+501475089+499489154
3448+497402933+495193828+493157517+491785125+491194470+491167214+491247001
3438+490713478+489104870+486890437+485195200+484752033+485444810+486823229
3428+488485416+489819399+489988757+488673730+486653726+485268726+485236170
3418+486140732+487064774+487413448+486978784+485775721+484266731+483334303
3408+483517551+484422170+485153180+485096310+484204707+482896029+481806065
3398+481359346+481593174+482467859+483922774+485481384+486301819+485771062
3388+483899887+481540555+480126523+480327388+481262816+482017558+483074413
3378+485045002+487245779+488683456+489232529+489134456+488636691+488426275
3368+489336427+491446759+493886605+495601323+496115337+495480828+493994871
3358+492409035+491922161+493276964+495923615+498335798+499320321+499275128
3348+499518332+500164489+500003517+498708467+497551266+497403282+497542472
3338+497028634+495928391+494854763+494199812+493850556+493445565+492812104
3328+492073581+491430511+491046951+490924068+490754885+490252403+489578059
3318+489156703+489209933+489555054+489825747+489890741+489865175+489644334
3308+488970863+488119416+487918202+488878788+490639398+492192504+492607104
3298+491955589+491362954+491653855+492376654+492614442+492213062+491692235
3288+491404420+491336688+491680354+493017162+495409019+497685506+498446160
3278+497631170+496386029+495769807+496060476+496647171+496415964+494935423
3268+493170446+492484861+493302764+494986266+496441298+496705759+495488340
3258+493337590+491235411+489959463+489540553+489404915+489334971+489824117
3248+491120157+492663013+493780378+494157415+493644333+492454170+491280080
3238+490539635+490149787+490143671+490515059+490749935+490485357+490081939
3228+489856322+489531584+488875003+488154534+487781224+487850994+487921958
3218+487274287+485726743+484021401+483028754+482807390+482787414+482628743
3208+482443457+482269411+481821003+480808147+479278453+477731666+476913473
3198+477141914+477858481+478276605+478186422+477786207+477235474+476541765
3188+475477281+473774910+471821414+470588271+470448120+470733343+470700409
3178+470244809+469552119+468682035+467694222+466782032+466091817+465645768
3168+465439283+465326271+464844377+463571748+461807148+460425817+459843752
3158+459484624+458489676+456834624+455430289+455045361+455404867+455528071
3148+454835615+453627310+452483563+451615285+450954364+450490203+450165319
3138+449703808+448910278+448029711+447508010+447504283+447931812+448676858
3128+449393542+449470155+448703473+447701537+447122879+446764595+445992818
3118+444827377+443941336+443678709+443637767+443293839+442588978+441763796
3108+440854692+439656696+438280373+437416084+437638380+438593871+439312885
3098+439269642+438745554+438231191+437875295+437537249+437063741+436424543
3088+435767816+435383413+435454959+435843090+436229328+436370527+436065852
3078+435137559+433765429+432617576+432300205+432772083+433408339+433455542
3068+432503662+430820771+429167728+428186117+428060788+428633302+429460522
3058+429885227+429577436+428948693+428580654+428433427+428017924+427124079
3048+426013877+425014474+424223245+423614332+423247808+423233335+423524208
3038+423888694+424063992+423874658+423312307+422570930+421952058+421667505
3028+421678279+421693362+421424737+420904317+420374900+419898508+419390348
3018+418947939+418742327+418659192+418428101+418035836+417668263+417302816
3008+416721915+415980655+415549864+415723212+416006193+415563318+414351985
2998+413214382+412738253+412664872+412570846+412523847+412693787+412834084
2988+412624018+412190635+411797030+411278969+410384949+409428410+408930965
2978+408819817+408609896+408197130+407852795+407614191+407305731+406964045
2968+406684704+406321558+405770359+405259723+405067128+405172627+405356603
2958+405424567+405217151+404586194+403534085+402356997+401523225+401299414
2948+401520313+401797121+401836082+401498182+400808725+400020903+399444661
2938+399146276+398973599+398814375+398655267+398482764+398243957+397866396
2928+397349267+396856744+396605736+396568783+396372112+395661252+394631216
2918+393996386+394172703+394732580+395041826+395070800+395035799+394724223
2908+393897322+393009243+392782403+393225279+393588047+393252330+392367541
2898+391559190+391153675+390870694+390323251+389575031+389023396+388870782
2888+388906715+388755848+388228993+387501972+386975029+386864347+386947803
2878+386831267+386445932+386166154+386411193+387113521+387654178+387543001
2868+387061135+386797256+386736834+386470392+386099151+386080485+386277419
2858+386024198+385131284+384123466+383487384+383240016+383220797+383306757
2848+383210110+382544036+381411995+380519926+380342590+380523246+380457902
2838+380090591+379718068+379456257+379294354+379271670+379317300+379182128
2828+378696972+377998167+377452530+377354136+377671828+378061211+378046301
2818+377296713+376005506+374925355+374687713+375161367+375726922+375949859
2808+375754673+375269778+374735177+374303106+373837372+373139325+372359423
2798+371899804+371885478+371973010+371799779+371454396+371275458+371315235
2788+371303558+371035544+370538711+369964566+369461647+369021247+368472174
2778+367801732+367267131+366992507+366798048+366593544+366493752+366419672
2768+366130169+365748735+365678820+365910347+365957899+365565429+364997633
2758+364568414+364302119+364129499+364047587+363925956+363459407+362590720
2748+361759190+361352656+361098008+360503596+359754124+359519423+359943254
2738+360428061+360431322+360003822+359496011+359101503+358792606+358485368
2728+358123881+357664059+357130885+356724525+356693018+357028822+357420214
2718+357523384+357201586+356537376+355724977+354956781+354355439+353974559
2708+353824711+353851559+353889472+353745798+353408538+353048508+352738708
2698+352382462+351995584+351750195+351669768+351613772+351573791+351634097
2688+351710768+351655529+351458682+351131265+350647419+350137395+349807852
2678+349627196+349421148+349214576+349136682+349088286+348838850+348399382
2668+348033411+347910411+347939355+347969436+347987577+348008543+347926543
2658+347668197+347357232+347116823+346868145+346542067+346285293+346248457
2648+346356839+346391491+346133145+345468177+344550337+343793469+343548984
2638+343791314+344149452+344256495+344085070+343900512+343886680+343946491
2628+343887990+343695628+343585150+343767990+344109471+344156237+343666189
2618+342939109+342461903+342405295+342533187+342440995+341921711+341219500
2608+340822691+340945982+341348935+341680137+341843759+341927680+341900104
2598+341629441+341227828+341039746+341145944+341215423+341010452+340717745
2588+340641511+340820274+341054422+341161843+341115806+340968986+340744127
2578+340498244+340405092+340586534+340901837+341043211+340800531+340199247
2568+339496774+339058238+339072040+339324941+339387169+339086221+338685744
2558+338541050+338726307+339084969+339467655+339750723+339772970+339496162
2548+339195826+339278612+339823521+340433803+340654848+340430746+340028405
2538+339686661+339525864+339613455+339888021+340116694+340077616+339752237
2528+339341364+339150488+339357496+339787646+340017427+339827627+339482971
2518+339438972+339822036+340311328+340534294+340465252+340361762+340412342
2508+340576808+340698410+340636415+340387154+340190512+340332497+340719114
2498+340914038+340744652+340529344+340554066+340687432+340673047+340517230
2488+340445538+340606189+340893218+341078970+341137121+341310905+341745132
2478+342206032+342366624+342256437+342183144+342292108+342462776+342569906
2468+342587582+342503223+342337593+342150181+341911548+341556468+341192914
2458+341027254+341120232+341400389+341785957+342157111+342379553+342448071
2448+342460447+342443965+342389279+342425562+342719958+343155640+343344130
2438+343101362+342736061+342684316+342975509+343231787+343164056+342905943
2428+342792261+342967006+343343955+343809689+344254748+344522354+344548008
2418+344452933+344360130+344290098+344331215+344658224+345222527+345674487
2408+345798186+345806601+346003739+346395597+346836201+347289326+347735521
2398+348078895+348315285+348571884+348886460+349131237+349199871+349146903
2388+349121423+349204675+349275785+348982903+347901122+345860938+343150050
2378+340244208+337312217+334162530+330694599+327177980+324020343+321401559
2368+319178390+317149650+315416412+314327875+314092009+314738399+316423065
2358+319350922+323337555+327913533+332952566+338472096+343658356+347009227
2348+347530637+345502072+342484616+340388494+340008866+340784487+341805263
2338+342650334+343517331+344685451+345999225+347055818+347750080+348395014
2328+349338566+350639877+352079826+353378196+354485020+355654945+357077917
2318+358599836+360041095+361508444+363091019+364548730+365629259+366448442
2308+367294823+368252877+369178520+369919344+370413411+370591679+370361753
2298+369812563+369308130+369217016+369597925+370204858+370741090+371132802
2288+371576493+372194812+372700876+372681249+372174515+371639740+371384975
2278+371322660+371261946+371203708+371301287+371636333+372079150+372361083
2268+372304912+371998198+371734319+371757236+372040712+372345300+372473483
2258+372383388+372098922+371675265+371225314+370837183+370548757+370495614
2248+370855208+371515983+372067124+372239917+372135204+371988880+371959266
2238+372124459+372462738+372849529+373188332+373484621+373748325+373906355
2228+373855659+373581472+373208250+372903313+372731014+372628631+372469581
2218+372110482+371493153+370777460+370259719+370078801+370068900+369947269
2208+369620347+369287601+369243980+369591606+370148571+370606966+370766103
2198+370674290+370572693+370653761+370900023+371208280+371562690+371974728
2188+372394046+372810015+373284950+373774474+374095747+374191521+374274132
2178+374624641+375340596+376261435+377061225+377495598+377627275+377723689
2168+377955973+378306366+378675482+378952785+379099080+379232359+379489919
2158+379828314+380147228+380502309+380961287+381393475+381633069+381682863
2148+381587410+381347146+381099982+381105631+381404045+381722144+381830206
2138+381811628+381924087+382327214+382954298+383559571+383901489+383939577
2128+383865877+383959204+384388451+385094652+385850152+386453008+386866676
2118+387204344+387626748+388225353+388967429+389743836+390451522+391045147
2108+391552784+392032524+392498170+392955459+393499553+394227681+395064307
2098+395838763+396504721+397115614+397648905+398042364+398363375+398760737
2088+399225248+399526952+399493349+399304219+399346937+399755481+400283005
2078+400682027+401003329+401408466+401879441+402293779+402679376+403212259
2068+403946764+404648538+404994883+404938071+404786739+404918067+405458287
2058+406196170+406774013+407041386+407241814+407767941+408723316+409819161
2048+410730478+411453015+412217105+413108242+413924892+414466715+414848439
2038+415391980+416253008+417296118+418313430+419220495+420042358+420861425
2028+421793591+422896367+424092325+425213126+426120163+426882331+427837181
2018+429249378+430910866+432382817+433574465+434747477+436140019+437873315
2008+439933708+442033819+443802640+445246462+446767565+448671034+450803556
1998+452737192+454329143+455959502+457971994+460039812+461535582+462459129
1988+463405622+464686841+466079762+467380229+468670388+470002216+471289492
1978+472605043+474192160+476053464+477837981+479315202+480786133+482778562
1968+485337680+487911562+490097547+492138226+494422342+496950070+499535396
1958+502086827+504462727+506459378+508130126+509835816+511893210+514290484
1948+516777794+519274073+522088859+525407991+528640697+530941469+532405179
1938+533921478+536014397+538510210+541075328+543526647+545718862+547590417
1928+549445781+551961745+555564440+559713529+563317040+566129729+568825476
1918+571454073+573160346+573823217+574526390+576142335+578494649+580776726
1908+582348119+583244352+584040648+585250438+586977153+588987548+590806745
1898+591948745+592474406+593157312+594732141+597029302+599010287+599754284
1888+599534900+599465479+600063647+600888072+601391312+601540868+601721175
1878+602437451+603837681+605346234+606399129+607540779+609843590+613012583
1868+614907898+613999668+611225940+608332416+606136881+604694079+603949382
1858+603892891+604339173+604783358+604708231+604145238+603619635+603525173
1848+603955148+604782543+605210363+603968484+601123531+598273977+596437890
1838+595447135+594735693+593958500+593336454+593466675+594325286+594852578
1828+594357434+593278273+591770535+589360041+586315038+583748349+582328493
1818+581804055+581568305+581331274+581156966+580951034+580306159+579089439
1808+577751233+576793442+576497532+577172517+578903134+580895650+581831776
1798+581328770+580451056+580630256+582367571+584345643+584315942+582192739
1788+580280534+580362476+582280504+584644349+586338159+587115644+587347725
1778+587817535+589340007+592397124+596910437+601647329+604528565+604767110
1768+603359134+601824024+601628809+603445677+606215328+607918515+608162068
1758+608245349+608864309+610004212+612162475+615895100+620320998+623205379
1748+623502220+622499178+621948765+622638543+624455527+626811918+628947875
1738+630849247+633728445+638288757+642285553+642382229+639440017+636367001
1728+634749833+635141080+637101215+639264952+640946765+643393308+648323843
1718+655195061+660187852+660562035+658241228+655939582+654593748+654381352
1708+655688283+658609063+662211118+665603630+669132770+672945998+675490965
1698+675888850+675263543+673936228+671786701+670036050+669904722+671323530
1688+673900819+678335510+684961544+690204062+689912870+686571549+684411190
1678+684835108+687237507+690101504+692286440+694245877+696636162+698026199
1668+696353064+693061945+691559681+692985245+695494628+696942788+697776298
1658+699789022+704179336+711354792+718991847+720500226+716021156+712836497
1648+713393957+715257998+714990916+712822753+711199237+711316879+713432685
1638+717745542+723390314+726654469+724641103+720210955+717208932+716591778
1628+717303802+718168004+718942402+719653262+720175953+721011094+723067323
1618+726232938+728565217+728183580+726313598+725354293+726140047+727803923
1608+728749659+728320674+727484019+727542606+728731197+730314704+731584828
1598+732462774+733456266+735123636+737274677+739040470+740152128+741436754
1588+743654536+746584169+749525099+751936350+753494756+754588185+756639055
1578+760668290+765118939+766737155+765954254+766336416+769071240+772004600
1568+772715867+771829767+771312201+772221189+775111161+780105408+784969259
1558+785196565+781593403+778114989+775411613+773170652+771543816+770395527
1548+769875514+771233230+775214651+780538587+785593227+789984531+791935348
1538+789895135+787060082+786580021+788031792+789171404+789764273+791620860
1528+795298625+799578634+803666282+808174645+813143559+817065110+819577463
1518+822594454+826924956+831061990+833894073+836558254+841124856+848972385
1508+859528065+868046560+869128575+866236273+865441026+868340956+873727208
1498+879224986+882473416+883342219+884511940+888487129+894800014+899408780
1488+898771884+894819116+892141016+893390175+898441263+904974232+910139176
1478+913171425+915860124+919990053+924996123+928383685+929173458+929396920
1468+931085896+935102085+941267801+947269867+950386154+951141100+952054921
1458+953699869+953477806+949952742+945204145+941440071+939463280+938748925
1448+937874881+936195805+934568911+933618283+933124653+933052146+933754911
1438+935223687+936681107+937403091+937882277+939047806+940617509+940702014
1428+938092460+934683991+933474201+935425659+939085777+942183195+942994108
1418+941749085+940979637+942514922+945671568+948451061+949287833+947938213
1408+945244097+942805823+942286219+943951026+946554348+949033330+951149952
1398+952353336+951648125+949086211+946302524+945055113+945857174+948188930
1388+950588533+951073776+949813378+949656017+952558801+957998341+964023061
1378+968688785+971218843+972311107+973297784+974549680+975365603+975559886
1368+976051594+977961761+981389216+985262779+988700485+991858878+994529349
1358+995564714+994707675+993427592+993374013+995351212+999606004+1005533757
1348+1011167056+1014006302+1013265974+1011150866+1010625205+1013013685
1340+1017976425+1023537741+1026633703+1025799494+1023026407+1021711729
1331+1023340778+1026972535+1031079052+1034277397+1035151325+1033751270
1322+1032687484+1034564862+1038942305+1043327785+1046299233+1048263852
1314+1049563737+1049794711+1050030111+1052896496+1059227144+1066269816
1305+1070216177+1069940359+1067240653+1064051975+1061446965+1060788287
1297+1063127613+1067427016+1070963494+1071447573+1068130305+1061563442
1288+1053774384+1047968000+1046457991+1048275966+1048984846+1044883220
1280+1038351766+1035570526+1038670914+1043040203+1043090055+1038862286
1271+1034018352+1029828670+1025046236+1020112848+1017107040+1015832780
1263+1013498113+1009204417+1005937118+1006194998+1008370208+1009112167
1254+1007448175+1004564435+1000783471+995266533+988141628+980750456+974242938
1244+968911431+964372609+959948284+954910707+948560200+940822567+932894029
1234+926329611+921422489+917036019+911982194+906310923+901231938+897418769
1224+893691559+888852867+884325751+882497177+882736188+881718586+878111930
1214+874361658+873051407+873723306+874108787+873380048+872943957+874298120
1204+877295600+880487306+882628563+884169381+887163076+892525158+897875650
1194+900061809+899341107+898596644+899649131+902514293+906661635+911408194
1184+916107813+920791882+925736277+930327805+933213933+933613275+932568883
1174+932908413+937445663+946160015+955148845+959953060+960721809+962088376
1164+967472822+976251819+985058478+990414446+991681833+991627322+993133487
1154+995818984+997324334+997569169+999034451+1002378159+1005501027+1006627827
1144+1005801305+1003964461+1002846747+1003818166+1005847314+1006942664
1135+1007030954+1008507301+1014317413+1025104708+1037976943+1046281878
1127+1044323431+1035912503+1030567717+1033587154+1042401443+1050614127
1118+1054838985+1055369771+1051813026+1044117849+1037153100+1036528434
1110+1041425364+1046589610+1048987757+1048508338+1045273186+1039905105
1101+1034260391+1030053820+1028445621+1030713430+1037239992+1045699259
1093+1052342415+1055937131+1058836363+1063267735+1067884655+1069323264
1084+1067857982+1068458188+1072744779+1073741823+1064274214+1048827485
1075+1037790580+1034306167+1035796142+1038805445+1038602425+1032778103
1067+1024028459+1018790367+1022321254+1032177431+1039629520+1039111081
1058+1032383596+1023677630+1016223794+1012059388+1011566456+1013356477
1050+1015440019+1015737502+1013196088+1010426378+1011179519+1014777963
1041+1016557384+1015138111+1014120799+1014937653+1014941730+1012647364
1033+1009888021+1008685861+1010117831+1015050986+1022371572+1027684676
1024+1027314395+1023451432+1020974779+1021289733+1021968911+1020316800
1015+1016474802+1013340985+1012014194+1009416638+1003444624+997552862+995947225
1005+996554071+993383797+985290151+976537129+969658806+964019800+960037680
995+959521687+961113812+959500488+952109316+943197303+938143419+937154703
985+936241930+932223761+925297799+917816882+912475125+910886144+912170071
975+913309159+911859834+907753434+902427227+897770297+895719601+896837606
965+898840372+898367242+894765013+890571720+888197334+887279553+885701579
955+883034777+881329436+881877169+883568767+885438515+888257262+892212067
945+895680989+897564307+898912646+901336710+904981453+909278993+914741595
935+922001380+929365296+933632319+934157863+934220120+937151908+942950313
925+948486820+949981046+946802910+942791962+941913317+944841377+950326692
915+956645517+961318637+963051817+963798435+965246129+965680705+962909249
905+957746110+952549483+948817964+947587267+949793227+954646770+959539799
895+963656974+968803631+974444560+975844323+970714730+964058004+961334187
885+962122737+963786904+967045992+973871026+982469309+988312034+989222069
875+986860496+984924180+987277833+994410076+1001724723+1003849731+999549629
865+991560697+984120255+981405873+985398475+993133371+997888549+995524064
855+987811066+979551906+975422036+977541511+983384003+988399275+991918515
845+996602525+1002456315+1005485536+1002144390+995214584+991567103+992786735
835+994892175+995755853+998268148+1005007980+1012508174+1015825559+1016152160
825+1018155683+1023360929+1029871068+1035923568+1041039942+1044980479
817+1047657589+1048499252+1047158601+1044441656+1041553722+1040340147
808+1042740507+1049919574+1059738711+1065789581+1065481266+1061416215
800+1054495028+1045198640+1037468171+1035649148+1039094657+1041768739
791+1038303545+1030735677+1026404476+1028665180+1031572449+1028381908
783+1020128805+1010314211+1000385352+992918121+992663852+998387188+1001165283
773+996771184+990663823+988196838+989958205+994641749+999628018+1001559908
763+1000591983+1000971931+1005970313+1013118164+1017527988+1018954017
754+1020577941+1022895603+1022378910+1015783510+1003823990+992957607+989985344
744+994625792+1000296946+1001606149+1000442659+1001993319+1006242288+1006890133
734+999831504+989636728+985381586+992381511+1007311314+1019472108+1021106165
724+1015683223+1012825458+1017030398+1022022723+1019806746+1011536405
716+1005521294+1009070235+1023520968+1042076471+1052636636+1048306133
707+1035463600+1024948395+1021364162+1021988246+1021438008+1019146088
698+1019313582+1022089115+1022032624+1015641408+1007399138+1005117585
690+1009105295+1011306130+1006297731+995822245+983580733+974761902+974923980
680+983684864+990886178+985297839+973020103+967908912+974334897+984986612
670+986683800+975736349+967823069+973112877+982912970+986858982+986012775
660+988531360+992523613+990352829+983633963+976220719+967215641+957058953
650+950853227+954731624+968662053+986549618+1000213898+1001380766+990619678
640+978762658+974989498+982903186+996613590+1004086413+1000982763+990683158
630+976293110+962985134+956294572+956117002+954927189+945176773+929833476
620+919200222+921034212+931538293+935664146+924695030+908555029+901363150
610+911684769+937733886+958968304+952209545+937033858+943958597+965112763
600+964766826
##END=
