##TITLE=<SNM>
##JCAMP-DX=4.24
##DATA TYPE=INFRARED SPECTRUM
##DATE=29/4/2025
##SAMPLING PROCEDURE=Instrument type and / or accessory
##ORIGIN=Admin
##XUNITS=1/CM
##YUNITS=ABSORBANCE
##RESOLUTION=4
##FIRSTX=4497.3318
##LASTX=599.83466
##DELTAX=-1.4281778
##MAXY=2.2111621
##MINY=0.6445123
##XFACTOR=1
##YFACTOR=2.0593052e-09
##NPOINTS=2730
##FIRSTY=0.65674168
##XYDATA=(X++(Y..Y))
4497+318914208+317558903+315904837+315373627+316542532+318318163+319125558
4487+318786594+318349191+318448614+318907175+319396561+319592570+319138612
4477+318055728+316858891+316299721+317161443+319498560+321920425+322642695
4467+321207446+318627315+316385540+315303727+315171221+315319299+315746079
4457+317176928+319592946+321741464+322411721+321480012+319677116+317952195
4447+317127405+317602840+318905293+319676103+318778171+316647165+314991044
4437+315106212+316759323+318691368+319881721+320163202+319954110+319823167
4427+320113476+320587811+320493078+319212535+316943176+314790896+314023271
4417+314835643+316145622+317218347+318685405+320901681+322467931+321748208
4407+319142924+316727687+315995142+316579465+317095074+316908443+316610724
4397+316790814+317266655+317748921+318275297+318751108+318951922+319171724
4387+320164534+321994724+323502883+323474373+321927256+319744179+317643593
4377+316112771+315572270+315806195+315814242+314983779+313855482+313181664
4367+312975612+313054774+313642946+314685047+315327692+314974401+314317082
4357+314511933+315764458+317360028+318615563+319132938+318547256+316961874
4347+315517189+315514874+316655935+317185553+316477177+315858758+316324091
4337+317353458+318309538+319323477+320213131+320017961+318462218+316644965
4327+315724631+315908136+316683635+317429205+317832714+317902758+317675750
4317+317157420+316550868+316205826+316322181+316854752+317498728+317643535
4307+316824129+315391919+314222087+313772412+313853919+314130364+314408979
4297+314533641+314339340+313844107+313411654+313561150+314496911+315909352
4287+317262400+318144933+318399120+318093789+317382402+316485918+315851435
4277+316050339+317103237+318073239+318036682+317099503+315914302+314883719
4267+314359890+314747596+315772244+316438739+316280618+315996705+316379780
4257+317175712+317510016+317199273+317072064+317825738+318990794+319442553
4247+318770096+317545125+316329967+315250035+314551876+314662326+315504077
4237+316513386+317442692+318395241+319086860+318856494+317515110+315707786
4227+314384724+314203505+315118195+316243598+316616398+316230602+315718206
4217+315202278+314493525+314084024+314643686+315820320+316600044+316625920
4207+316429795+316565688+317042772+317443995+317264426+316396683+315482109
4197+315410357+316384411+317697921+318410061+318161750+317377395+316854839
4187+317203557+318282967+319070882+318529715+316758223+314938279+314068047
4177+314156500+314639200+315119758+315732591+317069083+319371814+321589884
4167+322051252+320471138+318410321+317378205+317451810+317880703+318048578
4157+317778270+317304311+317102223+317592015+318782339+320025457+320306417
4147+319106831+316974320+315145779+314746640+316118907+318437963+320155764
4137+320286996+319141506+317631176+316383919+315763792+316041742+317044046
4127+318136192+318965295+319677260+320097789+319613062+318397412+317696040
4117+318258770+319285879+319371322+318141431+316583749+315798525+315832506
4107+315960815+315801420+315700144+316195840+317471087+319041244+319958452
4097+319868060+319522062+319518792+319231551+317849038+315760290+314055254
4087+313349858+313709980+314995646+316738194+318165454+318798895+318749806
4077+318243980+317315165+316183684+315478057+315803301+317150473+318655159
4067+319149871+318407224+317481477+317369377+317811179+317881513+317337741
4057+316644357+315949816+314989857+313926134+313471423+314123041+315629174
4047+317157217+317846838+317415282+316442039+315901537+316244727+317011571
4037+317447584+317457888+317700005+318626562+319805888+320484886+320418865
4027+319787885+318868042+318289075+318836088+320251134+320998499+320038685
4017+318046465+316163307+314717349+313671166+313137582+313150636+313631252
4007+314513149+315537363+316310459+316785923+317186190+317499828+317619801
3997+317717516+317943106+318084324+317979431+317939778+318368844+319192795
3987+319958626+320345405+320315274+319929045+319384896+319040346+319057568
3977+319223273+319215516+318818172+318051617+317391230+317516268+318615679
3967+320142710+321260558+321454368+320891319+320205460+319842415+319737377
3957+319583742+319208598+318821964+319005614+320127659+321685052+322622405
3947+322456208+321723663+321180383+320942058+320590619+319928842+319263447
3937+318991286+319333897+320338922+321685891+322598121+322462721+321518652
3927+320573339+320187110+320264998+320391860+320431398+320553513+320802316
3917+320998238+320963274+320597479+319909073+319143243+318799069+319459109
3907+321591389+325097295+328830529+331356505+332537886+332961367+332151309
3897+329529441+326466697+325304043+326785631+329018347+329455778+328292488
3887+327708657+328474459+329384663+329817811+330548301+331379458+330969176
3878+329591005+328885320+329247960+330020535+331223942+332805474+333242529
3868+331890813+330536955+330426620+330473249+329219218+327107286+325662197
3858+326150512+329756015+337175042+344900066+345559557+339324862+332076749
3848+327415454+325985068+326734053+328480364+331047036+334682467+338325540
3838+339408481+337058600+333782046+332027139+331655092+331048801+329413665
3828+327286305+325735888+326060698+329253459+334332562+337558667+336842186
3818+334718965+333490551+332321587+329994919+327523068+326873939+328961819
3808+332444918+334691121+335451019+336956920+339608224+340777796+339352359
3798+337264277+335715365+334137624+332349200+331389068+332242975+334932746
3788+338541781+341674772+343256189+343538075+344040978+345884888+348552864
3778+350866131+352704252+354751320+357615653+361986929+368149437+374651835
3768+379147542+380944389+381199849+381498118+383028361+386130469+389975369
3758+393145524+395115254+396664774+398999952+402777064+407212770+411029970
3748+414898285+420561624+427718215+432797637+433846569+433706306+435777283
3738+441614199+450119699+457326943+460063227+459834164+460243954+462889006
3728+466918077+470424794+472008294+471637955+469904554+467099643+463610582
3718+460331481+458635851+460278629+466149815+473788817+477818148+476064717
3708+471327820+466950639+464710543+464964411+466816860+468778861+469928867
3698+470218249+470252345+471108163+473836922+478904361+485567369+491085698
3688+492234661+489152293+484718208+481318642+480047940+481264025+485104409
3678+491304978+497472204+499157675+496577601+494748048+495467423+495357841
3668+491261447+484630219+478553501+474933670+474168303+475576749+478297751
3658+481517517+483523832+482965096+481662411+482815831+486933500+490438914
3648+489791841+486272244+482905095+481062285+480489945+480106234+479454732
3638+479400722+480616112+482369022+483989658+486558790+491339306+496075306
3628+495778687+490920370+486832022+486775349+490426874+494858382+496809617
3618+495949573+494850683+495404672+497185021+498872807+500396943+502443867
3608+504138310+503717000+501538381+499786629+499617827+500317231+501209461
3598+502960576+506079935+509254345+510504671+510094476+510702359+514165457
3588+518788923+520815354+519138509+515673848+512352575+510680303+511802059
3578+515307069+519079926+521226939+521571025+521214956+521647380+523909184
3568+527375409+529749574+529735912+528345613+526803590+525441946+524305602
3558+523467556+522718715+521707294+520547332+519955079+520853097+523622001
3548+527235204+529524389+529135844+526603760+523097882+519694351+517691480
3538+517734375+518581278+518316903+517050659+516691405+517861266+518774624
3528+517937389+516222569+514814267+513412564+511708165+510746933+511738151
3518+514302999+516463615+516557104+515099192+513886205+513516763+513135570
3508+512301113+511560087+511217679+510877760+510218819+509616493+509852272
3498+511253222+513309350+514935253+515117196+513718619+511981570+511757138
3488+513759083+516787383+518873382+518991531+517478336+514925007+511355684
3478+507139403+504074228+503906989+505949108+507674926+507826825+507445110
3468+507855537+509091390+509958091+509188237+506850715+504310527+502565374
3458+501351692+500203944+499405146+499249543+499209311+498655785+497919911
3448+497665551+497612872+496990170+495976086+495500072+495747833+495907836
3438+495337812+494236548+493245562+492780257+492764511+492821647+492507720
3428+491625100+490698600+490798457+492338165+494380921+495461924+494784517
3418+492559414+489738989+487424622+486096727+485549163+485580018+486208972
3408+487267746+488393264+489285436+489576787+488971798+487962519+487504450
3398+487644539+487494262+486609905+485512925+484868168+485022439+486124687
3388+487841070+489395771+490496802+491515865+492431076+492634958+492060939
3378+491421276+491375312+491965250+492732036+493334767+493777380+494056863
3368+494019236+493670808+493341077+493527824+494581040+496269637+497902313
3358+499331686+501173860+503393579+504727032+504415883+503304374+502552465
3348+502480394+502757447+502925207+502842195+502650470+502249421+501528772
3338+501118113+501777806+503058812+503730662+503333607+502296715+501155162
3328+500366031+500234451+500435728+500034216+498678940+497522972+497904918
3318+499275940+499710969+498448082+496527875+495172946+494767440+494993204
3308+495243107+495192860+495185566+495717210+496654766+497496112+498275865
3298+499590620+501458090+502656895+502093817+500517698+499712069+500342876
3288+501559279+502327222+502379090+502142328+502247163+502794843+503174299
3278+503035541+502953167+503457951+503954341+503507156+502408787+501872048
3268+502323228+502834438+502406008+501180864+500028138+499569664+499708827
3258+499615859+498648896+497536460+497656694+499114664+500634400+501261213
3248+501138143+500681869+499951610+498901288+497854729+497567314+498394420
3238+499434727+499565033+499200685+499391137+499732909+498955413+496826347
3228+494128587+491787765+490742422+491412535+492872878+493725049+493864617
3218+494148095+494766340+495273209+495513791+495325829+494194464+492235588
3208+490573331+489964405+489886199+489437971+488489822+487640777+487486968
3198+487993084+488377229+487875281+486615520+485423604+484945477+485167565
3188+485502013+485225135+484092380+482536753+481145296+480081371+479180111
3178+478458217+478070164+477684340+476529935+474459248+472457651+471578417
3168+471729390+471968467+471731995+471239280+470833947+470449512+469695288
3158+468359896+466996631+466752488+468001656+469315397+468692145+465965702
3148+463069588+461806238+462196028+463065334+463554662+463503547+462783245
3138+461275867+459576157+458809978+459344286+460211855+460221291+459253604
3128+457935752+456489505+454782702+453379147+453315933+454562525+455803878
3118+456088398+455829812+455862258+456374626+456971597+457159588+456696599
3108+455717856+454532771+453367743+452410303+451813419+451476626+451145477
3098+450751374+450393336+450032115+449462524+448576663+447484748+446423051
3088+445618927+445140511+444903025+444981753+445725557+447220692+448739618
3078+449181507+448167915+446336306+444558707+443288063+442595229+442307004
3068+442040863+441582331+441218910+441298651+441645227+441790729+441488292
3058+440651809+439324145+437990229+437295051+437228914+437211576+437030908
3048+437089896+437708343+438516953+438771227+438328614+437884873+437915033
3038+437971416+437483564+436600220+435707180+434773271+433769289+433112317
3028+433105746+433436953+433673715+433872677+434191496+434284030+433739795
3018+432778881+431869256+431094771+430415165+430019297+430023494+430241790
3008+430444832+430514269+430295741+429642185+428730823+428047541+427803861
2998+427602873+427055773+426429713+426156741+426101314+425898763+425654649
2988+425756387+426255470+426774929+426799965+426007593+424639986+423525148
2978+423328762+423761708+423875776+423171336+422007958+420954974+420278811
2968+420010066+419972496+419797848+419265277+418486914+417712284+417249208
2958+417395983+418008758+418392701+418084302+417459573+417115081+416960520
2948+416422479+415352012+414222991+413499650+413265464+413451777+414055984
2938+415023700+416004353+416361089+415759081+414771799+414341228+414560566
2928+414628700+413992018+412812403+411477155+410370682+409890558+410144426
2918+410741861+411136947+411123575+410900214+410694277+410447586+409961760
2908+409272516+408707093+408538060+408704836+408934941+409003162+408766660
2898+408082336+406987035+405909303+405362897+405420496+405754192+406043835
2888+406027366+405460786+404417034+403407553+402950121+403110413+403509349
2878+403723622+403721393+403846489+404269043+404684593+404764739+404588991
2868+404347656+403895752+402997300+401897194+401200916+401143404+401376056
2858+401563237+401740722+401929061+401938671+401755136+401559011+401274405
2848+400641166+399692930+398721510+397952524+397545194+397607048+398021295
2838+398506600+398868285+399006117+398825564+398379883+397953653+397755039
2828+397589884+397059224+396118339+395252304+394947842+395141217+395386402
2818+395455318+395522786+395755526+395987454+395961202+395672456+395237253
2808+394651397+393935060+393305266+392959819+392794404+392487250+391846341
2798+391049048+390529560+390605510+391157154+391618523+391369662+390319600
2788+389060794+388256265+388007925+388017506+388108535+388296353+388519106
2778+388632017+388614159+388565619+388494996+388251866+387728470+387036505
2768+386403643+385951132+385620967+385256793+384767812+384277615+384033212
2758+384123633+384342479+384301002+383698271+382631856+381633634+381246594
2748+381549667+382112050+382335035+381886142+380964360+380143883+379849377
2738+380001536+380208023+380200556+379993519+379715019+379455970+379252001
2728+379052142+378730169+378268569+377863120+377712496+377791715+377892962
2718+377780485+377320477+376544487+375551677+374460284+373581860+373331523
2708+373722673+374258051+374495364+374424451+374285404+374291655+374424306
2698+374376433+373912286+373232535+372715188+372465633+372369394+372374517
2688+372516603+372782339+373035339+373085007+372902167+372700398+372653132
2678+372609456+372264993+371577629+370843753+370368057+370207649+370237519
2668+370297028+370267708+370206665+370384816+370953335+371583563+371701018
2658+371158056+370443948+370072365+369961972+369680520+369143695+368670864
2648+368404579+368127150+367689777+367254603+367049968+367113211+367296919
2638+367412319+367375589+367253300+367147568+367059896+366932137+366792337
2628+366750079+366839661+366937868+366837085+366394443+365708469+365155261
2618+365083972+365442242+365872756+366168217+366390883+366568947+366565590
2608+366330940+366054090+365908386+365800251+365560189+365265075+365146578
2598+365278216+365541462+365763087+365729512+365254424+364422977+363678362
2588+363500443+363941000+364553862+364873173+364903130+364994506+365293325
2578+365519146+365329476+364789409+364345725+364294697+364424221+364341933
2568+364039873+363868264+364007369+364254696+364343670+364246158+364129513
2558+364139065+364230412+364196461+363922766+363597955+363558563+363912230
2548+364394612+364626425+364470966+364077124+363631299+363250685+363057454
2538+363057888+362994443+362673048+362358050+362451510+362892791+363272045
2528+363446636+363678246+364170093+364726368+364913289+364488969+363676625
2518+363006947+362828536+362984949+363084777+363030652+363040956+363214563
2508+363421976+363587796+363735556+363804413+363684411+363368024+362977279
2498+362763440+362989175+363580589+364073275+364153189+364023809+364032406
2488+364187806+364242395+364086907+363900074+363927107+364170874+364364336
2478+364298286+364081263+363951826+363975646+364111452+364398432+364838729
2468+365259402+365510608+365620248+365580305+365244843+364641736+364113362
2458+363921174+363921087+363832692+363667479+363694658+364066241+364607408
2448+364967125+364955490+364725558+364570997+364591981+364679942+364732447
2438+364698611+364539621+364338779+364298431+364476697+364693141+364794734
2428+364868368+365112308+365552577+365958691+366118578+366144569+366308856
2418+366619802+366813698+366755520+366636184+366749124+367146497+367538949
2408+367607691+367400423+367243025+367307281+367508558+367773599+368167730
2398+368762820+369488505+370153668+370714402+371563765+373422726+376908053
2388+382331359+389863181+399719732+412193116+427505534+445480256+465339179
2378+486090301+507252459+528940587+551148667+573226035+593945754+611702469
2368+625197809+634704485+641995608+647734578+649760256+645691822+636403732
2358+624344191+609751987+591370659+569449357+547034791+528744983+518180171
2348+516827442+524292635+537852868+552386199+563169481+568780055+570819685
2338+571963843+573707317+575781101+577696271+579593438+581405510+582431403
2328+582068850+580166299+576615327+571445513+565309547+559140526+553149222
2318+546743092+539617529+532307823+525440556+518856189+511800380+503823688
2308+495201369+486577777+478415553+470723005+463258014+455993027+449157251
2298+442841195+436980082+431697126+427143647+423088237+419199951+415556299
2288+412394798+409657674+407181452+404998260+403174177+401687465+400566520
2278+399819011+399228262+398518641+397699669+397019455+396587783+396212900
2268+395655437+394936467+394261462+393682639+393028677+392202093+391373338
2258+390812720+390633151+390725859+390879986+390932838+390822706+390569301
2248+390271698+390062982+389970680+389869636+389644133+389344157+389127742
2238+389080187+389126845+389144095+389123227+389144008+389222013+389293649
2228+389295849+389161520+388867159+388555113+388400725+388314443+387997650
2218+387336915+386562488+385990525+385712835+385588289+385507390+385511790
2208+385575206+385508809+385256764+385041883+385056355+385244781+385473092
2198+385689159+385912115+386240428+386791551+387488611+388049721+388325123
2188+388479771+388714045+388975091+389088667+389048985+389037089+389233214
2178+389701558+390356243+390962853+391283843+391299414+391225925+391310616
2168+391648422+392150630+392622824+392886851+392887430+392728180+392624473
2158+392769657+393170098+393637631+393993556+394235123+394453217+394659848
2148+394781848+394770328+394644797+394513594+394575476+394914064+395293723
2138+395460933+395606551+396106299+396877195+397459317+397649480+397665197
2128+397826039+398311546+399003396+399505604+399595707+399557096+399827375
2118+400533176+401508330+402507682+403355280+404076131+404822367+405602265
2108+406268209+406747870+407034793+407050365+406805180+406590067+406734961
2098+407259254+407942594+408591838+409054856+409164496+408925911+408635341
2088+408610160+408875403+409211849+409433097+409566037+409788183+410196902
2078+410696013+411155153+411562830+411923675+412130568+412085791+411925007
2068+411978264+412429675+413106069+413672823+413945794+413997575+414111470
2058+414564647+415276063+415849647+416136425+416442450+417024660+417766178
2048+418459967+419027849+419433442+419734287+420156378+420836998+421633133
2038+422394477+423216807+424220037+425306799+426348814+427403275+428563382
2028+429769741+430900556+431902426+432782238+433642601+434746237+436310172
2018+438139986+439702907+440755284+441672521+442950517+444631009+446381343
2008+447914567+449204112+450439213+451819005+453356282+454964818+456646410
1998+458408553+460151651+461813272+463419551+464912891+466208311+467386508
1988+468550811+469647704+470607894+471462352+472287199+473257491+474666632
1978+476599922+478663083+480339436+481622844+483046660+485082788+487719041
1968+490556080+493074444+494927501+496272068+497680544+499527637+501687848
1958+503949131+506319592+508772311+511129689+513337715+515517202+517722045
1948+519941880+522298505+524967553+527847428+530408341+532086691+532985403
1938+533970080+535937466+539043684+542656713+546057755+549013754+551584680
1928+553813952+555940471+558412004+561244296+563915369+566308869+568930448
1918+571726907+573714264+574440181+574802097+575918875+577976508+580268240
1908+582058893+583286989+584372334+585468619+586225737+586458042+586786442
1898+588149996+590559241+592804953+593951832+594662004+596117658+598120818
1888+599362692+599428800+599198290+599434068+600091098+600789808+601310743
1878+601605741+601660040+601575870+601827220+603120615+605612987+608126836
1868+608677700+606700705+603887227+602146473+601902533+602317996+602477304
1858+602038801+601001331+599552507+598208461+597471198+597206649+596986732
1848+597135331+598431330+600288033+600414345+597915200+594786174+592828571
1838+591933042+591178471+590190205+589415141+589459020+590203114+590621124
1828+589963225+588545025+586751940+584526837+582138489+580262567+579071809
1818+577973845+576464354+574910001+574083416+574088916+574171580+573664827
1808+572759284+572049170+571961817+572829270+574647652+576503313+577064307
1798+576127040+575053505+575530966+578075091+580972102+581407768+579190653
1788+576926417+576658453+578468499+581137777+583306208+584193112+583995482
1778+583944135+585418198+588942484+593804681+598049674+599930111+599788459
1768+598849514+597827210+597606540+599130329+601989654+604503851+606030592
1758+607280223+608308547+608885113+610116624+613345797+617759592+620541984
1748+620395759+618981957+618336968+619230934+621424951+624061002+626041239
1738+627366819+629661562+634080045+638739691+640286693+639099524+637445255
1728+636114176+635219110+634992188+635547162+637183369+640807628+647112454
1718+654646245+659157870+658407409+655192245+652532865+651189224+651085720
1708+652486497+655360352+658632652+661687407+665582177+670867767+675262922
1698+676524825+675422983+672835732+669481579+667222553+667384003+669670236
1688+673281586+678355421+684661984+688687465+687322174+683456869+680883626
1678+680892541+683109772+686082210+688596581+691278479+694913852+697789560
1668+697535489+695664603+695560173+697953036+700460634+700826428+700044476
1658+700678756+704466317+711951713+720664048+723522794+720068495+717580695
1648+718578050+720548793+720305315+718400970+717034174+717182367+719515664
1638+724780761+732019496+736874745+736310452+733818658+733733794+736989132
1628+741957727+746823628+751219072+754835285+756679137+757748909+761136117
1618+768205471+775902506+779223489+778170099+776253018+775840681+778033193
1608+782345453+786468186+788468799+788696184+788693521+789475416+791163607
1598+793175277+794546935+794609918+793419912+791790535+790981606+791905848
1588+794353068+796984141+798308505+798004882+797298126+797786875+799954438
1578+803023260+805626257+806913978+807749998+809352862+811663408+813899568
1568+816016131+818712965+822017623+825677020+830618697+838096047+845669664
1558+846421746+841314626+837449436+836600449+837371287+838495185+839408891
1548+840177877+841787166+845778436+852798354+860879476+864712480+859796505
1538+850760924+845011592+844150101+846093637+847514385+847058458+846470662
1528+847412733+849901227+853210459+856280902+857289256+855659300+854533260
1518+856933128+861835498+866385273+869578265+872140103+874129428+875290780
1508+877452669+883464986+890925491+894273102+893485650+892299060+893688374
1498+897580482+900885951+901171455+900009409+900685774+904942866+911396811
1488+916301382+917730118+917169935+916796035+917902856+921220482+926794412
1478+933836791+941243517+947332304+949540273+946855943+942088741+938851638
1468+938205028+939101541+939408927+937887048+936561005+938297417+943276142
1458+948896325+951674665+950513430+946793597+941617300+935921168+931284967
1448+929081977+929073815+929312024+928024187+925424780+923826026+925706695
1438+931067308+936091764+936659936+934031468+931374057+929692696+929116941
1428+930099650+932367880+933742665+932053316+928714793+927875183+931367689
1418+936027103+938065807+937880970+936814150+934367451+929970154+925009375
1408+922120931+922737208+925424374+927065502+926291944+924591422+924160851
1398+925832949+928735748+931572960+933521474+934099255+933440662+932399371
1388+931650762+931285025+931580833+933444657+937667016+943828279+949837412
1378+953534089+955313512+957191171+959249672+959952723+959974200+961624590
1368+964801200+967022020+966970962+966204466+967331605+970736179+973976408
1358+975155010+975129539+975814240+977900411+980652760+982860497+984176178
1348+985804686+988935275+992650881+994775838+995175498+996721689+1001948523
1338+1009268475+1014141149+1014695369+1013204056+1012085310+1012234083
1330+1014553775+1019608333+1026280633+1032972846+1038768141+1043194382
1321+1046367345+1049065510+1050828666+1049781007+1046075705+1042614343
1312+1041282222+1040756250+1039389743+1039031532+1043295802+1052204782
1304+1060435314+1061968307+1056970942+1052013752+1053553807+1062289818
1295+1071791457+1073741823+1067654078+1060390509+1055712107+1051091131
1287+1043875956+1036109340+1031131194+1029203983+1028974514+1030303394
1278+1033180317+1035850927+1035913562+1032715707+1027691714+1022670730
1270+1018399282+1014657626+1011282055+1008021449+1004366625+1000659933
1261+998042812+996466287+994119156+989984671+985386502+981946443+979842789
1251+978809255+979041039+979632424+977770395+971378158+962055856+953217962
1241+946091704+939390055+932014704+924216481+916451543+909156715+903452652
1231+900095604+897382041+892140388+883950726+876039736+871187207+869137505
1221+868033289+866604842+864562144+861989249+859223297+857232930+857093420
1211+858301776+858596311+856849016+855075961+855995861+859991531+864963367
1201+867970365+867669173+865718691+865037521+867085603+871497372+877381351
1191+883879234+890216535+895984564+900744356+903733930+904959364+905705252
1181+907103655+909228149+911748424+914248958+916311454+918476990+922275782
1171+928390156+935670339+942875846+950581506+959230222+966500100+969946180
1161+971116619+973690325+978372778+982428651+983568352+982099847+979817550
1151+978087506+977483154+977693056+978152919+979531814+981969367+983473416
1141+982573024+980825382+981122464+985033385+991941984+998491097+1001460179
1131+1002461990+1004948632+1008083852+1008545568+1006972516+1007160074
1123+1009490533+1010228838+1007928944+1005593737+1005959011+1008075285
1114+1009787384+1011623942+1014979947+1018004833+1018256067+1016412331
1105+1013975589+1011418555+1009099557+1008433960+1011086509+1017178538
1097+1024954648+1031008703+1031572649+1026482778+1020426061+1018178613
1088+1020407884+1025078065+1030495351+1035200381+1037520421+1036101814
1080+1030727019+1022918839+1016409784+1014358576+1016535285+1021442692
1071+1027644130+1030904041+1025502501+1011979491+999004565+994788921+999517106
1061+1005070544+1002967585+994420174+987484367+987221787+993179863+1000847954
1051+1004763506+1002742053+997481644+993129153+991076325+991079219+993374367
1041+997216401+999656038+998093753+993312079+988477959+986498417+988191992
1031+990977105+990651079+985944544+980025253+976868498+978025218+982607410
1021+988110601+991572657+991626146+989059503+985441264+982351776+981476739
1011+983219750+985819853+987015126+985767753+981692662+974377457+964883864
1001+956146290+950133742+945903278+941341463+935966379+930513260+925727708
991+922572806+921740375+921741880+918849906+911740203+903774510+898702643
981+896594705+894300831+889670650+884817774+882965412+883632283+883327560
971+880257985+875958230+872353768+870092369+869149083+868577264+866779722
961+863719409+861173143+859898157+858208750+854660441+851299225+852111859
951+858140905+865423809+868987459+868809742+869360316+873670086+879941163
941+883935559+884495742+885130891+889548738+897480856+905911334+913085523
931+919188377+924460190+929399725+935251287+942218063+948581645+952574825
921+954165996+954310195+953600892+952398093+950923799+948967875+946528296
911+944130686+942262405+940886752+939605457+937687797+934821988+932176849
901+931732384+934210574+937879812+940270765+941018043+941285428+941407630
891+941290464+942643946+948097296+957041009+964078988+963835568+957393085
881+951494286+951262444+956133555+961713332+964307877+963460859+960328301
871+956013321+952368802+952108710+956148837+961208085+961901932+956940689
861+951742279+952799084+960665963+969468892+974126107+976636251+980969292
851+984800443+981952695+972201790+962224369+957501683+958405200+962238609
841+966393123+969654366+971729539+972746749+973332229+974292361+975985125
831+979176497+984802295+991044255+994802119+995627257+995091097+994215366
821+994117766+997099004+1003837412+1012456720+1021326800+1028487907+1029697189
811+1023044803+1013197341+1006264776+1003173319+1001780184+1001807160
803+1004774389+1010810845+1016481102+1018427300+1017445634+1015604907
794+1013134706+1010526846+1008633095+1008099135+1009159066+1009913927
785+1009301587+1008053519+1007059233+1007383985+1007925470+1005601726+999052149
776+989766085+981547015+977098430+974392971+970337272+965831666+964885890
766+970642921+980157816+984903947+981343712+974171838+968514028+966443428
756+967734738+970223695+971943725+973860747+977767616+982794157+986203882
746+986715729+984791528+981272278+977717832+976683488+979256383+983116015
736+984923976+984582205+984757606+986318269+987404945+987488072+987425785
726+985751082+983252283+985794613+996155775+1007869435+1009643590+998514947
716+984348453+977565587+979636360+985079695+988595588+990018593+992286649
706+996073342+998716745+997813922+994515110+991037540+988533184+987807499
696+986267907+978351244+963273243+948579504+941784308+942796134+946475097
686+951125133+960002623+973340102+985698519+991797958+991985979+986351729
676+972502461+954959931+940937057+930003671+918244049+910380006+916731548
666+935916421+957690166+975751489+983399088+974143473+955870048+943097789
656+940735491+943088816+942647825+937254331+929504676+922419460+916331715
646+912331704+912284988+911086820+902514401+891092787+886794942+895549940
636+914459613+932528577+940127608+938183783+933991294+932181538+930615838
626+926861042+924991603+927423656+927737178+920331610+911105055+908049489
616+912417263+920140000+928374237+934826388+937925833+935718907+923758412
606+903934339+885283715+871015685+859351867+851663689
##END=
