##TITLE=<SNM>
##JCAMP-DX=4.24
##DATA TYPE=INFRARED SPECTRUM
##DATE=29/4/2025
##SAMPLING PROCEDURE=Instrument type and / or accessory
##ORIGIN=Admin
##XUNITS=1/CM
##YUNITS=ABSORBANCE
##RESOLUTION=4
##FIRSTX=4497.3318
##LASTX=599.83466
##DELTAX=-1.4281778
##MAXY=2.0161018
##MINY=0.41965732
##XFACTOR=1
##YFACTOR=1.8776412e-09
##NPOINTS=2730
##FIRSTY=0.43310419
##XYDATA=(X++(Y..Y))
4497+230663983+229081031+228899040+229713269+230528133+230900415+231069248
4487+231242541+231242668+230917605+230565956+230601907+230823578+230476913
4477+229406491+228652862+229220040+230686728+231872763+232480748+233033657
4467+233548742+233385163+232280552+230752248+229556594+229218945+229918767
4457+231503893+233483126+234950036+234979860+233597152+231896063+230823181
4447+230346475+229993017+229523104+228921198+228432270+228671369+230112900
4437+232409053+234432316+235086521+234259373+232806938+231417580+230054760
4427+228797680+228275707+228628959+228893247+228115905+226629044+225643808
4417+225926397+227253774+228918309+230429661+231557382+231925522+231112341
4407+229335383+227604264+226781750+226704786+226724087+226862857+227678419
4397+229017987+229751172+229173820+228120921+227939708+228718129+229346335
4387+229127918+228378606+227473414+226425895+225469912+225068186+225273985
4377+225736343+226171654+226427911+226398373+226076707+225513386+224826865
4367+224315700+224204976+224273417+224109981+223695779+223502408+224023652
4357+225148928+226069643+226154449+225707075+225328776+225038045+224659413
4347+224504088+224895830+225383535+225264287+224707569+224558339+225096566
4337+225646871+225521449+224931733+224639255+224934637+225364441+225371758
4327+224848880+224106520+223579214+223629878+224479152+226048724+227763193
4317+228789966+228723605+227866299+226755974+225726074+224980921+224663794
4307+224714553+224991555+225527480+226345280+227092243+227162350+226355867
4297+225303412+224895846+225257891+225766151+226189669+226975280+228126302
4287+228872169+228777142+228196155+227550315+226988756+226600918+226327234
4277+225983203+225698964+225914159+226770068+227855696+228611928+228789887
4267+228599325+228547661+228924102+229323463+229047239+228150284+227593328
4257+228083431+229214866+230028190+230031856+229423950+228770237+228741112
4247+229735427+231382772+232561109+232255395+230534704+228526138+227370610
4237+227312247+227730718+227893853+227622105+227222776+227005263+227178603
4227+228004562+229447822+230692712+230691759+229474249+228438667+228910817
4217+230643301+232203270+232680040+232401228+231935649+231278317+230332761
4207+229479757+229263927+229737522+230224243+229869071+228718891+227957770
4197+228576390+230109281+231221225+231254715+230607462+229784440+228843630
4187+227945501+227641532+228122191+228742048+228822996+228478903+228216297
4177+228233614+228463475+228803521+229057873+229123934+229337574+230078028
4167+231132721+232027454+232692039+233176872+233119033+232217952+230934398
4157+230150644+230289049+230952683+231337155+230984570+230156564+229488344
4147+229415443+229853802+230229910+229975287+229170233+228496902+228465983
4137+228997765+229773536+230656920+231705549+232836952+233575867+233454223
4127+232707753+232067436+231855478+231816607+231734754+231660742+231543748
4117+231198702+230779453+230749455+231269349+232096307+233096654+234215915
4107+234903134+234461235+233200966+232392737+232830540+233985275+234614498
4097+234009290+232701166+231825162+231876318+232418974+232794463+232748036
4087+232483875+232405498+232778209+233530711+234341527+234777759+234467997
4077+233455159+232309646+231639235+231599920+231958124+232430989+232894838
4067+233363466+233873186+234414254+234846264+234870675+234367431+233738685
4057+233498919+233603453+233673021+233731034+234081366+234544501+234596959
4047+234309386+234288149+234558818+234500170+234027019+233769302+233999243
4037+234372113+234680843+234983590+235220753+235412918+235836769+236510291
4027+236959078+236839893+236458214+236369710+236660870+236940221+237005107
4017+237161448+237639424+237995612+237520097+236224337+235053602+234885674
4007+235631526+236568589+237175971+237367708+237341455+237384262+237496050
3997+237380945+237053581+236953554+237241270+237611505+237906871+238300708
3987+238883457+239508568+239939165+239924531+239356972+238516396+237998438
3977+238271487+239285611+240454901+241062712+240838390+240189549+239826203
3967+240132235+240954431+241866734+242391327+242190639+241394425+240508739
3957+239840329+239374543+239183791+239492061+240356033+241541211+242619014
3947+243191953+243223856+242891238+242167322+241068743+240111426+239923325
3937+240609338+241877543+243429116+244923802+245769775+245460124+244351022
3927+243620201+244083432+245243405+245936799+245905880+246016826+246938240
3917+248106165+248185209+246620383+244298135+242499036+241755327+242034377
3907+243680659+247371440+252769152+257811627+260325754+259695627+256399286
3897+251658573+247553590+245953782+247169070+249446732+250415652+250151268
3887+250726334+252612350+253943759+254092926+254731465+255754334+254838285
3878+252178007+250782268+252080123+254820302+257651413+260096337+261080288
3868+259980772+258199703+257108488+256172059+254354580+252178944+250854693
3858+251035478+253680407+260299533+268464883+270061913+264084549+256635417
3848+251654383+250073177+251273656+254020327+257235688+260583011+263915748
3838+266086225+265770733+263484801+260795794+258632713+257144232+256407778
3828+256447093+256855914+257665317+260109384+264479687+267635528+266985466
3818+264876509+263775659+262402141+259147830+255430541+253731468+255264740
3808+258920444+261926086+263442089+265439671+268584178+270300758+269058631
3798+266671704+264501369+262352239+260389894+259374247+259416467+260095417
3788+261430445+263612049+266007293+267732126+269100597+271025103+273190581
3778+274312302+274242940+274366966+276305249+280786451+286854398+292448528
3768+296799864+300746998+304568392+308124022+312500246+318956396+326472714
3758+332328514+336008074+340167959+347994167+360530010+373904414+382145997
3748+386003517+390632870+397659214+402767622+403080908+402329867+404681938
3738+411436137+421001336+429451449+433283636+432605004+430516316+429939107
3728+431895262+435578949+438905035+439827909+438111742+435648533+434682613
3718+436031498+439571414+445585586+454239276+463236949+467927950+466685378
3708+462641804+459609037+459840073+463342753+467619330+469936737+470640416
3698+471894733+474427336+477612826+481286989+486053383+491808394+496209632
3688+496168809+492190280+487751837+485569471+486037956+487548451+489051359
3678+491781348+496203474+498400252+495588362+491346068+489364835+489236715
3668+488882828+488140929+487979603+488688806+489875381+491088558+492439537
3658+494686979+498328922+503142964+509159645+516814909+524993797+529448493
3648+526873290+520527324+514970177+511703040+510683949+511478829+513459999
3638+515788516+517707943+519153235+520704173+523175953+527160704+531390712
3628+532486244+529868948+526411440+524641085+526346776+532619190+541647242
3618+548380171+550124718+549229335+548704282+549699914+552376604+555627170
3608+556904757+555470988+554032838+555054564+558210532+561647946+564433646
3598+567282264+570911668+574485265+576384344+576815878+578322849+582518002
3588+587121960+588001916+584735160+580421664+577489812+576629157+577720150
3578+580071586+581965332+581559638+579343623+578278153+580403189+584684433
3568+588650391+591265561+592846814+592921604+590976369+588452750+587845606
3558+589769065+592429883+593843970+593236064+591273433+589712179+589947532
3548+591890100+594486604+596557738+597029460+595697654+593670074+591915242
3538+590225169+588576109+588033279+589532188+592746502+595901771+596737983
3528+594764939+592077647+590704319+590525344+590896436+592487658+595786348
3518+599216905+600625532+599860174+598580620+598125595+598546590+599316011
3508+600339705+602123615+604573968+605704069+603473706+599303948+596464663
3498+595532583+594359880+592163610+591187215+593539858+598059567+601334830
3488+601728270+601266135+602491089+604823796+605379832+602621812+598258795
3478+595168665+594693768+596721158+600388973+603913747+605370054+604802655
3468+604600760+606711828+610123592+611793476+609758722+604650662+598734263
3458+594320962+592900526+594695673+598164260+600788381+601269500+600239964
3448+598894255+597818118+596994604+596417364+596454822+597346714+598366408
3438+598427611+597387727+595602357+593123054+590788823+590599308+593258920
3428+596529295+597526451+595924119+593467735+591394316+589989562+589786778
3418+591316161+593669058+594964866+594574409+593737436+593930188+595349481
3408+596850358+597085203+596033002+595073876+595046449+595359322+595399320
3398+595396844+595570042+595503188+594729767+593681185+593646329+595194632
3388+597318969+598809751+599797828+601215280+602967382+603797753+603327491
3378+602967065+604100595+606190965+607546008+607607656+607255546+606900136
3368+606136809+605660452+607149203+610352215+612522138+611962610+610379706
3358+610410879+612550263+615307203+616985658+617091494+616665674+616807699
3348+617083558+616580155+615843367+616098655+617276882+618334034+618515422
3338+617941864+617299230+617268247+618247944+620127785+622123240+622948405
3328+621895823+619949953+618828740+619027333+619559242+619353602+618386667
3318+617852535+619085616+621782749+623760173+623036337+620101183+617552550
3308+617558137+620082264+623334925+625517926+625830926+624281797+621670310
3298+619343698+617969354+616929978+615650360+615047724+616838808+621655200
3288+628048845+633132335+634738857+633139318+630373617+628432508+627981293
3278+628479427+628943530+628663036+627923391+627425956+627199999+626767259
3268+626023170+625310190+624822278+624801581+625539766+626412547+625892319
3258+623561009+620941649+619748185+620573477+622921168+625270636+625791626
3248+624113806+621772210+620710168+621605298+623420063+624171581+622316436
3238+618585069+615873651+616491143+619918970+623222867+623734206+621356802
3228+618233405+616662563+617109334+617890057+617587152+617353449+618953051
3218+621693992+623386033+623290736+622115939+620227082+617918373+616325184
3208+616395275+617523028+618245214+617858058+616547712+614525147+612137332
3198+610384976+610056040+610688770+611320674+611408035+610416085+607863198
3188+604528510+602435409+602967319+605595186+608523609+610220286+610327201
3178+609344330+607768409+605848316+604035328+602998238+602931384+602956335
3168+601510694+597969984+593744419+590812695+589424511+588501764+587956521
3158+588683596+590158124+590221169+588063754+585628195+585037875+586136296
3148+587388550+588001218+588155559+587892969+586856386+584996734+582841288
3138+581274192+580987794+581691568+582195352+581820768+581101312+580677651
3128+580439631+580067269+579606975+579159823+578622707+578048133+577569237
3118+576894160+575718854+574459997+573559852+572601488+571322441+570652634
3108+571341234+572426703+572373182+571033948+569405839+568149649+567247980
3098+566568713+566041946+565475054+564745440+564158358+564088838+564392632
3088+564596559+564440059+563967067+563390524+562910866+562351656+561283012
3078+559891844+559146104+559487610+560084469+560000410+559254670+558226595
3068+556930089+555425085+554286857+554030616+554575795+555525652+556310501
3058+556139398+554588048+552203788+549960980+548432359+547799439+548124375
3048+549262857+550681960+551535948+551099018+549232255+546371892+543281635
3038+540943214+540140524+540768429+541890721+542542244+542233498+541066001
3028+539794891+539444940+540404447+541852311+542296098+541101047+539363865
3018+538612411+539024136+539719403+540101732+539952153+539011629+537536846
3008+536374302+535690019+534765558+533335281+531983412+531137582+530502090
2998+529608516+528444385+527337044+526564258+526224275+526284208+526501404
2988+526371982+525534500+524267866+523303946+523083291+523354166+523568695
2978+523431114+522850509+521778690+520374253+519054319+518185157+517760861
2968+517413926+516712247+515744645+515194419+515347269+515492849+514884943
2958+513762777+512845046+512373165+512063022+511625711+511118022+510810260
2948+510676997+510207243+509039429+507631563+506821445+506780273+506776114
2938+506154939+505338663+505223843+505842161+506354961+506237475+505712549
2928+504993982+503995906+502891517+502111715+501568663+500571063+498826579
2918+496966483+495708800+494982297+494283825+493565607+493251782+493489039
2908+493920319+494258016+494533876+494661393+494334076+493531736+492610100
2898+491759000+490837046+489771100+488716265+487849927+487320050+487249799
2888+487469851+487411251+486674876+485622643+484953693+484729323+484346041
2878+483592238+483081216+483251430+483526495+483098104+482174976+481627956
2868+481580117+481260292+480261422+479120019+478547096+478671026+479056753
2858+479147827+478766989+478209430+477649268+476789470+475492552+474292644
2848+473810097+474019642+474303723+473990120+472889985+471470437+470367319
2838+469722431+469217758+468594837+467835891+467071072+466511990+466187181
2828+465706189+464725889+463632579+463234219+463771779+464688590+465353508
2818+465549054+465221420+464261341+462805478+461448753+460771962+460645778
2808+460303256+459253785+457890552+456980217+456770736+456834002+456615251
2798+455871892+454669127+453306847+452267185+451926536+452186554+452484000
2788+452290517+451649883+451095213+450866716+450435405+449248957+447763445
2778+447045417+447342958+447661227+446927995+445221732+443604004+442958163
2768+443227991+443676572+443645367+443040794+442286451+441875329+441799746
2758+441423098+440166400+438279511+436610643+435727386+435624820+436051401
2748+436623150+436783079+436195235+435179160+434362344+433921858+433493435
2738+432848293+432311082+432277782+432527992+432370317+431460078+430079608
2728+428636030+427432599+426860786+427137756+427798993+427970317+427234863
2718+425928928+424685436+423940267+423747896+423846145+423859858+423527716
2708+422887082+422254066+421874435+421659747+421416299+421073650+420506314
2698+419542203+418373215+417520528+417157308+416844308+416137106+415189947
2688+414505823+414280438+414294659+414312785+414260756+414062956+413619328
2678+412945108+412133149+411289255+410588624+410154075+409829107+409368336
2668+408891059+408793286+409117714+409321386+408852013+407802225+406811196
2658+406350394+406265477+406084788+405623097+405094616+404761204+404705588
2648+404831328+404870310+404497281+403616913+402535253+401783989+401702533
2638+402078070+402245046+401730119+400760835+399941098+399502581+399153202
2628+398627704+398047416+397635024+397392275+397261869+397324881+397605216
2618+397941168+398216836+398448380+398576786+398443238+397975007+397228347
2608+396337915+395472023+394715489+394059237+393569103+393387652+393519105
2598+393764553+393883373+393742300+393329877+392703274+392008483+391534095
2588+391514096+391782431+391917789+391840587+391898298+392201140+392295104
2578+391804240+391056658+390648298+390665440+390790005+390881112+390944124
2568+390797021+390263175+389501150+388856008+388569355+388683064+389013587
2558+389253194+389206847+388859785+388300004+387729557+387403763+387407001
2548+387585564+387712097+387650767+387437667+387235328+387149808+387152348
2538+387222979+387414461+387721049+388035795+388252102+388302194+388151726
2528+387900596+387816600+388068270+388451044+388574911+388331399+388004336
2518+387882057+387900596+387788474+387520202+387394272+387559692+387730477
2508+387567596+387133174+386777128+386721671+386868076+386961564+386922867
2498+386946771+387210059+387608071+387850185+387719938+387274849+386846458
2488+386723353+386887758+387207265+387613404+387867391+387570326+386717957
2478+385891364+385648170+385953456+386310612+386323151+386060435+385877682
2468+386008469+386442574+387016767+387470046+387602420+387475950+387263104
2458+386940200+386415940+385877110+385670105+385842763+386062815+386055292
2448+385930917+385942440+386080275+386119479+385961233+385748196+385705786
2438+385932441+386265884+386402862+386258202+386110337+386267599+386671420
2428+386979721+387034512+387046702+387210884+387385955+387359893+387184219
2418+387036734+386998101+387087652+387276532+387432905+387454142+387442174
2408+387632546+388158932+388892260+389524418+389858751+389975856+390092929
2398+390366471+390812798+391303725+391703324+392057274+392506903+393035479
2388+393480568+393696112+393509392+392651848+390960727+388611417+385981740
2378+383329112+380748989+378364950+376313689+374526509+372795454+371132935
2368+369800462+368932728+368398057+368067153+368080263+368793212+370502649
2358+373269493+376872169+380899584+385058485+389150659+392520489+394070252
2348+393125538+390244985+387272500+385916696+385971010+385968185+385243587
2338+384428136+384356140+385083881+385997073+386610629+386975912+387321895
2328+387725779+388278989+389123454+390166894+391122718+391892553+392613024
2318+393381112+394182532+394971730+395674996+396230683+396681517+397158921
2308+397786731+398581231+399357191+399851198+400100201+400505387+401343726
2298+402465606+403619103+404743967+405753884+406381091+406488291+406280810
2288+406036124+405852451+405744329+405751281+405863180+405955366+405877243
2278+405653857+405561703+405782994+405996062+405664238+404737777+403680243
2268+402846856+402235236+401795798+401653456+401956870+402626741+403356450
2258+403923405+404398302+404933830+405518785+406083233+406641173+407193113
2248+407662581+407994342+408152271+407992025+407323138+406217861+405121091
2238+404429253+404015210+403438668+402614836+401951790+401788815+401992265
2228+402182699+402172383+402078324+402083752+402230507+402502620+402959803
2218+403606437+404213644+404472457+404319830+404015813+403921469+404230786
2208+404875643+405664301+406479784+407288664+408031864+408668118+409305546
2198+410129885+411161611+412153148+412771434+412927268+412921268+413171002
2188+413797700+414588644+415296672+415770489+415906832+415796361+415817979
2178+416258687+416945954+417512211+417822227+417916730+417829496+417703058
2168+417818068+418288108+418880015+419263646+419378180+419474588+419790889
2158+420272294+420709287+421049492+421396872+421803327+422243400+422680204
2148+423013647+423121261+423045931+422959618+422910319+422815276+422701695
2138+422745565+423102881+423846272+424929296+426050510+426781616+427047824
2128+427238386+427660682+428167069+428485339+428649775+428926142+429475067
2118+430227664+431029274+431776951+432365746+432652970+432669286+432759822
2108+433261764+434083628+434812924+435203222+435354357+435444543+435525460
2098+435620026+435809160+436093971+436313991+436345291+436249296+436147841
2088+436123652+436241296+436452841+436546773+436415129+436259042+436329133
2078+436624769+436993639+437316353+437473234+437365144+437122712+437113475
2068+437591450+438418456+439189179+439562938+439482593+439188544+439063598
2058+439357361+439995678+440703166+441312628+441871901+442456760+443031334
2048+443571847+444206735+445105674+446223332+447206774+447672465+447675195
2038+447783126+448515248+449792517+451090578+452052942+452798111+453664131
2028+454816612+456171179+457581774+458934023+460125550+461214162+462518160
2018+464265436+466238416+468040769+469540757+470834216+472057360+473385706
2008+474917882+476508532+477936968+479146367+480138317+480847773+481333368
1998+481911466+482929319+484485716+486364987+488103851+489254142+489818495
1988+490314533+491240645+492609687+494129896+495703467+497538549+499781325
1978+502238724+504579305+506677357+508625513+510590557+512821841+515483357
1968+518233726+520412219+521920937+523369117+525188613+527246001+529376433
1958+531696760+534283360+536981319+539640168+542281749+544928917+547394824
1948+549483163+551510426+554281207+558124632+562192426+565259065+567066529
1938+568360749+570042696+572589742+575751614+578718702+580936241+582568476
1928+584034942+585644511+587717232+590383129+593281268+595938848+598159308
1918+599789701+600696957+601145633+601652401+602554387+603921302+605493667
1908+606769476+607523596+607969479+608239878+608247306+608205086+608717187
1898+610094578+611848267+613095886+613640748+614345791+615863239+617359227
1888+617474078+616312803+615058517+614194434+613418791+612733873+612575976
1878+613016398+613465265+613319875+612845677+613176581+615093563+617675655
1868+618583927+616551712+612709430+608777692+605523126+602966430+600972626
1858+599373024+597912780+596365811+594685134+593036265+591671191+590821456
1848+590858407+592191990+594209729+594615931+591852261+587500608+583995896
1838+582087548+581062457+580242625+579956735+580918782+582737801+583558458
1828+582073009+578933739+575213737+571410627+568143110+566177368+565608825
1818+565713645+565691233+565454483+565566224+566331519+567146588+567116495
1808+566249618+565511623+565867098+567545806+569839595+571497861+571787814
1798+571285046+571464593+573677560+577990295+582127736+583074101+581181879
1788+579442793+579521265+581046140+583278789+586087029+589134875+591436790
1778+592710123+594348516+598161022+604252079+609848622+611581804+609629141
1768+606394955+603498911+602066983+602984334+605724005+608335174+609851288
1758+611048752+612438967+614095328+616904075+621754687+627575599+631621363
1748+632722323+632324629+632070483+632651787+634286752+636721741+638976547
1738+640745537+643665263+649155906+654796193+655968451+653088787+649640390
1728+647512116+647382980+649117432+651637114+654270759+658040346+664278253
1718+671817682+676343041+675572222+672417525+670269697+670377374+672820298
1708+677312515+682629644+686672551+689340733+693551505+701262861+709438131
1698+713571446+713731120+711392889+707903922+705707145+706257276+709022088
1688+713480085+720749369+731007517+739104823+739971509+737267011+736074690
1678+738000434+742563251+747856952+752006710+755558658+759616929+762488594
1668+762004745+760420508+761507500+765656053+769712038+770877440+770338610
1658+771067906+775058181+783366841+794466026+800658094+798892088+796543445
1648+797414512+798818251+796369676+791020486+786723179+785331884+787161189
1638+791789209+796212922+794452693+785889888+777477170+773468166+773211608
1628+774094103+774357454+774121657+773202910+770278994+765840742+762657665
1618+762363267+763388612+762697599+760263119+758359469+758070468+758694754
1608+758973470+758499144+757640140+756560258+755256134+754205647+754090605
1598+754938118+756089933+756996300+757594174+757970346+758343660+759321516
1588+761361286+764049467+766549341+768381947+769374659+769848412+771187075
1578+774634583+778242528+777300607+772156042+768140562+767598367+768253064
1568+766899228+763818050+761159201+760300768+762603064+769591410+779095628
1558+781571630+774418721+766222056+761155836+758724657+757470117+756424011
1548+755832612+756856370+760300641+766109554+773773992+781053561+782462188
1538+777058397+771569214+770281914+772587258+775339881+776808569+778525434
1528+782146204+787325117+793058161+799907846+808640548+816873085+821248990
1518+822716662+824080149+826079858+828437643+831822933+837709873+847655276
1508+861572668+873034628+873199128+866789738+863112273+864606292+869432080
1498+874674673+878638663+881794630+885511459+890503714+896097527+899998473
1488+900237508+898121806+897089096+899518433+905392549+912541585+918488015
1478+922866587+927256905+932808434+938541288+941918133+942302812+942693713
1468+946217281+953124043+959846307+961273028+957225677+952519375+950459479
1458+949791323+946446095+940217647+934589932+930120189+925613369+921202989
1448+917835222+915502705+913871296+913584898+915420932+919296799+924830234
1438+931200262+935433762+934546378+930962432+929252106+930437316+932202878
1428+932453849+931692427+931291114+931611225+932710217+935051686+937973824
1418+938512654+934943057+929819569+926728805+927021425+929221124+930882690
1408+931502659+932434866+934057070+935394526+936609766+938986471+942591305
1398+946060463+948273240+948644523+946629514+942829071+939232491+937157611
1388+936332828+936311305+937694219+941028654+945494587+949735960+953528721
1378+957858090+963265499+968448475+971204146+971430293+971482735+972694293
1368+974227802+975597765+977840064+981375251+984379163+984516679+982264222
1358+981165992+984313325+990942704+997115535+1000383878+1001853581+1002935622
1348+1003194593+1002353175+1002162010+1004953996+1010985120+1017809982
1340+1022591391+1024696618+1025422677+1026489861+1029400698+1034211947
1331+1039002118+1042519972+1046173057+1051299528+1056366066+1058669505
1322+1057490073+1054219254+1050438238+1047546575+1047279160+1050424398
1314+1055430113+1059665836+1062096760+1063808864+1066258518+1069403629
1305+1071008120+1069625079+1067646512+1067944783+1069933761+1071827507
1297+1073272386+1073741823+1071766050+1067169076+1061736588+1057407918
1288+1054875665+1052720917+1048030550+1039803601+1030670411+1023923324
1280+1020585397+1019560306+1018783583+1016292916+1011821586+1007214390
1271+1004519034+1003833926+1002932003+998723898+989637945+977479003+966408642
1261+959554575+956581646+954542130+951173538+946669131+942082315+937448390
1251+931926955+924968322+916722834+907786714+899186450+891954625+886025591
1241+880108303+873359437+866477626+860564274+855646237+850907111+845857716
1231+841002850+837534009+836120176+836075670+836127033+835599758+834514035
1221+833271304+832730188+833747724+836043926+838209594+839257922+839760817
1211+841229822+844672442+849893194+855980887+861797672+866117581+868606852
1201+870603894+873580442+877317269+880697479+883430230+885952389+888213481
1191+889638171+890253632+891179617+893734027+897991780+902626403+906653946
1181+910729613+916227304+923661722+932413470+941535422+950655152+959682505
1171+967593344+972995420+976455563+980448948+985928481+990743793+992549099
1161+991753139+990799664+991975414+996196978+1002397998+1007826232+1009934253
1151+1008134915+1003703520+999342915+997974158+999958693+1003102280+1006197870
1141+1010240396+1015544255+1020340457+1022965594+1023313704+1022194141
1133+1020511496+1018686064+1017519711+1018588546+1021994278+1025300270
1124+1026270253+1025586478+1025556448+1027073895+1029497264+1031914730
1115+1033380624+1033158413+1031382820+1029190169+1027812524+1027734306
1107+1028434270+1028812537+1028122985+1026680200+1025300143+1023921610
1098+1021793844+1019119058+1017430636+1018182915+1021687691+1027065514
1090+1031708772+1032331597+1029688747+1027626629+1027206015+1025452961
1081+1019448756+1010053675+1001148284+995980354+994448876+993462196+990416572
1071+985936417+982174068+980142996+979111873+976985695+972424274+967485540
1061+966533143+971936807+981383123+989585376+993284237+994027310+994998245
1051+996269610+995024847+989894630+982474497+975673317+972956819+976772626
1041+984977101+990644052+989296565+984063369+979461252+975317144+970510022
1031+967685784+969781170+975156708+979665052+981944873+983813413+986654159
1021+989831205+991926273+992419391+991775360+990308768+988071611+985222422
1011+981351760+975363872+966881380+957265548+948970158+943685472+940971324
1001+938138895+932150563+922743482+912830142+905325251+900525494+896996783
991+893992173+891552233+888870019+884785146+879736385+875309942+872483926
981+871500928+871907384+872135499+870699000+867459545+862936726+857870696
971+853419683+850079915+846689547+842081144+837028828+833138104+831104429
961+830728702+831370765+832264815+833382473+835708768+839808878+844488832
951+847824283+849917828+852794445+857330406+862473575+867466846+873132846
941+880017895+886929101+892715539+897953751+903770600+910250463+916714835
931+923472462+932457722+944570126+956514094+962358624+960022171+953697284
921+948184356+944572729+942159010+941053542+941477838+942300272+941761760
911+939367786+935725684+931186358+926081219+921407106+918394940+917760242
901+919532597+923314755+928412466+934047356+939628471+944278966+946829313
891+947018193+946481839+947610671+951275946+956343944+960892857+963586054
881+964613621+965523988+967483318+969432870+969484423+967676895+965336125
871+963354002+962919802+965120072+969225833+973386258+976078122+976817195
861+975788231+973904835+972945835+973541615+974305068+973789285+972539126
851+973028053+977050771+983475589+989421194+992469548+991680445+988254522
841+985453711+985645448+988974105+995592247+1004191749+1009516496+1007101443
831+999934377+995800427+999236444+1008440614+1017299595+1021624710+1023978115
821+1028886248+1036068107+1039293150+1034760872+1028637181+1028115239
813+1031808830+1033857235+1033956976+1036067917+1039389400+1039608182
804+1037101198+1036375457+1039082494+1041458311+1038837364+1031438690
795+1023261008+1017502886+1015223509+1016161367+1019141914+1021605663
787+1020246875+1013573243+1003943698+995450540+989605438+984709940+979746000
777+976052472+972634550+964548418+951152841+940324817+939128496+945789937
767+952648448+955826319+958869848+965878192+975912352+984536805+988887506
757+990894199+993152307+994062356+991239324+986955731+985722777+988868650
747+994149780+998512798+1000016976+999163813+998901540+1001415064+1005672563
737+1008550005+1007083159+1000574598+992381806+987968696+989686387+993920903
727+995316642+994327295+995981053+1002604972+1011299009+1017335974+1018235484
717+1013682381+1006340910+1000410289+997573798+997872195+1001643878+1008062347
707+1013026541+1012367907+1006643498+998742818+990030750+982306950+979203995
697+981785135+986446868+990447618+995706019+1002080999+1002305051+992232353
687+979477950+973469555+975870513+981756819+984771270+981392583+973901406
677+967872885+965719661+965008141+960514908+947398808+927437658+915011492
667+925124949+947970716+961756178+960280443+953011604+950028326+952042129
657+955145211+958555642+962659942+965701947+965644744+961976294+955012646
647+945880599+937758851+934182968+935859201+940541060+945442717+947979795
637+946192330+940484618+936769441+941085477+948549607+947721776+937200276
627+927812687+927262746+932817386+938375455+943218702+945949040+941191566
617+930244437+919304355+910595652+901232696+888805451+876143614+868082244
607+867255873+873107577+883466165+898512262+917923599+935545375
##END=
