##TITLE=<SNM>
##JCAMP-DX=4.24
##DATA TYPE=INFRARED SPECTRUM
##DATE=29/4/2025
##SAMPLING PROCEDURE=Instrument type and / or accessory
##ORIGIN=Admin
##XUNITS=1/CM
##YUNITS=ABSORBANCE
##RESOLUTION=4
##FIRSTX=4497.3318
##LASTX=599.83466
##DELTAX=-1.4281778
##MAXY=2.1991129
##MINY=0.5153423
##XFACTOR=1
##YFACTOR=2.0480835e-09
##NPOINTS=2730
##FIRSTY=0.53088897
##XYDATA=(X++(Y..Y))
4497+259212566+259475363+260976564+262642342+262703457+260644794+257873553
4487+256261063+256265487+256868115+257164962+257306255+257604936+257641314
4477+256956034+256035634+255871408+256693266+257632059+257650656+256591640
4467+255346105+255098034+256324361+258455693+260423061+261384380+261233250
4457+260786670+260965651+261414705+260804102+258862461+256896839+256091918
4447+256517370+257694223+259013300+259818076+259974473+260024879+260265092
4437+260178308+259217601+257720357+256629910+256480381+256941687+257446094
4427+257842704+258102737+257963393+257407795+256895530+256677347+256555698
4417+256568009+257045961+257830394+258369986+258646665+259151712+260070599
4407+261072574+261728984+261870016+261591241+260850375+259402490+257637647
4397+256620219+256545658+256350757+255587802+255265025+256188772+257916072
4387+259507870+260086693+259095981+256874809+254428673+252539446+251621723
4377+251932074+253207876+254489905+254864980+254367994+253926682+254270384
4367+255037442+255409927+255395696+255544148+255704038+255351809+254869578
4357+255085898+255854092+256358906+256381723+256235918+255933978+255321746
4347+254715014+254631431+254951764+254913873+254187936+253567730+254127228
4337+255798971+257268306+257288823+255818848+253913847+252726751+252633913
4327+253128163+253461069+253368173+253175863+253408276+254265815+255302626
4317+255799757+255566208+254988142+254270442+253388923+252790806+253179704
4307+254453585+255621911+255961510+255694551+255474011+255648045+255985898
4297+255935812+255210167+254108457+253297570+253321085+254185841+255324249
4287+256025128+255949257+255237348+254303212+253593602+253386449+253654805
4277+254076531+254325737+254404896+254547383+254823189+255093232+255334813
4267+255700866+256291155+257095319+257988072+258651292+258822008+258637498
4257+258387739+258014265+257202359+255985403+255074461+255324569+256722020
4247+258148952+258440094+257488409+256173115+255560970+256127773+257358524
4237+258242517+258424466+258447603+258673556+258710924+258242749+257700596
4227+257624289+257799953+257551067+256794456+256354744+257029547+258508777
4217+259495647+259145863+258101980+257670941+258331571+259532608+260520992
4207+260816558+260273852+259248362+258360149+257725508+256956849+256084992
4197+255775835+256381141+257344060+257862640+257805104+257674375+257846371
4187+258082568+257930362+257378983+256718993+255984151+255113720+254488130
4177+254645284+255529219+256532707+257241822+257764331+258397197+259242629
4167+260078486+260506149+260275453+259463081+258470390+257957282+258360935
4157+259201303+259424811+258821543+258401621+258961410+260017691+260505917
4147+259994001+258998225+258396848+258604990+259210529+259462936+259115276
4137+258595473+258393326+258545475+258807690+259084718+259450102+259852620
4127+260023715+259717177+258990076+258256631+257986530+258201918+258430578
4117+258357356+258317398+258865953+260027702+261203536+261698601+261249344
4107+260148740+258988417+258369462+258671315+259716216+260768131+261278126
4097+261346517+261104703+260356736+259354034+259005413+259682283+260569331
4087+260725438+260221205+259764119+259653646+259623844+259562118+259781872
4077+260285580+260308251+259206978+257502698+256438851+256615126+257472577
4067+258097236+258198630+258138882+258337304+259007130+260187039+261605269
4057+262687538+262995066+262561465+261749589+260879245+259990509+259034865
4047+258297579+258288644+259000699+259692527+259781406+259597652+259914172
4037+260906689+261860557+262072483+261830931+261974349+262592285+262904789
4027+262459373+261737540+261415112+261569269+261800926+261810472+261681954
4017+261701075+261956683+262140961+261854999+261171523+260692086+260882825
4007+261560509+262248903+262759916+263159961+263448805+263545979+263494205
3997+263484747+263689920+264128468+264580811+264619168+264033186+263339234
3987+263377300+264257946+265272027+265866042+266005530+265718404+265198922
3977+265055824+265584968+266174209+266041560+265138505+263941716+262889860
3967+262310892+262466503+263383033+264767533+266208812+267417765+268250829
3957+268559084+268188491+267266199+266408195+266400221+267458538+268833056
3947+269493715+269291685+268943151+268925050+269035232+269013842+268929560
3937+268886663+268970450+269444182+270410740+271340394+271620827+271536575
3927+271838864+272451999+272397984+271233238+269957175+269901094+271160045
3917+272503918+272782430+272088565+271259635+270760291+270510474+270649789
3907+272145257+276082670+281937366+287101834+289418608+288971475+286393504
3897+282135322+277639865+274951043+274995948+276505997+277143403+276699035
3887+277048092+278780660+280213849+280526178+281034951+281822759+281292073
3878+279878906+279951227+282151823+285076930+287858473+290244453+291005720
3868+289910064+288897816+288806346+287990803+285310886+282204702+280549431
3858+281229560+285048293+292541612+300245752+301126747+295125141+287318124
3848+281259652+278758047+280039611+283641500+287727977+291816782+296044087
3838+299005775+298738817+295787605+292071110+288484995+285436668+283810208
3828+284166192+285923206+288484995+292237228+296596862+298425032+296462990
3818+293548477+291380999+288834168+285368131+282610684+282284764+284928506
3808+289416221+293311057+295809898+298411208+301048170+301291643+299164327
3798+297414472+296774097+296111663+295387618+295519890+296576665+298112441
3788+300217871+302931315+305514291+307625571+310414216+315003295+320299307
3778+323831408+325059568+325973915+329110685+336134841+346460751+356575171
3768+363254053+366845261+369217534+371732090+375653875+381318501+386612097
3758+389063093+389645175+391582509+397156364+406287085+415503776+420768445
3748+423080039+425503910+427906276+427998153+426784369+427899873+433313721
3738+442700896+453766972+462784514+466877161+466499699+464713612+464453085
3728+467178373+472459106+477685126+479564720+476800929+471160895+465989879
3718+463446832+463402858+464872134+467281513+469749242+470591502+468945544
3708+465548683+461957271+460119003+461269692+464137001+465681100+465001815
3698+464041021+464713321+467575129+472162696+477634604+483156132+487382185
3688+488439630+486109236+482709145+480893198+481575946+483794120+486683547
3678+490933435+496450365+499911834+499836109+499427973+499795423+497209886
3668+490039111+482487062+478268867+477505854+478488796+479842854+480989528
3658+481498096+481267458+481547949+484376115+490426642+497453883+500420665
3648+496555019+489488023+483225513+478390691+474545038+471876064+470759919
3638+471107637+472501683+474322228+476055145+478376576+482584673+486904844
3628+486170759+480779756+476552742+476688972+480858537+486745536+491194835
3618+492464176+491746680+490653410+489356654+488216063+488467336+490126070
3608+491054444+489877941+488446847+489279416+492220995+495054603+497082009
3598+499815795+503425163+505454549+504454990+502802483+503976775+508484833
3588+512910355+513467962+510829691+508312254+507675954+508830106+511107679
3578+513883140+516245111+516936066+515647925+514068000+514629972+518239806
3568+523232074+526337442+525623205+522053824+518039580+515670217+515644374
3558+517098808+518514302+519151417+519375217+519533360+519703145+520687571
3548+523277532+526234594+527014719+524855943+521256295+517798959+515284898
3538+514160896+514592605+516261874+518298652+519440348+518697940+516389809
3528+514280973+513934303+515164413+516557557+517030417+516459656+515336235
3518+514269740+513519066+513159590+513686465+515333383+516839911+516464021
3508+514618040+513634429+514267237+514356058+512259620+509661103+508935982
3498+510092463+511671863+512938410+514082493+515422146+517169062+519048336
3488+520129732+519690049+518017578+515920907+513969866+512457693+511482114
3478+510909432+510593610+510542040+510475512+509578452+507492665+505208748
3468+504115129+504506909+505500822+505812162+504393583+501389841+498410720
3458+496916241+496765780+496711125+495967785+494836798+494029549+493896434
3448+494432446+495453833+496483077+496839468+496272665+495233176+494249100
3438+493535910+493158100+493243662+494129313+495987750+497959338+498329174
3428+496199675+492409463+488741715+486928475+487741166+490187360+492095097
3418+492137354+490877093+489591396+488776638+488007456+486795680+485324978
3408+484406556+484714637+485859826+486483350+485861136+484910527+484688736
3398+484773948+484293493+483706376+484209531+485932146+487843870+489177033
3388+490041207+490632048+490596078+489491225+487526593+485603839+484750317
3378+485341857+486640795+487381196+487121164+486734942+487396184+489341637
3368+491573635+492771733+492624474+492003656+491799588+492112849+492718359
3358+493610238+494630170+495316468+495678214+496280755+497081660+497088819
3348+495819362+494425229+494327444+495310298+496163122+496574867+497052499
3338+497597533+497835884+497859865+497719939+496832774+495092145+493785320
3328+494240194+496003582+497118970+496163937+493644580+491463627+491246114
3318+492874291+494586516+494994826+494677782+495062344+496299381+497137712
3308+496678705+495319262+493921171+492941634+492535245+492896642+494041831
3298+495312685+495780364+495502492+495687236+497027820+498469158+498491276
3288+497300570+496749657+498074235+500559542+502527289+503196940+503257241
3278+503650243+504228455+503955588+502524320+501133505+500919775+501291008
3268+500924781+499946757+499682330+500504655+501271451+500975303+499983077
3258+499265406+499144921+499339909+499698628+500158159+500252917+499466156
3248+498121730+497206219+497217569+497674947+497719183+496794533+495018224
3238+493338536+492846934+493504363+494026173+493346161+491927640+491323702
3228+492473955+494615793+496006899+495610929+493644754+490804103+487804901
3218+485457307+484402074+484684894+485798681+487095582+488099973+488512270
3208+488147585+487027046+485528900+484194776+483283514+482712986+482410464
3198+482454555+482702888+482635748+481908385+480825389+479937642+479336701
3188+478723712+477953511+477082410+476157761+475313726+474621258+473643351
3178+471913431+470056508+469335723+469920657+470719845+470994690+471017361
3168+470903337+470135056+468744852+467699543+467515236+467492216+466824805
3158+465623884+464369095+463337319+462885995+463148937+463421571+462814199
3148+461389537+459925878+458853242+458065287+457433673+457043959+457112234
3138+457715648+458393623+458297585+457068085+455261219+453687348+452706763
3128+452230004+451901988+451195521+449806364+448140355+447115912+447344979
3118+448541389+449679302+449873708+449209236+448397447+447725176+446905355
3108+445879778+445077330+444794802+444861767+444999655+445079018+444953178
3098+444450838+443684245+443034849+442691874+442474826+442169219+441767923
3088+441402190+441272713+441517815+441934245+442010406+441402248+440227055
3078+438876983+437681301+436685845+435747605+434918470+434519298+434700666
3068+435117940+435175679+434558849+433485805+432476409+431932859+431940746
3058+432307294+432658243+432673143+432382553+432066935+431832775+431523967
3048+431006609+430325986+429668528+429304454+429410271+429794368+429953647
3038+429580114+428910724+428425874+428250327+428097625+427801215+427548284
3028+427458153+427249516+426540256+425316606+423972355+422979285+422513294
3018+422351512+422166536+421914187+421790209+421760816+421437282+420627209
3008+419744206+419347857+419442703+419594415+419605823+419606347+419555767
2998+419209125+418577801+417930733+417403219+417016182+416831381+416684965
2988+416144733+415120494+414128036+413636289+413472819+413124344+412461910
2978+411907854+411895223+412369945+412813266+412615193+411543023+410031199
2968+408839183+408296506+408133153+408055711+408076985+408233354+408370631
2958+408265046+407761192+406879528+405897779+405167012+404744180+404366573
2948+403908352+403603269+403595498+403626231+403476730+403339715+403386745
2938+403387123+403179301+403132853+403638337+404361480+404537056+403983727
2928+403248595+402696692+402166908+401626326+401306401+400988250+400078211
2918+398680847+397710507+397629340+397810911+397475416+396705971+396113150
2908+395873694+395641833+395243709+394921048+394885426+395045316+395253836
2898+395490499+395619336+395290855+394439748+393582646+393114967+392668678
2888+391824206+391047980+391097804+391845480+392428261+392311443+391713238
2878+391175188+391025193+391109271+390919347+390119315+388938824+387976429
2868+387694425+388062457+388555805+388614767+388241554+387944969+388011149
2858+388177296+388117606+387862318+387590121+387307563+386883334+386273837
2848+385626682+385126727+384757880+384343342+383841234+383400271+383107673
2838+382889636+382651169+382390089+382226794+382296903+382474312+382332233
2828+381632256+380722479+380175029+380125583+380173428+379853823+379083010
2818+378224802+377815619+378090756+378675719+378907085+378538878+377921204
2808+377453204+377136771+376761551+376295152+375868041+375537697+375310260
2798+375267799+375437875+375606961+375452339+374837255+373926458+373056668
2788+372449732+372020235+371579214+371198580+371133565+371405791+371713173
2778+371725222+371263916+370338597+369264302+368568953+368482198+368613072
2768+368411013+367891094+367594509+367822412+368194372+368066030+367257995
2758+366272638+365798759+366022035+366449116+366439163+365836214+365011125
2748+364375931+363993027+363697985+363464261+363397471+363440077+363400294
2738+363206965+362867424+362351464+361739086+361223649+360854278+360572477
2728+360452633+360560778+360684290+360511624+360000814+359373798+358820644
2718+358374005+358050151+357920615+357933129+357833336+357448425+356898501
2708+356427766+356194625+356182052+356177163+355992245+355733872+355613794
2698+355566240+355340928+354895483+354442296+354154704+354023567+353997113
2688+354117453+354358830+354385342+353823399+352832600+352002854+351616866
2678+351394871+351023754+350592773+350368304+350389142+350479040+350527001
2668+350553688+350577087+350571528+350476479+350173899+349617922+349007436
2658+348633525+348575960+348678750+348735675+348626104+348378906+348130311
2648+347942483+347745312+347533038+347447505+347544038+347636090+347513626
2638+347192129+346838794+346579082+346480744+346601375+346901976+347147922
2628+347035295+346517704+345919092+345569366+345431274+345295714+345229476
2618+345498443+346069087+346472304+346247457+345426996+344516752+344008998
2608+343986415+344206838+344440794+344620707+344743607+344744830+344503510
2598+344009784+343462829+343076375+342884152+342836918+342892010+342913575
2588+342754325+342511114+342438911+342594464+342776705+342782933+342574384
2578+342235280+341867364+341540396+341329285+341318401+341495869+341705873
2568+341771907+341622698+341300997+340939484+340730324+340826013+341198934
2558+341600231+341748945+341627674+341497295+341549825+341656632+341531839
2548+341082262+340574945+340448785+340880697+341573689+342085284+342269359
2538+342231176+342008512+341581576+341132144+340994488+341269596+341683872
2528+341929323+341976994+341958455+341949608+341991545+342108101+342210077
2518+342194361+342142122+342208272+342371480+342470225+342407131+342224366
2508+342058772+342028563+342094103+342107519+342043202+342052311+342257281
2498+342614807+342984003+343216330+343196889+342926758+342601798+342492343
2488+342661633+342899082+343015434+343081264+343238419+343421503+343480349
2478+343478777+343619227+343886185+343985105+343696872+343182367+342874024
2468+343066422+343590590+343950415+343893694+343732669+343909322+344395074
2458+344772855+344785690+344521525+344145257+343730224+343341995+343097795
2448+343089937+343279686+343519055+343711482+343878997+344029778+344096073
2438+344092116+344174622+344448361+344836736+345180671+345352697+345304212
2428+345132331+345046391+345154973+345350339+345480777+345554960+345702161
2418+345991674+346345795+346625181+346806141+347041319+347474658+348052432
2408+348629451+349145964+349537162+349656192+349510911+349385945+349526831
2398+349877983+350230125+350430468+350435241+350345226+350344702+350478283
2388+350607383+350640472+350588611+350359923+349746003+348654624+347149901
2378+345276419+343079402+340766993+338561856+336411549+334147917+331918509
2368+330189113+329310679+329175817+329258032+329089499+328835986+329262950
2358+331055644+334298261+338617326+343565707+348488914+352269638+353925433
2348+353414100+351705775+350149773+349446565+349346598+349602003+350445514
2338+351960103+353633214+354797872+355342587+355702150+356198233+356819633
2328+357597139+358620796+359726609+360657428+361466103+362423085+363618244
2318+364886129+366033792+366999301+367810945+368506178+369172862+369950222
2308+370845623+371670916+372289231+372759588+373122556+373236988+372985919
2298+372531045+372206347+372178786+372298020+372310825+372151226+371963369
2288+371942997+372205444+372683484+373129250+373338614+373347985+373329010
2278+373405114+373622714+373926487+374150549+374222840+374303541+374512469
2268+374685368+374596663+374260382+373867293+373541430+373276975+373050993
2258+372904461+372881935+372927481+372946922+372955361+373027245+373141385
2248+373202676+373147031+372973405+372806996+372888833+373297376+373776638
2238+374053608+374188004+374384156+374639328+374838681+375021882+375243091
2228+375292944+374920372+374278513+373783070+373546902+373302556+372875707
2218+372408988+372091391+371930104+371839973+371801412+371849926+371952484
2208+371983740+371880455+371753684+371749726+371840468+371859327+371729936
2198+371579941+371628077+371976552+372488991+372891335+373065835+373191384
2188+373484680+373901634+374260469+374559586+374974765+375612491+376416102
2178+377247274+377972832+378537656+378971693+379267870+379343654+379225468
2168+379150819+379354305+379827019+380352700+380720674+380885483+380951633
2158+381010624+381037224+380999419+380978436+381076483+381306016+381655422
2148+382140301+382717552+383254729+383618803+383766470+383786260+383822376
2138+383901157+383948187+384008691+384229842+384610534+385047190+385596444
2128+386365947+387184837+387709762+387871136+387965196+388292833+388882278
2118+389545324+390067047+390359063+390538684+390835851+391366771+392079378
2108+392918204+393850332+394714215+395313060+395738861+396344662+397279817
2098+398274109+398998095+399438709+399782266+400111039+400386932+400613670
2088+400865874+401204047+401610872+401975296+402164579+402173776+402184398
2078+402433808+403012601+403775469+404465813+404949062+405296693+405656082
2068+406098035+406567227+406929061+407090115+407110021+407188569+407533726
2058+408193512+408988247+409660518+410110125+410448676+410862778+411443288
2048+412100251+412691733+413291219+414181498+415472695+416879516+417979334
2038+418575298+418782626+418894671+419183864+419755993+420577095+421610646
2028+422847334+424192778+425444366+426455189+427302832+428259407+429538235
2018+431040950+432454233+433661149+434865591+436243514+437752311+439330664
2008+440998711+442731861+444459714+446173190+447925926+449771703+451640733
1998+453288670+454660540+456224458+458432068+460936060+462915068+464086625
1988+464794343+465367432+466038713+467123980+468709754+470438626+471993842
1978+473529967+475322079+477281327+479118810+480799458+482599486+484741906
1968+487050444+489081983+490726166+492428613+494588436+497085443+499627326
1958+502155939+504647533+506915909+508865030+510672769+512637256+514982871
1948+517750183+520828021+524127038+527508125+530511111+532690375+534278157
1938+535856684+537547373+539174910+540957796+543359753+546367628+549393081
1928+551905396+554046768+556535394+559826786+563576254+567233817+570600236
1918+573269647+574568847+574811388+575395537+577213288+579840034+582231631
1908+583726052+584390233+584736496+585261915+586254257+587779003+589567069
1898+591121092+592247423+593356466+595086735+597769766+601081181+603959374
1888+605377837+605404495+604864816+604362271+604114550+604135678+604326126
1878+604632926+605035416+605501815+606387816+608445314+611691540+614534577
1868+615040148+613307318+611119964+609640443+608779704+607987006+606898567
1858+605535981+604331597+603821835+604074505+604638747+605131920+605579810
1848+606280660+607475556+608601712+608027226+605086462+601485300+599019957
1838+597721165+596523707+594972303+593988692+594776384+597029278+598614092
1828+598027092+596015226+593483878+590309594+586886017+584556816+583913531
1818+583977324+583485664+582494021+582053116+582529002+582892960+581962257
1808+580011623+578464527+578373028+579699410+581593410+583013037+583356856
1798+582854021+582478538+583404468+585963463+588485964+588484334+586294884
1788+584632367+584956687+586534283+588055711+589058704+589523939+589434361
1778+589446177+590970981+595100006+601342523+606865041+608662944+607304665
1768+605252172+603804898+603644658+605380806+608334608+610534651+611290738
1758+611681237+612336862+613471807+616096516+620984712+626761645+630380617
1748+630571938+628970129+627569477+627331126+628423232+630313798+631887552
1738+633019587+635546744+640838478+646213212+646934143+643713004+640198802
1728+637970878+637294533+638061387+639720180+642134128+646436372+653734733
1718+662384039+667241270+665586784+660874834+657126646+655697881+656325683
1708+658469151+661465792+664348292+667069506+671011692+676506097+680752813
1698+681594636+680368891+677919612+674543240+672028829+671819756+673705898
1688+677259971+683217632+691397570+696915839+695133593+689619515+685598228
1678+685258542+688446329+692843390+695832173+697800967+700288428+702064097
1668+700912796+698388142+697660867+699185729+700666239+700254145+699193994
1658+700205311+705337329+715365751+727105060+731065115+726263004+721968326
1648+721365494+721707276+719576846+715617897+712595121+712290591+715577619
1638+722053190+728586326+729827321+725023988+719583423+717168078+717860139
1628+719952968+721854593+723625955+725692417+727018276+726916358+726983061
1618+728747729+730751796+730041109+727194463+725059842+724828942+725911677
1608+727320128+728507400+729292123+729683088+729869520+730103156+730708607
1598+732077014+734189982+736390840+738092530+739362278+740541401+741917316
1588+743829825+746391382+749239134+752036713+754767821+757510163+760786597
1578+765577067+771347831+774845386+774905745+774732235+776510523+778763883
1568+778736992+776334976+773591586+772718216+775829056+784032393+793830322
1558+795637305+789101084+782792969+778947870+776126659+773592867+771689554
1548+771460400+774303262+780797110+789897856+799626404+806721338+806035971
1538+798564391+791951979+789584129+789613581+789117789+788454074+790461982
1528+796137346+803420283+809672870+814808381+819788541+823674385+825722920
1518+827526003+829676107+830838350+831355678+834186842+841687466+853437601
1508+865716472+871197897+867117706+861854085+861440944+865435340+871307555
1498+876879315+881180336+884110449+886410431+889376980+893286687+896325003
1488+896659858+895772693+897122649+902061775+908384732+912938771+915678960
1478+919128787+924152428+929096792+932282542+933000155+931239213+928625038
1468+927577693+929409937+933723123+938865619+943972958+950169144+958132442
1458+964393585+962021254+951853838+942684759+938792629+939603313+942382615
1448+943180493+940007490+935386048+932926759+933151897+934299821+935511073
1438+937376960+939758313+941217694+941456103+941659764+942130761+941502551
1428+938780523+935316668+933575107+934696374+937849587+941472517+944206361
1418+944992016+943646776+941435964+940187752+940837090+942576148+943821915
1408+944540634+946169102+948806442+950622097+951002935+951305020+952006918
1398+952210636+951698488+951056309+950308720+949216905+948450051+949109051
1388+950959048+951695461+950032187+948784673+951553033+958068940+964465294
1378+967836777+968839771+969201400+969729555+970833593+972750817+975508059
1368+979090013+983323167+987756548+991838252+994843740+996305857+996889190
1358+996767425+995342210+993293384+992329271+993114111+994602071+995693071
1348+997038312+1000035535+1004512919+1009279815+1013779317+1017793619
1340+1020922270+1023070744+1024549973+1024870218+1023084829+1020439748
1331+1020311697+1025086858+1033599847+1041500051+1045225190+1045293173
1322+1044363868+1044111955+1044588773+1045465112+1046475090+1047073557
1314+1046982175+1046598718+1047770507+1052968472+1061568187+1069069452
1305+1072309158+1073014140+1073661616+1073741823+1072491923+1070708047
1297+1069323692+1068516967+1066653816+1061317904+1053246693+1046143669
1288+1041907488+1039685210+1038051970+1036132825+1033698331+1030606699
1280+1027401217+1025237610+1024476518+1024804097+1026016513+1027298659
1271+1027604470+1027623794+1028285123+1027806908+1024181068+1019278087
1263+1016217653+1014007365+1009310431+1002425794+996829937+994774825+995912855
1253+997901264+997933859+995049437+990235976+984174361+976893462+969497083
1243+963435526+958015391+951139077+942530340+934381541+928501352+924527328
1233+920855797+916051998+909916404+903927662+899796483+897207337+894384439
1223+890843229+887851477+886306534+885437762+884071801+882160455+880119138
1213+877664853+874759478+872737950+872700233+873914105+875206437+876661802
1203+878684319+880712133+881953827+882651475+884080008+887488451+893101478
1193+899472280+904381081+907329295+910093348+914102353+918758253+922988147
1183+926449034+928257530+927200464+924690536+924434258+927990252+933202535
1173+937711582+941981522+947832784+956204799+966990996+979268470+990835258
1163+998764332+1001549920+1000262303+997494292+996302481+999236959+1006041739
1153+1012647573+1014705945+1011510126+1005513235+1000678820+1000232851
1144+1004153792+1009770602+1014997437+1019075765+1020407153+1017940995
1135+1014622595+1014812927+1018609774+1022262505+1024351958+1027883855
1127+1035102824+1042435294+1044094494+1040381695+1036261342+1034720183
1118+1035817353+1037771886+1037211369+1032265666+1026286702+1024351842
1110+1029092546+1040007086+1052740773+1061274483+1063128438+1060244133
1101+1055638931+1051366080+1048561400+1047513007+1046929790+1046032497
1093+1045269659+1043496725+1040264586+1039674617+1045602360+1054724642
1084+1060143438+1058830443+1051732541+1041908652+1034769774+1035408402
1075+1043049942+1050157040+1050325021+1045336944+1040385653+1036734551
1067+1032028421+1026197066+1023205780+1025139476+1029506153+1031969517
1058+1029807191+1024670574+1021363583+1023143617+1028191761+1031624476
1050+1031843095+1029402664+1024091199+1018255304+1014588836+1012475984
1041+1010995475+1012136065+1018024811+1025904410+1029198014+1024767893
1033+1017147890+1012449675+1011970297+1013334279+1014817467+1016841381
1024+1019379248+1020844857+1019987842+1016908783+1013224970+1010673716
1015+1009735330+1009616940+1008538164+1005024194+1000010856+996497236+996276172
1005+997821988+997176259+992054426+984378778+977590994+973838906+973157614
995+972753669+968709333+960492085+951381909+943986927+938524245+934396151
985+930366191+925232951+920043018+916837944+915613596+914672998+913098429
975+910967649+907962918+904443651+902163168+901558474+900347338+896570164
965+891445829+887405508+885293297+884100438+882135136+878730650+875138045
955+873393458+874649936+878704051+884338963+889990929+894621742+897919130
945+899850207+900605013+900791910+901482341+904316764+910291537+917302189
935+921416081+922279731+923820890+929080611+937199434+944883871+949077737
925+949168420+947253350+946624907+950006693+956830448+962716924+964069673
915+961615738+958339362+956142112+954531572+951780441+947945353+946037965
905+948637064+954754149+960793530+963741278+963527432+963085654+965090710
895+968082578+968551305+966864458+967158627+971686649+978161173+981907032
885+979949821+974240232+969709299+968624353+969698648+971914640+975896638
875+980685886+982951235+981914483+980560744+980434904+979862281+977724517
865+976092732+978462676+986044264+994886579+999061528+998794831+999441143
855+1002291223+1002185406+996063839+988757213+986087686+988110203+992304825
845+998514515+1005972940+1010096785+1007468583+1001319893+997080685+996945882
835+1000145427+1004149718+1007360787+1011254604+1016899703+1021182680
827+1020225203+1014925845+1008674131+1003644147+1002036517+1006098896
818+1015127701+1023654426+1025973092+1023212881+1020568848+1020485265
810+1021471029+1023059801+1027260826+1033285306+1038452655+1041822509
801+1044204153+1048099949+1054622201+1060488013+1060338309+1053421193
793+1045559987+1041625542+1040638613+1039142039+1035739241+1030385402
784+1021932365+1010605499+1000697213+996528667+997895327+1000004337+997378231
774+989552646+982604681+982352187+986747850+988546626+985726929+983381954
764+985801083+993402810+1004678804+1016448495+1023973508+1024700026+1020988042
754+1017069429+1014872994+1013843343+1014247986+1017625523+1023381094
746+1027965343+1028047412+1022266114+1011650284+1001501843+998854550+1007292338
736+1023509495+1036271936+1033835230+1019074136+1007709670+1009300886
727+1020047445+1030690165+1037746392+1042688370+1042970782+1034380264
718+1021447980+1013144065+1011860172+1014249965+1016036169+1015245974
710+1014740054+1018317351+1024226351+1027722860+1028428890+1030201008
701+1034577813+1036164838+1027745560+1011493363+998460500+995332781+998653858
691+1003070242+1007815021+1013993396+1020600744+1023683995+1022270887
683+1019283442+1015499516+1008163089+996275706+985488404+982149632+985110186
673+986047524+977945464+961189791+945094632+944869902+958911345+970611365
663+970133500+961412659+956826141+962017296+969932982+971567911+970409218
653+973484669+975172972+965064867+948848699+938758987+935264458+934909522
643+940165110+952340609+964077705+966744962+961770680+957117808+958140009
633+965145772+971795435+968404162+955891713+944055610+940199567+939807671
623+934662382+923247510+912180415+909052637+917079729+933485064+948570361
613+954977599+955590268+956488783+957670176+954424940+947130420+942441344
603+943936056+941876927+927694336
##END=
