##TITLE=<SNM>
##JCAMP-DX=4.24
##DATA TYPE=INFRARED SPECTRUM
##DATE=29/4/2025
##SAMPLING PROCEDURE=Instrument type and / or accessory
##ORIGIN=Admin
##XUNITS=1/CM
##YUNITS=ABSORBANCE
##RESOLUTION=4
##FIRSTX=4497.3318
##LASTX=599.83466
##DELTAX=-1.4281778
##MAXY=2.0439272
##MINY=0.45166612
##XFACTOR=1
##YFACTOR=1.9035555e-09
##NPOINTS=2730
##FIRSTY=0.46807006
##XYDATA=(X++(Y..Y))
4497+245892516+245509207+245426104+245783737+246321009+246407916+245758124
4487+244762221+244039111+244039863+245016759+246746808+248246510+248352267
4477+246763545+244242156+241919725+240776561+241411511+243508525+245651959
4467+246467206+246115710+246010829+246918869+248139703+248698706+248572361
4457+248305471+247945896+247027554+245476861+243928062+242932019+242385056
4447+242129642+242500426+243689525+245062694+245673643+245260666+244374168
4437+243685909+243428710+243378281+243214565+242965539+242935823+243017955
4427+242506423+241174039+239969221+239809669+240379317+240951455+241490120
4417+242060317+242285765+242190748+242448323+243222910+243708109+243128754
4407+241604723+239960077+239062480+239256037+240031062+240437183+240177134
4397+239950543+240551112+242010640+243633617+244549110+244353064+243476586
4387+242718892+242375146+242224064+242220651+242516552+242795513+242340029
4377+241125004+240126346+239988227+240135943+239943247+239902040+240532294
4367+241080133+240611780+239614547+239223550+239545425+239863980+240005746
4357+240462686+241319281+242029568+242308044+242420423+242598684+242982197
4347+243816998+244828744+245006504+243987383+242809400+242443313+242584124
4337+242378230+241424004+239888091+238360036+237574928+237768954+238396358
4327+238689097+238332231+237627126+237274988+237841834+239162397+240416454
4317+240973436+240902436+240418364+239461508+238421862+238485238+240255274
4307+242525445+243488344+242896746+242112843+242421754+243833264+245017291
4297+244424659+242132617+240135567+240178825+241950598+243819581+244692285
4287+244632354+244200025+243757285+243253753+242537876+241857961+241838657
4277+242821283+244344500+245410385+245306475+244116656+242474922+241041635
4267+240266186+240351183+241148284+242144922+242773782+242865230+242730055
4257+242757312+243086044+243648522+244236942+244606036+244752342+244861638
4247+244928192+244905553+245132771+245870425+246613356+246680207+246210993
4237+245822611+245724510+245772386+245857634+245739978+244985791+243654941
4227+242610176+242495714+242823178+242708716+242220448+242243196+243066803
4217+243831887+243651512+242799834+242326768+242728834+243507288+243994006
4207+244111568+244098745+243959938+243597890+243153178+242860204+242833229
4197+243166861+243893447+244755818+245332731+245358923+244773368+243731421
4187+242714727+242278626+242573243+243298138+244024708+244484027+244775028
4177+245228163+245862190+246291857+246378748+246573636+247315815+248337722
4167+248813309+248234188+247055767+246230704+246149590+246392980+246445537
4157+246238125+246009952+245964769+246142607+246520045+247046702+247448548
4147+247256290+246383664+245464540+245256689+245884500+246864464+247587887
4137+247558391+246570395+245081794+244043949+243905189+244136602+244123185
4127+243996871+244121713+244358434+244296154+243837351+243404725+243725253
4117+245187504+247222223+248705955+249182105+249188210+249373188+249810103
4107+250055372+249624938+248609466+247779205+247796991+248488569+249174809
4097+249542556+249835654+250181091+250165466+249381313+248086786+247003506
4087+246636934+247012430+247760120+248281532+248272828+248158647+248558990
4077+249377039+249906780+249746007+249138408+248536461+248218235+248284601
4067+248763240+249561813+250352714+250738778+250662345+250453023+250336165
4057+250131680+249596053+248800768+248077643+247790728+248079725+248663918
4047+249116224+249472025+250168519+251142002+251578996+251032754+250207096
4037+250037571+250449829+250673211+250503498+250528329+251111911+251797055
4027+251883806+251219062+250255740+249552310+249355747+249570298+249944386
4017+250223128+250193647+249772278+249203835+249041528+249668916+250828926
4007+251856924+252438080+252814124+253157604+253171914+252527461+251416924
3997+250499255+250429319+251338549+252625327+253524944+253954611+254367338
3987+254888719+255172878+254955304+254288932+253440448+252868968+253026375
3977+253885693+254759164+254805272+253912277+252976682+252964815+253796249
3967+254613766+255012167+255322409+255752170+255979920+255706642+255160196
3957+254874941+255114465+255698705+256421298+257288444+258155512+258518046
3947+258108841+257481954+257395219+257749079+257819610+257470275+257339843
3937+257818514+258662145+259627220+260657018+261304086+260909614+259716852
3927+258904831+259187643+259901719+259894392+259159321+258853823+259790373
3917+261340956+261924382+260732387+258616037+257056937+256779557+257616362
3907+259430704+262390340+266012982+268826577+269800107+269077827+266915997
3897+263667912+260646169+259490542+260836030+263515296+265185649+265185868
3887+265276674+266626108+268060022+268340392+268223722+268034690+266478282
3878+263704297+261904217+262202075+263717511+265637266+267779401+269118470
3868+268918886+268425091+268864089+269453668+268789316+266972265+265154243
3858+264563506+266608729+272387315+279195479+280382057+275546003+269633964
3848+265813022+264681584+265286193+266355663+267573773+269704636+273119051
3838+276434801+277710213+276816842+274936979+272899583+271076771+269920910
3828+269701943+270062786+270799908+272688695+275999216+278588209+278606683
3818+277581050+276937332+275579131+272754952+269914992+268798772+270098106
3808+273042086+275572806+276771189+277946714+279637389+280171827+279105957
3798+278262812+278116176+277195251+275073688+273281593+272993207+273767685
3788+274663372+275418593+276147511+276898442+278006020+279900130+282127309
3778+283599487+284182929+284892089+286740922+289909974+293480387+296253558
3768+298342995+300726954+303334233+305501355+307911273+312121583+318154487
3758+324025632+328525988+332808066+338733725+346809065+355091505+361018479
3748+365092488+369642787+374956197+378533812+379992807+382445873+388044006
3738+396279571+404854092+411896347+417030745+420150386+421180121+421040688
3728+421524682+424030916+428342647+432738106+435432778+435698838+434345804
3718+433343216+434507093+438780560+446224990+455370928+462975833+466802788
3708+467646778+467875515+469982674+475243699+482025373+486747827+488044280
3698+487626606+487395396+488210830+490513252+494444007+498784983+500630842
3688+498394864+494012618+490062043+487731721+487218763+488220224+490663677
3678+495211972+501569959+506335750+507131457+506295764+505957028+505194073
3668+502761704+499701400+497588510+496754164+496455476+496406316+497751303
3658+501726208+507542963+512746655+516586385+520987230+527398010+533251401
3648+533508224+528172300+522460347+520375890+522137111+525598306+528829545
3638+531209215+532793678+534020305+535632699+538245082+542230633+547090297
3628+550487991+550639418+548931333+548099742+549905583+554305897+559379298
3618+562865419+564808157+566742316+568654932+569168641+568363540+567825908
3608+568119492+568650110+569250867+570102686+570925260+571493702+572395934
3598+574388334+577429194+580656612+583022567+584137284+584766160+586228317
3588+588732735+590540768+590219317+588843643+588342397+588959248+589249012
3578+588495326+588224788+590218127+593636425+595743490+595924350+596963353
3568+601005141+605728973+606900240+603863075+599369701+596126877+595270487
3558+596712292+600011227+604355429+607845306+608631244+607576960+607435053
3548+609392884+612105779+613978879+615348415+617060946+617994490+616351034
3538+613133949+611315771+611614427+612230089+612336676+612862096+614132372
3528+615219659+615445546+614614080+612828529+611204737+611239118+613114160
3518+615527146+616992372+616978720+616075486+615235002+615081322+615724663
3508+616449041+616111558+614836898+614084965+614481316+615370772+616490499
3498+618221629+620451063+622777815+625554524+628930676+631351615+631038994
3488+628830665+627560514+628662079+630962028+632573984+632789663+631861817
3478+630243913+628470198+626696232+624620605+622083810+619451011+617297917
3468+616427373+618007328+622384032+627682130+630602250+629664698+626788791
3458+624969611+625511689+627224470+627620257+625574188+622486861+619966975
3448+618322893+617465688+617457109+617884646+617954786+616939016+614018207
3438+609410043+605615748+605628147+609879602+615864755+620589776+622506087
3428+621443662+618625244+616480542+616664595+618443257+620023400+620995708
3418+622021373+623044783+623392287+622889099+622203360+622609042+624716170
3408+626987562+626992634+624492663+621235811+618368421+616367817+616374143
3398+619474057+624726503+629063753+629716551+626699426+622597080+620121783
3388+620474296+623044533+625816984+626839455+625837713+624449640+624498800
3378+626082825+627639170+628095891+628499631+630458214+633582176+635607516
3368+635201459+633917155+634557178+637753033+641229572+642651274+642267824
3358+641828764+642087340+642688786+643164858+643114508+642531411+642323685
3348+643564904+645771855+646830210+645432242+642366395+639222455+637023207
3338+636023343+636106133+636948433+638176876+639192333+639164152+637925752
3328+636418880+635843360+636720480+638703799+640781431+641764573+641103383
3318+639173045+636881613+635549526+636482945+639776933+644139108+648097355
3308+650350899+649580304+645658004+640682734+637470283+637080383+638510790
3298+640206350+641164505+641524909+642438038+644735294+647562291+648680828
3288+646797958+643549247+642227557+644371195+648076501+650077731+649180321
3278+646808792+645003327+644752891+645482342+646002940+646270346+647073882
3268+647979057+647578323+646051536+645343190+646407244+648113136+649001277
3258+648717776+647622535+646261454+645192954+644584807+644419228+645333295
3248+648274019+652788622+656650301+657950324+656783629+654334634+651599507
3238+649672424+649844454+652022661+653827688+652880993+650028195+648337582
3228+648992823+650230597+650138288+649214639+649185268+650211998+650649618
3218+649368257+647238835+645722632+644789276+643415106+641816614+641334719
3208+641954075+642142575+641459404+640794269+640036261+638178943+635790818
3198+634861032+635820064+637051450+637497462+637795931+638721647+639947397
3188+640696387+640971434+641464727+642188917+642104938+640711917+638883531
3178+637343030+635810984+634263907+633162467+631990824+629605643+626164613
3168+623099893+621420365+621170869+621887043+622463753+621488062+618901794
3158+616311643+614838213+613944874+612962608+612239545+612239357+612768034
3148+613376619+613525477+612372873+609815913+607164390+605902130+606497376
3138+608375047+610328557+611059260+610124401+608254495+606366491+604949861
3128+604211768+604093095+604339209+604594592+604265062+602788751+600697216
3118+599680695+600577979+602031182+602229451+601560934+601708227+602534244
3108+602237529+600121822+597328955+595008841+593535975+593344657+594681816
3098+596413259+596688306+595185568+593363695+592330014+591947002+591856823
3088+591764327+591038007+589462123+588032342+587904150+588744008+589029325
3078+588076743+586831955+586307162+586104446+585133891+583429815+582346285
3068+582875086+584474580+585622488+585317757+584077102+583225095+583167230
3058+583155456+582800187+582441286+581824935+580026233+577208254+575096805
3048+575087349+576703876+578218388+578360734+577148010+575345801+573680113
3038+572574790+572048368+571754095+571559458+571743261+572073418+571408095
3028+569255940+566893993+565911727+566455496+567366620+567338439+565922122
3018+563908180+562423477+561549364+560583881+559532040+559165498+559683466
3008+560391248+560666546+560397385+559432091+557534630+555182953+553580329
2998+553471675+554464149+555650320+556307126+555906642+554276651+551986722
2988+549973406+548715153+548089722+547859389+547939486+548231128+548554960
2978+548822930+548900209+548354624+546989597+545582862+545110109+545220328
2968+544652512+543080009+541416764+540487667+540325657+540482531+540418153
2958+539752580+538363881+536452580+534686818+533794168+533663971+533470462
2948+532941973+532740197+533358176+534278882+534532699+533664973+531913302
2938+529871680+528256342+527520003+527485935+527657589+527831936+528106419
2928+528463880+528665469+528402508+527469027+525978062+524405873+523326727
2918+523010066+523222112+523503328+523543689+523112488+521937370+520088506
2908+518179428+516816749+516166518+516055955+516023578+515448998+514251961
2898+513244301+513188596+513825206+514293857+514199513+513856925+513726134
2888+513818787+513588016+512592943+511214358+510305081+510072149+509725334
2878+508434674+506394617+504717093+504278252+504809057+505291266+505182800
2868+504787326+504417341+503923577+503175527+502332225+501572934+500995160
2858+500634850+500298431+499631260+498638411+497843142+497669202+497885789
2848+497829646+497060993+495693273+494150454+492786492+491714485+490788926
2838+489797110+488781559+488041900+487760434+487864610+488226956+488646008
2828+488703622+488044812+486803750+485509865+484569745+483949418+483376904
2818+482747152+482255612+482159108+482499002+483015373+483207662+482677983
2808+481586688+480470280+479551891+478621635+477589238+476665151+475931441
2798+475190499+474375002+473782574+473649967+473640730+473104069+471900143
2788+470608575+469761077+469302978+469014968+468878603+468722605+468175674
2778+467313804+466667675+466364510+465957294+465219263+464465421+464014743
2768+463760393+463325810+462553963+461733769+461251874+461154837+461217994
2758+461260923+461173468+460809306+460078008+459038190+457840183+456702890
2748+455927253+455755099+456058201+456154800+455240325+453302502+451319152
2738+450195824+449828750+449557774+449179616+449009715+449147615+449197025
2728+448726934+447764364+446767037+446128861+445728440+445105420+444155531
2718+443340504+443020837+442930062+442557697+441773763+440868400+440207774
2708+440011602+440293037+440814887+441118898+440833925+440082713+439393028
2698+439098756+439069447+439053071+438859781+438227680+437044295+435680583
2688+434657048+434115001+433926720+433980609+434035123+433694884+432865140
2678+431939988+431343020+431137674+431155897+431219054+431150324+430834289
2668+430361881+429927862+429565641+429155795+428641491+428049094+427363606
2658+426552148+425704964+425094625+425028713+425499743+425984645+425843489
2648+425016814+424077164+423511101+423250457+423012014+422741069+422471659
2638+422063033+421418408+420766549+420437770+420508191+420815741+421124887
2628+421182376+420865089+420332874+419802663+419259928+418651593+418174081
2618+418010975+417958621+417700295+417254690+416765154+416127949+415246227
2608+414365507+413817573+413688316+413863602+414098946+414066256+413662953
2598+413211806+413080577+413186287+413077164+412484673+411686053+411224135
2588+411277647+411482336+411436714+411162105+410958168+411022546+411305453
2578+411568538+411530807+411080224+410401436+409840727+409620696+409709153
2568+409921200+410043881+409897872+409448040+408884983+408472882+408278621
2558+408149865+408037704+408212395+408885327+409628681+409614089+408641749
2548+407508809+407082336+407370127+407752262+407834675+407724425+407573562
2538+407294664+406846648+406427126+406195322+406081752+406005068+406016748
2528+406128094+406198672+406051097+405620240+405042842+404640573+404710431
2518+405223420+405751282+405828999+405427826+404934345+404691393+404769517
2508+405061442+405299290+405168467+404714721+404379680+404428214+404680528
2498+404929179+405202535+405479429+405545842+405307274+404920693+404508279
2488+404054470+403649728+403496799+403595902+403749270+403888296+404079802
2478+404312609+404525407+404632557+404441678+403919828+403518498+403728635
2468+404348273+404669819+404388510+403951077+403988652+404621254+405313067
2458+405380294+404691863+403775415+403189093+402988381+402909819+402837582
2448+402826622+402799976+402567419+402155757+401877798+402028191+402614169
2438+403352512+403878057+404046580+404063989+404201763+404437670+404556563
2428+404493688+404335592+404110331+403873767+403846526+404127710+404438672
2418+404478219+404336062+404284960+404412683+404675956+405044345+405411137
2408+405590713+405529090+405381422+405351644+405546093+405950741+406462133
2398+406957118+407383528+407782447+408201373+408637585+409157619+410023841
2388+411602262+414269347+418615772+425592584+436174127+450992346+470512227
2378+495250235+525279422+559605749+596732832+635830522+676276018+715704303
2368+750175856+777393295+797305644+809577298+813495152+810279069+802090096
2358+788239990+765026326+729268215+682471714+634282444+597637945+580281742
2348+584019487+606849326+641035498+672512095+692210707+703348544+710727719
2338+714642942+714886364+712892774+709538980+703953497+695098575+683455107
2328+670586015+657409624+643377093+627462256+609928199+592614956+577121018
2318+563333725+550119947+536870348+523873815+511597557+500289444+490159111
2308+481314835+473527567+466472099+460126197+454664398+450160034+446574842
2298+443797224+441559462+439500336+437353723+434999792+432443270+429845291
2288+427527369+425897534+425267218+425588670+426354474+426873819+426757807
2278+426151946+425458755+424916051+424571679+424488513+424647454+424747998
2268+424447432+423774406+423085536+422690845+422659063+422876432+423214073
2258+423658206+424214061+424702282+424865388+424731403+424629199+424750472
2248+424916677+424879823+424646296+424405129+424277844+424199595+423994500
2238+423535336+422823734+421948243+421058567+420338041+419839487+419423253
2228+419018009+418776905+418833142+419134491+419597380+420156461+420648189
2218+420932128+421135282+421533762+422184901+422874147+423443529+423963031
2208+424511872+425037762+425545083+426202891+427177642+428499020+430053612
2198+431589134+432872217+433971246+435202413+436704933+438255047+439560299
2188+440590973+441561184+442651822+443817452+444864785+445665753+446260999
2178+446782505+447304293+447754720+447986963+447976411+447882818+447822793
2168+447682764+447330752+446912482+446682650+446627165+446543561+446427956
2158+446429522+446430117+446034173+445065653+443810188+442689616+441886581
2148+441284227+440650874+439961190+439554788+439779704+440515448+441354680
2138+442213325+443390447+444997361+446663393+447939086+448834774+449756889
2128+450914378+452106781+453220997+454473894+455881036+457016263+457690729
2118+458379474+459547735+460966306+462146716+463152278+464425341+465978492
2108+467339480+468247317+468914487+469681951+470794945+472314405+473968601
2098+475345871+476366745+477277869+478155834+478731447+478772717+478434356
2088+478111339+478015774+477960946+477498120+476273403+474421032+472566437
2078+471265976+470603627+470461438+470800143+471458265+472082193+472437117
2068+472516838+472397883+472218526+472125967+472051413+471718877+471018953
2058+470198603+469553163+469087362+468668686+468373035+468393388+468694581
2048+469019321+469141188+468972571+468602554+468282981+468205045+468354749
2038+468705008+469348287+470323821+471522956+472836631+474244775+475758441
2028+477390593+479181123+481147753+483156716+484973454+486583062+488286606
2018+490259968+492176216+493522205+494196859+494593116+495125237+495771303
2008+496152561+496077161+495804556+495667064+495736421+495988579+496415835
1998+496856242+497137927+497485994+498328357+499613036+500767426+501483757
1988+502121619+503182510+504735974+506449695+507979331+509258625+510487976
1978+511901756+513555451+515319459+517068406+518888839+521048571+523639724
1968+526271771+528349340+529770917+531084404+532791486+534837618+536945497
1958+539072916+541266841+543411356+545461495+547641581+550142554+552876491
1948+555695535+558638012+561794852+564979373+567659640+569490218+570946113
1938+572983853+576003233+579390406+582189034+584123068+585724691+587522767
1928+589533014+591678155+594111808+596733897+599007731+600757273+602458469
1918+604319921+605813140+606531631+606851956+607480393+608824504+610688523
1908+612391973+613409058+613872167+614238270+614633556+614819676+614803394
1898+615153528+616322227+617827595+618829463+619389765+620095105+620785165
1888+620954940+620885614+620901271+620397080+618942563+617375759+616692839
1878+616718327+616707242+616638481+617227903+618948011+621367072+623098453
1868+622538213+619502802+615633419+612657564+611005654+609981868+608784675
1858+607230772+605627396+604222602+602935104+601621179+600428244+599738998
1848+599941964+601162955+602601691+602384008+599633100+595912701+593110253
1838+591617973+590651426+589510469+588494887+588334631+588738497+588263051
1828+586347680+584108915+582328687+580540193+578331989+576149586+574589233
1818+573811124+573657192+573931488+574541764+575368721+575988579+575901218
1808+575215228+574661690+574904924+576129922+578014295+579795086+580716043
1798+580764326+580733327+581614141+583948909+586934409+588483991+587901144
1788+586957455+587389752+589231978+591614090+594142431+596707094+598865824
1778+600509030+602446821+605683257+610237627+614377109+615906400+614924197
1768+613175970+611948717+612015913+613661122+615942785+617364863+618123872
1758+619648529+622089884+624562489+627109304+630450573+634241863+637110318
1748+638568342+639389287+640292584+641645587+643822791+646761573+649452800
1738+651347819+653767944+658102564+662867853+664890438+664430899+663677213
1728+663460595+664062229+665871013+668581153+671472027+674946374+680293507
1718+687186590+692418370+694015421+693895933+693877334+694236298+695601262
1708+699312204+705446654+711878946+717100392+722246563+728121872+732682630
1698+734804224+736509741+738216259+738539465+738294540+739664953+743265676
1688+748379784+755085870+763531791+770260735+771348712+769392822+768682409
1678+770955429+775914729+781376716+784871166+787033654+790232453+794252823
1668+796077827+795018533+793919097+794996364+797650580+799821334+801268212
1658+803839012+809237497+817816433+826705611+829216792+826100971+824581449
1648+826177122+827534071+826057384+823624170+821953348+820716200+820381847
1638+822176354+824995710+824952312+821133906+817049971+814781898+814113883
1628+814241887+814499900+814252471+812532801+809186145+806214173+805735784
1618+807175710+807061670+803137679+798173182+795657116+796044887+797243771
1608+796919689+794975761+793081055+792306577+792264682+792089709+791586834
1598+791243651+791306025+791286486+790720298+790076956+790366720+791959011
1588+794021049+795267967+795332157+794922029+794587802+794356028+794806925
1578+797038488+800583725+802452567+801425900+799954349+799532322+798728974
1568+795871417+792110500+789609276+789361658+791871212+797529840+803932072
1558+804289407+798218083+792085638+788001203+785177963+783144920+782186013
1548+782836995+785572373+790535180+797450745+805580913+812075767+811636268
1538+805165337+799656569+797660913+797194986+796156859+795489783+797311092
1528+801916000+807947181+813993142+819472727+823782235+826392300+828777982
1518+832916838+837943334+841373280+842959121+844867479+848806061+855390092
1508+864627838+873176339+874703250+870832114+868499851+870758530+876491306
1498+882395986+885752348+886746701+887793720+890904845+896121970+901257495
1488+903847897+904275059+905051979+908017814+912945364+917651535+920427618
1478+922397285+925857417+931437013+937942763+943545154+946933705+948723076
1468+950689675+953739365+957284853+960125126+962244717+964992306+968931702
1458+971435619+967763504+959038215+951162365+946247591+943595191+942434257
1448+942404323+943378009+945232823+947536341+949400737+950350688+951537674
1438+954436501+957734998+957761488+954344130+951219792+950765451+952624335
1428+955704773+959377264+962289806+962421881+959810188+957121591+956859507
1418+958984984+961356575+962473421+962395704+961920259+962019707+963090210
1408+964537025+965322337+964426242+962263754+961338853+963512237+967934469
1398+972216485+974631162+974591207+972501176+969987990+968609186+968634799
1388+969328867+969591514+969244637+970130148+974199741+980417106+985480300
1378+987985907+989781353+992873252+996693098+999005760+999008014+998257083
1368+998943386+1001772512+1005387326+1008189711+1010232712+1012648641
1360+1015875308+1019244007+1021714984+1022086911+1020146301+1017975547
1351+1018210765+1021513834+1026850822+1032728824+1036951346+1037574836
1342+1035637796+1034355810+1035249650+1037134773+1038489280+1038970174
1334+1039357381+1040999271+1044077580+1046579368+1046519812+1045164680
1325+1046049001+1050496596+1055948563+1059398424+1060294581+1059466684
1317+1057605483+1055729377+1055578452+1057845335+1060765643+1062287294
1308+1062874461+1064258714+1066603627+1069001020+1071268529+1073192856
1300+1073741823+1072492589+1069911080+1065830089+1060287191+1055193311
1291+1052092269+1049151108+1043640649+1036164406+1029148642+1023569797
1283+1018910782+1014820397+1011601433+1009170286+1006462213+1002481484
1274+998001701+994812358+992778501+989678649+984729181+979944729+977000498
1264+974661159+970353029+963422872+955494292+948199848+942135163+937482097
1254+934041880+930933073+927497428+923893010+919820912+913880223+905304544
1244+894962727+884111773+873799578+865138103+858319982+851993525+845174151
1234+838829659+834592733+833074026+833747615+835462526+836686710+836113946
1224+833639901+830352175+827486852+825656149+824892004+825084637+826186767
1214+828046778+830374407+833137715+836622520+840652159+844286574+846925760
1204+849312381+852700682+857521581+863386620+869504411+874802760+878598935
1194+881243569+883431733+885366518+887272120+890087782+894793015+900947566
1184+906427777+909153385+909472645+910151871+913534974+919794109+927910312
1174+936816648+945401158+952831559+958996131+963963197+967676018+970605719
1164+973623721+976628884+978531731+979117959+979672938+981517920+984517823
1154+987576218+990653901+994775472+999572199+1002279332+1000044889+993126756
1144+985691595+983276417+988159753+996430200+1000902657+999023483+995523773
1134+995455637+998025936+999247616+998863978+1001161422+1008516486+1016715854
1124+1019151511+1016077147+1014331676+1017806962+1023172257+1024765174
1115+1022150850+1019900187+1021102766+1024998138+1029718838+1033849052
1107+1036152633+1036669348+1037335360+1039361201+1040762926+1039081708
1098+1034861941+1030791784+1028937847+1028622596+1026861844+1021544645
1090+1013749894+1007307269+1004821262+1004644035+1002904889+997930496+991878711
1080+987488042+985753718+987054994+990962577+995156981+996786221+994959776
1070+991198233+987622309+985156531+983468549+981316895+977699889+973827125
1060+971791640+972031492+973189733+973538739+972410809+969324170+964030894
1050+958847711+957603800+961697315+967843851+971332414+971553917+971595374
1040+972792630+972981381+970321278+966250808+963739001+964392425+967784671
1030+972444250+976804484+979250974+978633371+975610296+972928839+972960840
1020+975413280+978734259+982419149+986102286+987598449+984669625+978571686
1010+972761694+968477111+963733803+956230444+945811161+934220485+923710459
1000+915898612+910983525+907610630+904057063+899892781+895859197+892235741
990+888478707+884076014+878940113+873266267+867557665+862580454+858849723
980+856303471+854735416+854291408+854877949+855303044+853901069+850183989
970+845259884+840389887+835698745+830765873+825576991+820681005+817292015
960+816679798+818653661+821385218+823572317+826021187+830226049+836370018
950+843537960+850769028+857083773+861565999+864436333+867579082+872797210
940+879850173+887233293+894298782+901432093+908577740+914920041+919910653
930+923702569+927194075+931837559+938288763+944810107+947888041+945636501
920+939790062+933266025+927603326+923518766+921474325+921064134+921138845
910+920997189+920963434+921663952+923150346+924890807+926368996+927438310
900+928124613+928338350+927972059+927316756+927135959+928126805+930376716
890+932994422+934916244+936304129+938421903+942045735+945726179+946916734
880+945735197+945176022+946585826+947701044+946603361+944825889+944392339
870+945007249+946330130+949636455+955101511+960904677+966422149+972136764
860+976396923+976225582+971315756+964638226+959407199+957064415+957154907
850+958594896+961278295+965575403+970165030+972583840+972919946+973578193
840+975120134+976236604+977242793+979706129+983105201+985198928+985328623
830+985332255+987539332+992555557+998885082+1004708726+1010057300+1015648357
820+1021008140+1025612297+1028739390+1028868084+1025356350+1019154391
811+1011924075+1006768823+1007238006+1012617579+1017628419+1020221326
803+1023354557+1027004816+1027790315+1025537773+1021813868+1015330537
794+1006272586+999314060+997412091+997885156+996421433+991744257+984141262
784+973360948+961495038+953438015+951704568+952526265+950054599+944124807
774+939598493+939410557+942249953+945489771+947944403+950326640+954182997
764+959731907+965058625+967948121+968411418+969051440+972231452+977278364
754+981711743+984436599+985007484+983126368+981105349+982801911+989824752
744+997510474+997659583+989978808+983889448+985561962+990560214+991062338
734+987483095+986927240+992747627+1001559463+1007727730+1008027451+1003201917
724+996794738+992729466+993370866+998344820+1004305737+1007531715+1007935330
714+1008487553+1012516065+1020545721+1025946023+1020588806+1007375717+997425868
704+996606301+1001376600+1004613850+1003147183+997870377+991609238+987290149
694+985719713+986446721+988506630+989715722+987114487+981590564+977961973
684+978454327+980495386+979710763+974345030+967701381+963772755+962729556
674+963011867+964445092+965218067+960024927+948947773+942425302+942895111
664+945837713+949078846+949859399+946758545+943189635+941978226+939900656
654+934861823+934626480+946853859+964258346+967654099+953078864+939202268
644+939136825+948615049+956917497+960494549+961061050+957958693+952542171
634+950965974+956283549+964736109+967399906+956976427+936673301+917131689
624+905748176+903275571+907585141+915638469+922173152+923008438+920528193
614+920086816+922551968+924420997+922689116+914712691+902035355+893251324
604+894847310+901753857+901685910+892136544
##END=
