##TITLE=<SNM>
##JCAMP-DX=4.24
##DATA TYPE=INFRARED SPECTRUM
##DATE=29/4/2025
##SAMPLING PROCEDURE=Instrument type and / or accessory
##ORIGIN=Admin
##XUNITS=1/CM
##YUNITS=ABSORBANCE
##RESOLUTION=4
##FIRSTX=4497.3318
##LASTX=599.83466
##DELTAX=-1.4281778
##MAXY=2.1334128
##MINY=0.5374316
##XFACTOR=1
##YFACTOR=1.9868955e-09
##NPOINTS=2730
##FIRSTY=0.55354702
##XYDATA=(X++(Y..Y))
4497+278598957+277344194+276163888+275694645+275148996+273469388+271253131
4487+270488099+272230134+275490773+278491651+280256095+280927890+281218309
4477+281692982+282162914+281955862+280947209+279618589+278108475+276245575
4467+274624405+274475101+275923327+277278016+276865202+275036680+273585694
4457+273746878+275343628+277339034+278472422+277938712+276320872+275245802
4447+275505082+276200216+276207386+275677846+275469774+275866149+276502875
4437+277065234+277535767+277942281+278182213+278197962+278190702+278385575
4427+278615246+278369526+277269677+275496233+273815965+272979296+272977706
4417+273261676+273623402+274330056+275534841+277042225+278356326+278780630
4407+278104665+277097393+276629410+276761045+277239708+277936612+278296208
4397+277694071+276656049+276315742+276997767+278320207+279811302+280619832
4387+279834341+277841365+276042122+275001041+274282118+273897082+274302367
4377+275171075+275598859+275347828+274937743+274792159+274806468+274634125
4367+274235260+273942261+274010718+274371005+274745811+274795339+274283618
4357+273443379+273097282+273976159+275708025+276944489+276869881+276048932
4347+275334779+274789999+274295527+274205711+274620205+274863226+274399683
4337+273543035+272822282+272340410+271999563+271882867+272250924+273352782
4327+275171075+277086173+278038128+277430801+275659457+273667201+272334680
4317+272125978+272808393+273588964+273874493+273770427+273726389+274047467
4307+274740981+275555450+276247165+276777605+277120852+277130692+276728257
4297+275918407+274717012+273483728+272960967+273491497+274527239+275283271
4287+275608968+275911297+276474766+277092053+277222368+276510255+275311559
4277+274477381+274367765+274452691+274152493+273605433+273170569+272754635
4267+272259863+272018702+272229774+272573292+272727966+272862091+273355572
4257+274223170+274996451+275050899+274049747+272463436+271524201+272046631
4247+273480998+274604546+274871596+274624525+274318776+274086795+273960020
4237+274170582+274943263+275933286+276338481+275853519+275143986+275106067
4227+275874099+276640630+276489766+275455734+274498110+274416573+275157995
4217+276080791+276521144+276241315+275589439+275112547+275096318+275584819
4207+276555883+277898813+279245373+279863920+279098378+277217418+275396606
4197+274546588+274563297+274849337+275074388+275241092+275286720+274949833
4187+274220680+273625412+273607353+273891832+273983059+273904582+273933261
4177+274052206+274116524+274186811+274394314+274672073+274786939+274712932
4167+274881376+275810531+277417061+278749431+278672634+277131412+275489453
4157+275143476+276010023+276937079+277296016+277317825+277097093+276435288
4147+275667316+275479673+275862459+276090030+275737364+275149806+274986162
4137+275649557+276964738+278199222+278544029+277770118+276479146+275646227
4127+275803991+276623471+277300725+277260467+276486556+275426575+274653864
4117+274428572+274605026+274989761+275530131+276125549+276555643+276614381
4107+276271434+275822500+275805701+276555913+277763458+278564038+278244160
4097+276883801+275196124+273857724+273178549+273185959+273610623+273972499
4087+274141123+274542118+275410466+276249325+276449597+276109440+275835460
4077+275948856+276202466+276202106+275927257+275745133+275855349+275968445
4067+275777892+275402876+275043999+274689083+274430342+274428182+274475191
4057+274390144+274659594+275810561+277430950+278584977+278900086+278710073
4047+278475962+278350836+278143394+277723530+277357033+277265087+277144731
4037+276621701+275876708+275510062+275928876+276862862+277493498+277282036
4027+276483736+275631108+274996841+274806588+275340838+276492375+277695751
4017+278461592+278675904+278409094+277738949+276837243+276054032+275715464
4007+275777352+275795411+275445205+274964922+274839977+275154605+275523772
3997+275685466+275774802+276005494+276516585+277400832+278452502+279112898
3987+278996622+278202582+277098443+276146338+275670136+275549181+275576900
3977+276080851+277391862+278906146+279650148+279464395+278834688+278119545
3967+277549566+277409621+277750049+278254660+278574658+278549609+278157463
3957+277555866+277098323+277050565+277398282+278064917+279031811+280079162
3947+280808195+281122283+281222179+281062135+280399310+279450745+278907915
3937+279213094+280159049+281149042+281673722+281578506+281036186+280430359
3927+280229546+280748017+281749440+282474663+282576419+282663505+283358520
3917+284222367+284234427+283150717+281686472+280557644+279955956+279912188
3907+280880462+283500354+287433028+290825301+291888492+290535062+287701068
3897+284462718+281991951+281230009+282320138+284183339+285076256+284695990
3887+284571824+285651154+287053242+287900680+288660672+289225791+288413721
3878+286532431+285472091+286248672+288478009+291555654+294493355+295317124
3868+293604398+291692899+291324663+291341222+289827299+287199576+285124374
3858+284612713+286540291+291825134+298064272+299201499+294738295+289002299
3848+284983589+283863221+285742021+289640705+293877358+297203814+299024206
3838+298842623+296954973+294853161+293664665+293139625+292397483+291112211
3828+289551879+288197129+288048245+290440086+295175049+299074064+299846355
3818+299307755+298948819+297515292+294243314+290757534+289056147+290214764
3808+293700274+296962173+298050112+298013303+298536004+299328544+299424541
3798+299112762+298831703+298376770+297694115+297180084+297166405+297824490
3788+299334784+301523143+303534208+304801120+306124701+308600719+311966083
3778+315103876+317927941+321487339+326704894+333581568+340723942+346171049
3768+349893700+353685379+358182991+362429633+366029079+369449371+372430330
3758+374165435+375238645+377653495+383149261+391498729+399433014+403728014
3748+405772887+409125352+415347001+421931665+425917317+428656904+432962044
3738+440097638+449215798+457614195+462448095+462946677+460817566+458972605
3728+459708447+463011234+465975184+465485692+461767840+457384584+454015319
3718+451959436+451675077+454199123+459556443+464653973+465269280+462412786
3708+460259047+459930979+460518717+461648535+463058692+463885762+463897941
3698+464087114+465203702+466908119+468654054+470669139+473490474+476216172
3688+476619117+474671290+472788200+472466312+473389917+474842583+477029832
3678+480854719+485905601+488915119+487994753+485765446+483965393+481246535
3668+476845579+472372775+469416865+468342095+468730401+469966295+471764518
3658+474083012+476273800+477578751+478691110+480924197+484280051+486446181
3648+484771223+480167415+475704211+473032481+471944751+471975620+473167716
3638+475087284+476599018+477351780+478508387+481601421+487082067+492986207
3628+495705216+494635396+492212206+490554978+491355378+495406937+500235857
3618+501481170+498790001+495921028+495789483+498455963+502133166+504786687
3608+505418644+504782067+504489398+505365906+506984765+508740240+510998316
3598+514269994+517715185+519824347+520306429+520186733+520461703+521589961
3588+523522189+525455317+526354563+525814044+524006011+521554802+519616095
3578+519434601+521205795+523458411+524582709+525265964+527940664+533175949
3568+537496868+536541704+531233762+526470599+524615288+524239282+523473831
3558+522784216+523765180+526370103+528830851+530063145+530818757+531796241
3548+531995913+530068905+526444920+523022528+521161997+520935745+521942448
3538+523797219+525780805+527014179+527593817+528582160+530129683+530907914
3528+530295577+529624082+530191240+531517731+532193066+531424674+529511406
3518+527197052+524781722+522497247+521418247+522745638+526165750+529451468
3508+530263058+528340069+525436658+523678663+523911694+525213466+526204509
3498+526546076+526732789+526996480+527101116+526728709+525834923+524735164
3488+523914154+523564967+523140063+522107202+520990343+520846109+521727596
3478+522322174+521522824+519914703+519069215+519619694+520668575+521086340
3468+520820670+520425944+519732550+518052733+515597984+513453664+512100115
3458+511200148+510777884+511238067+512182612+512377124+511143330+509132385
3448+507655900+507522645+508405752+509262520+509372016+508745640+507654880
3438+506266592+504708330+503038472+501165282+499202815+497815997+497611045
3428+498358917+499465876+500816935+502481903+503998917+504802527+505057397
3418+505292288+505582438+505459382+504262127+502052919+500223557+500213508
3408+501812808+503489356+504121372+503775545+503131799+502759033+502726844
3398+502608348+502162925+502016590+502965005+504626253+505624556+505243510
3388+504188330+503630770+503945639+504275086+503371820+501460441+500521116
3378+501935264+504751109+507004805+507990328+508234939+508105284+507610482
3368+506987105+506526262+506284831+506584760+508114223+510975397+514094740
3358+515962171+516057567+515544286+516022888+517411177+517946477+516699063
3348+514802474+513713815+513727134+514472546+515569425+516456312+516533529
3338+515822436+514956008+514331072+513697555+512877326+512363445+512552978
3328+512830707+512357925+511478118+511254446+511871163+512559518+512858666
3318+513036920+513295750+513438245+513461644+513643917+513886368+513610078
3308+512481460+510877180+509647466+509400755+509864118+510220745+510177126
3298+510173346+510674328+511776007+513328269+514921630+515957131+516119785
3288+515654742+515158021+515167200+515778638+516701883+517672347+518500556
3278+518946460+519165151+520001940+522054344+524545091+525775165+524714945
3268+521819212+518493116+516146244+515502168+516450793+518519395+521062581
3258+522985689+523314297+522044924+519836226+517227104+514680259+512867786
3248+512160412+512393684+513375367+514730837+515574045+515244957+513989984
3238+512670273+512252029+513142216+514563143+515344254+515386312+515285996
3228+515010246+514261474+513430205+513060259+512985922+512666614+511837084
3218+510665508+509675005+509268640+509247341+508894914+507488027+505028478
3208+502589539+501546568+502426465+504595114+506782873+507978148+508196180
3198+508002267+507155939+504932962+502058589+500472848+500774187+501496410
3188+501087375+499435367+497491229+496271175+495948927+495644348+494568288
3178+493188999+492598711+492948288+493218128+492473946+490861476+489352892
3168+488839342+489318964+489683750+488808173+487077477+485977058+486035976
3158+486302456+486023047+485598142+485447098+485154729+484270332+483066297
3148+482049275+481184887+479946683+477943298+475449851+473359169+472577428
3138+473281531+474605082+475282577+474741787+473470374+472342986+471773308
3128+471463119+470843432+469742203+468573207+467913771+467916441+468151513
3118+468153942+468020327+468089925+468181421+467743828+466681687+465489382
3108+464706321+464621454+465238471+466131298+466529773+465874897+464288257
3098+462449805+461097575+460578235+460638413+460635683+460182820+459586412
3088+459396129+459674459+460110102+460552166+460954631+461177193+461219101
3078+461250090+461277779+461116355+460581595+459554643+458236642+457302177
3068+457277368+457817018+457939383+456960850+455120628+453318655+452222466
3058+451778543+451733604+452103581+452706498+452859732+452094431+450769140
3048+449647752+449196029+449362883+449787067+450088826+450009539+449454949
3038+448614081+447933376+447723054+447855139+447972975+447831410+447316419
3028+446419273+445376511+444551362+444056231+443766231+443654636+443686824
3018+443524290+442969731+442507838+442680392+443215932+443386536+442904484
3008+442025756+441071042+440151096+439275009+438590914+438380412+438711330
2998+439208231+439317997+438744899+437620300+436393526+435504359+435075675
2988+434936420+434853444+434669820+434339713+433905779+433430957+433013972
2978+432754062+432586158+432448583+432652966+433445296+434114751+433494344
2968+431641763+429940587+429234503+428988302+428555328+428139514+428056147
2958+428045947+427865924+427767948+428013008+428481681+428785240+428413254
2948+427126152+425528411+424679203+424758850+424792209+424119184+423354212
2938+423338553+423884172+424119034+423610853+422645459+421651326+420789848
2928+420136652+419956719+420388523+420915063+420713681+419719998+418841870
2918+418879969+419577773+419904251+419196397+417923245+417089816+416964600
2908+416903493+416434880+415850232+415607241+415775295+416126851+416278886
2898+415817533+414682135+413367734+412499207+412252646+412312404+412318553
2888+412211367+412084052+411874120+411469405+411031781+410834989+410774301
2878+410462343+409899984+409591745+409813497+410190253+410203482+409804527
2868+409331715+408983638+408604692+408062642+407596999+407491493+407619889
2858+407724195+407895338+408312953+408728227+408633431+407891768+406973413
2848+406481911+406439912+406241020+405481778+404544883+404083050+404227165
2838+404579322+404757005+404699077+404531174+404310232+403917666+403096837
2828+401648791+399811780+398334995+397861162+398289066+398986210+399480832
2818+399698594+399732342+399647146+399418704+398957291+398261767+397534684
2808+397055992+396929787+397000734+397032143+396851790+396357228+395631945
2798+395016698+394775507+394791797+394820386+394762278+394520967+394005436
2788+393397449+392975994+392688275+392314579+391883075+391530108+391174681
2778+390638271+389945537+389380928+389268012+389610720+389996025+390057583
2768+389879090+389614950+389039931+388002900+387005917+386703708+387033846
2758+387331195+387157081+386643500+386136609+385791472+385491303+385080439
2748+384633665+384354646+384204831+383911412+383390242+382822783+382276203
2738+381648686+381030409+380676663+380585286+380538758+380519829+380636914
2728+380746440+380584566+380173521+379766797+379517416+379413140+379391211
2718+379380381+379288914+378983946+378372839+377590168+376951102+376633953
2708+376574916+376672922+376887924+377129415+377197872+376897374+376251048
2698+375553004+375051572+374696536+374379147+374155896+374020481+373813128
2688+373561198+373538309+373828308+374139786+374155086+373856627+373433133
2678+372996019+372511087+371994266+371609591+371463346+371410908+371186456
2668+370680675+370031379+369448621+369023627+368744637+368631272+368761737
2658+369125803+369477060+369466080+369041116+368589333+368489467+368621912
2648+368525436+367998175+367339910+366950044+366882217+366909186+366838448
2638+366582828+366143194+365774898+365890094+366481192+366923315+366684554
2628+366000580+365530017+365493239+365446260+364932259+364121060+363590259
2618+363608439+363899188+364024763+363788342+363328819+362959533+362879406
2608+363003031+363070589+362887506+362518489+362302137+362521789+363005761
2598+363277011+363148766+362904785+362843257+362893175+362752301+362269949
2588+361617143+361083163+360790614+360683788+360663989+360614130+360457356
2578+360322631+360455556+360863691+361280076+361520517+361616393+361601754
2568+361458179+361258236+361113822+360996526+360805613+360575822+360444247
2558+360449557+360491525+360498005+360529504+360660299+360853461+361040114
2548+361220738+361383812+361442939+361367462+361260606+361211648+361158250
2538+360946428+360483155+359855849+359343318+359232532+359561320+360099830
2528+360590971+360918529+361083673+361164850+361278396+361457729+361595124
2518+361580154+361454519+361366832+361399861+361475698+361438980+361246597
2508+361049204+361030185+361175469+361256796+361052204+360570872+360081950
2498+359915486+360179357+360649529+360987556+361086343+361115112+361199679
2488+361197159+360910399+360433957+360097790+360076340+360243074+360457836
2478+360767515+361159810+361376552+361247257+361001116+360964607+361116222
2468+361193019+361100082+360975137+360917599+360871911+360808643+360850972
2458+361107342+361463279+361652092+361531376+361243957+361067683+361105482
2448+361223258+361320994+361455179+361622093+361686170+361612043+361512267
2438+361409101+361211798+360993616+361028595+361408771+361824885+361942601
2428+361850174+361877743+362128864+362474751+362842177+363209424+363440385
2418+363384197+363120987+362966343+363164065+363600789+363932037+363979765
2408+363854910+363727834+363674286+363697025+363738424+363774303+363972265
2398+364576503+365559746+366601667+367518193+368555854+370219442+373023378
2388+377494591+384209961+393708147+406452842+422818552+442882854+466193306
2378+491901387+519221129+547744486+577331544+607541018+636862225+662933653
2368+684345175+701438718+714299119+721582308+722529312+717923044+708163568
2358+692308319+669899154+641990774+610023605+577723809+551902631+537949611
2348+537686521+550391768+572258433+595338552+611701683+619609988+622633455
2338+624418509+625793177+626314318+626944655+628911981+630529341+628316503
2328+621856364+614019816+606453198+598306522+588759258+578324147+567787099
2318+557440725+547444977+538112865+529600622+521392388+512341426+501768110
2308+490366885+479391494+469341418+460057784+451600349+444264483+437939489
2298+432110286+426510604+421346777+416853754+412958190+409407942+406001059
2288+402692392+399664005+397280534+395809989+395138284+394809436+394373942
2278+393693148+392891247+392074588+391220670+390315873+389453046+388770031
2268+388354667+388174013+388073997+387919053+387715990+387522078+387293366
2258+386908540+386301663+385563301+384962183+384762750+384896605+384965003
2248+384755011+384555908+384722252+385153096+385488393+385606049+385635988
2238+385682306+385769363+385865899+385808421+385406616+384712322+384007979
2228+383507477+383184689+382875041+382471856+382019593+381610978+381227772
2218+380784929+380323786+380036787+380064925+380327716+380592006+380706512
2208+380722981+380746320+380743380+380625575+380474110+380513139+380843366
2198+381344348+381865488+382362930+382832112+383289805+383845805+384584557
2188+385369868+385954426+386256305+386405669+386593282+386937609+387411352
2178+387884974+388300189+388715373+389125248+389370789+389321410+389075120
2168+388905446+388989263+389221814+389373699+389400818+389464325+389677017
2158+389979076+390232537+390353342+390412980+390604823+390997358+391421092
2148+391768959+392233972+393009413+393933109+394686321+395212351+395719062
2138+396387947+397257315+398302686+399529280+401007865+402819077+404946988
2128+407282161+409748669+412369941+415257484+418612019+422565991+426856402
2118+430877602+434315774+437520614+440972526+444582021+447777772+450147684
2108+451727695+452735057+453301826+453534167+453670872+454008240+454639506
2098+455353900+455830072+455921058+455821912+455957717+456551425+457305687
2088+457679713+457391964+456432899+454761572+452276464+448964858+444928178
2078+440405367+435796128+431496389+427733239+424618095+422197245+420377873
2068+418974885+417889076+417112975+416549746+415993686+415379339+414932656
2058+414921946+415300502+415736236+415989907+416153520+416498838+417174472
2048+418121657+419244695+420506208+421787731+422855961+423647781+424454211
2038+425649937+427338574+429378318+431667502+434282085+437329761+440770423
2028+444462865+448330921+452393880+456700159+461311857+466219045+471128722
2018+475451981+478696780+480901877+482563275+484074559+485286484+485692639
2008+485087231+483914965+482844635+482064844+481142888+479614145+477572151
1998+475554427+474016834+473131957+472911615+473202364+473641368+473906648
1988+473956596+473913878+473920028+474178198+474902041+476102026+477522023
1978+478889942+480256631+481963388+484144517+486503869+488833702+491330899
1968+493981840+496188828+497595625+498724813+500247106+502196464+504286306
1958+506537782+509208582+512265888+515216699+517622369+519685152+521995546
1948+524756883+527699173+530646203+533546855+536034903+537703440+538799420
1938+540042993+541957222+544638462+547797764+550898689+553574709+555934301
1928+558307693+560900196+563725911+566580424+569212586+571754091+574503729
1918+577084953+578597016+578999181+579378487+580591942+582415634+584104091
1908+585440301+586834469+588436290+589741541+590338939+590626088+591403659
1898+592987360+594942027+596572526+597643427+598559172+599704530+600812268
1888+601356748+601442065+601653677+602162698+602607762+602786015+602916210
1878+603164541+603349634+603262997+603079224+603347594+604522590+606266965
1868+607294367+606611292+604695924+602793575+601642938+600975882+599971580
1858+598280003+596414792+595014265+594202195+593820789+593646496+593391865
1848+593190393+593677814+594698316+594574781+592273747+589160643+586987164
1838+586089477+585666793+584923121+584036774+583865660+584510516+584673710
1828+583359939+581339754+579653877+578068556+575860398+573221757+571025539
1818+569690228+568889198+568318080+568170905+568543131+568859619+568466094
1808+567588687+567050867+567242740+567858437+568419536+568720844+568897718
1798+569333422+570466899+572469325+574838396+576253024+575744483+574271658
1788+573686379+574762379+576858281+578892445+580440928+581694581+582858298
1778+584165649+586137115+589327017+593553019+597263461+598772704+598444457
1768+597700544+597261121+597554690+598999316+601097798+602554904+603195440
1758+604018009+605193665+606244646+607811068+611206581+616117878+619954795
1748+620898740+620174027+619906257+620896280+622747691+624896991+627035671
1738+629332926+632635922+637316828+641195443+641353838+639064023+637208712
1728+636764129+637582978+639309714+641359597+643603874+647151961+653017343
1718+659505201+662306197+660230814+656685726+654221678+653338091+654239017
1708+657257865+661763697+665797767+668463287+671335200+675681858+679823144
1698+681823049+682385948+681864808+680170351+679021274+680081734+682871630
1688+685972375+689482424+694319984+698887973+700126747+698708040+697310152
1678+697575522+699904095+703353607+706464791+709303405+712662740+715439916
1668+715598551+714218482+714519611+717646034+721312258+722666767+722430736
1658+723455498+727381871+734267215+741989647+745170308+743132184+741215916
1648+741569183+742439330+741044982+737585511+734504086+733535122+735232879
1638+739116534+743432173+745347962+743935314+741515845+740124197+740325789
1628+742042325+744935297+748537923+752079111+754553419+755963726+757670963
1618+760587694+763437528+764050045+763136699+763218296+765246940+767958299
1608+769593898+770154877+770950928+772339816+773522132+774268264+775082134
1598+775776968+775607834+774727067+774279784+775066594+776747372+778242156
1588+778756097+778692439+779300216+781210905+783886086+786627443+789436059
1578+792426287+794621305+794524529+793026445+792615700+793976090+795103268
1568+793593484+790101434+787162323+786485069+788911798+795236823+804599894
1558+810596010+808727320+803727646+800174459+799384468+800500366+801677942
1548+802411775+804472878+809562309+816917015+823891875+827881066+827171652
1538+823396653+820459163+819841426+820321108+820101696+819568136+820746552
1528+824541590+829888111+834922763+838936914+842340647+845559527+849020378
1518+852717980+855491677+856486500+857015500+859290495+864346207+871990162
1508+880786014+886540220+885885044+882860017+882287578+885435721+891932999
1498+899909162+905571570+906516775+904959113+904628766+907044516+910626682
1488+912725404+913547313+915561858+919698044+924525044+928134150+930048558
1478+931331310+933436632+937342426+942819502+947832135+950392240+951437221
1468+952963804+954979429+955793299+954850014+953929648+954718379+957348261
1458+960021761+959106855+953794893+947924712+944306127+943152910+943442039
1448+943880863+943792606+943610033+944166032+945694175+947228558+947842455
1438+948552229+951131713+954672361+956416436+955801698+954262516+952954205
1428+952295789+952502901+953390808+954569224+956364837+959097436+961067162
1418+959689674+955788919+952460723+950883502+950525975+950740287+950741787
1408+949624569+947531307+945814711+945338388+945401386+944929144+944237369
1398+944884865+947405011+950192988+951060495+949674307+947886073+947680221
1388+949523232+951863925+952568119+951710811+951424022+953024702+955747281
1378+958496318+961690239+966374324+972106271+977013008+979883421+981049118
1368+981937144+984388593+988986402+993554811+994715888+992214041+989790612
1358+990550963+994339042+999347056+1004028681+1007279180+1008322901+1007507411
1348+1006372074+1006203900+1006715681+1007145265+1007999153+1010010998
1340+1013140962+1017084495+1021435052+1025674734+1029626547+1034060982
1331+1038929440+1041557942+1040332428+1038100031+1038522056+1042122641
1322+1047307048+1052023352+1053998479+1052951998+1051649806+1051910797
1314+1053035755+1054447862+1056397669+1058704703+1060345762+1060405400
1305+1059296161+1059018132+1061630074+1066927037+1072043646+1073741823
1297+1071357272+1066734564+1061433522+1056525945+1053558095+1052797084
1288+1051595088+1047001900+1039750210+1033450325+1030544273+1030547753
1280+1030648549+1027706499+1021557688+1016056733+1015351039+1019557602
1271+1024613854+1026234874+1023436338+1017782389+1010690653+1003021199
1263+996483542+993025931+992280579+991285936+987717809+982044000+976161880
1253+971682447+969074044+967246152+964676088+961080242+956733584+950908881
1243+942640109+932165399+920456476+908658335+898560772+891921179+888452169
1233+885529017+880687138+874242838+868516711+864858708+862570573+860233480
1223+857266291+854163026+851767076+850285911+848861504+846811200+845009528
1213+845056866+847558833+851707558+855747087+858026882+858718177+859754998
1203+862420339+866083982+869310302+871157813+871895966+873347371+877158969
1193+882046087+884932220+885660353+887501624+892450779+898651548+902785874
1183+904030588+905020731+908869828+915823268+923331389+929283647+934242762
1173+939868152+946347131+952817530+959015839+965111012+971191725+977157363
1163+982172456+985027989+985407715+984415712+984123103+986234544+990521565
1153+995245068+999212181+1002737889+1006183381+1007928236+1006080065+1001761846
1143+997938728+995984481+995347725+995440121+996099677+996562559+996560279
1133+997521744+1000627408+1005109781+1009627492+1014072607+1019073900
1124+1024940362+1031281405+1036095746+1036466652+1032070496+1026084279
1115+1022077268+1021083706+1022416736+1025741572+1030979137+1036135465
1107+1036778401+1031794506+1026012762+1023475096+1022921317+1021966153
1098+1022177105+1026955687+1036316658+1044938456+1045869262+1038744167
1090+1030346160+1025760171+1024449220+1023678369+1021707802+1017177611
1081+1009943561+1003426544+1002822846+1010398824+1021483651+1026858970
1073+1022689246+1014517790+1009427220+1008461736+1007934356+1005625282
1064+1002285926+998092022+992792900+988931264+989828110+995239249+1001277544
1054+1004326750+1003685674+1000157745+994370961+988338126+986039972+989666476
1044+996571559+1002008736+1004440686+1005521066+1005805095+1004913408
1035+1004552342+1006964072+1010914325+1011618458+1005817034+996456243+989354488
1025+986387179+985146965+984007967+983886292+984315456+982965326+979407099
1015+975905089+975151637+978611408+985564489+992236961+993669887+988390624
1005+979354301+969603524+959758011+949909678+941324778+935454897+932505347
995+930932805+928283124+923222853+916556861+909952427+904383675+899837464
985+895876652+892506817+890178844+888822475+887648378+886188993+884852663
975+884023434+883152506+881208578+877948600+874252018+870756368+867023907
965+862889461+858999326+855236386+851086641+847632810+846661326+848194629
955+850763133+853362836+855778886+858234595+861425936+865580721+869790764
945+873087281+875508191+877774426+880663859+884780965+890536191+897988753
935+906204367+913406498+918988510+924368090+930020479+933566227+933333016
925+931863011+932943930+937086356+942235784+947139701+951038116+951783708
915+948389275+944004578+942883280+945758193+949790043+951651353+949819321
905+944882885+939087761+935508535+936613094+942319781+949148726+952915926
895+952816090+951482999+951976361+955345235+959528700+960839831+958133572
885+954782456+954861714+958948701+964265463+967634457+967650297+964837302
875+961176598+958904183+959504940+963714204+970195222+975844372+979561353
865+983091801+987244067+989114257+986350880+981979203+980961641+984245618
855+988414263+990384470+989968625+987875663+984664523+982427686+984419912
845+990987807+997489885+999050127+997058681+996781671+999868196+1003339547
835+1004907828+1005949630+1008379419+1010408543+1009094112+1006065185
827+1004857610+1005196598+1004204955+1002874624+1006628084+1017008777
818+1026465025+1025480822+1015379598+1007080227+1008415898+1018129776
810+1030216205+1040262591+1046413202+1050277777+1053681451+1055367988
801+1056220916+1059543832+1062654356+1057931212+1044396077+1027744537
793+1012686778+1001166128+994967519+996106756+1003695754+1011410746+1012176677
783+1006621125+998942071+990497265+982123557+975819232+972708588+971747064
773+970223421+965958420+960845051+959080936+961506406+964942058+967306510
763+970503611+977029027+986528653+997289552+1008022552+1015903019+1017130933
753+1011440745+1003078737+997086760+995782468+998243577+1000944496+999354975
743+993454075+989635758+993114368+1001332262+1006469570+1005488247+1003871067
733+1005313353+1007029229+1005920831+1002686531+1000108367+999859796+1000257222
723+997622060+992025468+988834067+992091526+1000016571+1007841479+1011965245
713+1010249309+1003762411+998476968+997386269+997186656+993897699+988931804
703+989413586+1000093668+1015898939+1024085034+1016910141+1002703151+993835841
693+991426031+989385447+987900802+992433513+1002145231+1010052037+1012069401
683+1008897080+1002843185+996413945+990652660+984924013+979775365+975873410
673+970566668+961869212+952821610+951706851+964135568+981898326+994947660
663+1002025236+1004520903+1000448555+987774147+971636248+958217928+949994095
653+950514876+961534485+976369352+983684279+977839477+964220765+953463706
643+952282290+958422401+963918436+964273263+961321913+955079565+942879860
633+928309043+919051928+916501843+916246793+918048765+926088166+939344372
623+951215829+960911768+967553161+959845128+936130352+913918219+911627025
613+930828889+953977346+962340435+959350626+953891550+943551655+927787063
603+916554701+918108943+931136378
##END=
