##TITLE=<SNM>
##JCAMP-DX=4.24
##DATA TYPE=INFRARED SPECTRUM
##DATE=29/4/2025
##SAMPLING PROCEDURE=Instrument type and / or accessory
##ORIGIN=Admin
##XUNITS=1/CM
##YUNITS=ABSORBANCE
##RESOLUTION=4
##FIRSTX=4497.3318
##LASTX=599.83466
##DELTAX=-1.4281778
##MAXY=2.1757243
##MINY=0.63585603
##XFACTOR=1
##YFACTOR=2.0263011e-09
##NPOINTS=2730
##FIRSTY=0.65413541
##XYDATA=(X++(Y..Y))
4497+322822406+322339257+320310500+318256857+317574771+318253445+319138851
4487+319300136+318956357+319007305+319738162+320330855+319831968+318352310
4477+316980136+316771081+318097278+320115975+320998057+319798111+317704022
4467+316666626+317520970+319815937+322437769+324037972+323809884+322232037
4457+320472432+319256690+318719857+318766392+319009629+318841990+318416671
4447+318960181+321048328+323117414+322882679+320202192+317373010+316570055
4437+317838922+319509722+320045025+319255954+317942788+317014611+317158306
4427+318639523+320831742+322420032+322675711+322104727+321463440+320803356
4417+320014962+319438948+319221832+318952798+318495505+318243738+318324895
4407+318667497+319884916+322574110+325584550+326569969+324665110+321485266
4397+319233716+318614902+318728064+318518802+318019180+317964967+318365400
4387+318173523+316813792+315432676+315747980+317904283+320243138+321149724
4377+320458989+319032455+317803005+317276703+317312061+317402631+317379569
4367+317614687+318371754+319167767+319263455+318723916+318328307+318521773
4357+318989097+319128673+318594812+317639632+317027760+317302971+318189554
4347+318865640+318674645+317656781+316647977+316590058+317501820+318479503
4337+318835048+318699207+318396934+318072834+318037565+318517419+319032220
4327+318902527+318211528+317470699+316892714+316653154+317108064+318225588
4317+319333699+319703746+319185239+318360929+318047095+318422349+318839843
4307+318511919+317307737+315969508+315539925+316558524+318732976+321137399
4297+322571580+322200739+320384921+318505447+317572153+317490172+317840510
4287+318501829+319174709+319013218+317412632+315257036+314308445+314965764
4277+315862995+316071904+316122145+316427213+316610237+316614649+316792201
4267+316962428+316718368+316352528+316429449+316751608+316641858+316183153
4257+316295491+317392277+318821811+319897712+320651455+321295213+321671672
4247+321532272+320961670+320328443+319931687+319807583+319861266+319970898
4237+319903507+319436948+318783747+318634434+319444772+320699108+321281093
4227+320857392+320342533+320404688+320103973+318216558+315442295+313801351
4217+314065326+315031831+315317838+314944849+314885812+315789044+317465786
4207+319163354+320295704+320985320+321552539+321647257+320717286+319319315
4197+318939238+320187455+321944677+322639471+321879051+320600654+319836557
4187+319579672+319155794+318473943+318060479+317939670+317651516+317438283
4177+318068627+319369027+320335267+320651925+320739731+320605684+319926451
4167+318854903+317869749+317360302+317687020+318998069+320830595+322234420
4157+322482922+321692116+320691783+320182630+320073087+319921156+319833675
4147+320283408+321097658+321340660+320452959+319097581+318472649+318869405
4137+319332435+318955387+318045301+317544826+317779473+318324336+318750155
4127+319002304+319265867+319690068+320013844+319648180+318456824+317207665
4117+316785818+317343182+318520037+319841558+320655455+320370507+319069225
4107+317553739+316662184+316610384+316978989+317344565+317754999+318316629
4097+318703914+318678410+318681970+319189299+319795729+319643474+318609902
4087+317497643+317119301+317620335+318618932+319579936+320039201+319836057
4077+319310873+319094669+319508957+320250521+320799915+321030091+321118073
4067+320913488+319946895+318304775+316998962+317103829+318656614+320513584
4057+321322716+320633511+319086609+317822155+317736791+318790307+319893653
4047+319951984+319017630+317989764+317438312+317173190+316712161+315903559
4037+315165671+315050598+315610786+316491074+317484965+318619315+319875650
4027+321079656+321885376+321898377+321136045+320236520+319856442+319991077
4017+320114740+319856148+319317903+318762656+318221853+317639573+317275115
4007+317582654+318584957+319681273+320272054+320378479+320407806+320391422
3997+319815319+318470296+317138480+316856444+317718348+318905439+319726896
3987+320191690+320523321+320629569+320336091+319742134+319063018+318436262
3977+318110868+318355458+318875612+318908793+318168493+317185162+316594676
3967+316612266+317205665+318263446+319445978+320278054+320621774+320788207
3957+320976496+320973319+320739083+320749614+321193259+321432818+320988027
3947+320334973+319977781+319656711+319117996+318777335+319058959+319786374
3937+320520732+320987321+321203878+321345866+321359986+321003440+320440134
3927+320204898+320411865+320625098+320694372+320993498+321631461+322149233
3917+322197592+322057603+322255599+322978455+323827798+323913309+322653532
3907+320713462+319626766+320346828+322297840+324073094+324931409+324953676
3897+324297093+323124386+321955326+321584779+322216241+322801315+322458154
3887+321970563+322506572+323505257+323509346+322794550+322631147+323033109
3878+323204896+323226869+323701959+324720558+326131149+327618190+328131020
3868+327027704+325386202+324758652+325387908+326228279+326235750+325069132
3858+323257432+322412354+324651667+329649624+332690510+331438792+328320015
3848+325538603+323740052+322923566+322946598+323437425+323992937+324604926
3838+325490274+326436894+326784055+326329851+325712331+325686328+326148739
3828+326343529+325982601+325666178+326078436+327060649+327557183+327170045
3818+327029910+327887489+328856318+328669735+327440491+326245958+326085084
3808+327226523+328642350+329015426+328550485+328461121+329200861+330174720
3798+331067157+332001834+332691568+332801671+332759783+333407836+335025305
3788+337070241+338872028+340282530+341613493+343216902+345228098+347551657
3778+349996555+352377504+354689150+357362430+361079077+365786792+370331279
3768+374031689+377414441+380617906+382938112+384311433+385594949+387177296
3758+388526349+389236439+389713853+391041786+394616092+400678125+406926240
3748+411399336+415041886+419688033+424902459+428531242+430486225+432427295
3738+436075375+442286515+449775405+455592406+458452945+459881450+461906765
3728+464954652+467424435+467555246+466148715+465437036+465700305+465617706
3718+464841667+463821949+462634328+461822549+462791172+465558522+467871815
3708+468521927+468619145+469378595+470820365+472334469+473615896+474685767
3698+475617738+476610717+477709209+478759371+479866453+481264689+482555441
3688+483037737+482975994+483177461+483746415+484098019+483851193+483501002
3678+483898376+484691800+484342020+483417403+484760720+489249348+493526243
3668+493717267+490526745+486998768+484818522+483793009+483140103+482893925
3658+483579276+484575432+484176676+482271228+481170000+483048180+486606601
3648+487650528+485325439+482666867+481714893+482222752+483247470+484558930
3638+486366688+488095878+488409859+486923759+484982837+484260716+485435747
3628+487836992+490056009+491252396+491675479+492270260+493489297+494498836
3618+494666211+494782990+495326177+495671279+495789471+496953618+499550359
3608+501781700+502021672+501094084+500899353+502259938+504658124+507166853
3598+509417786+511904101+515193400+518832214+521580856+522756829+522777714
3588+522491031+522210230+521640099+520597144+519548717+519349103+520114318
3578+520766577+520416356+519734858+519898584+520756811+521154449+520928421
3568+521325765+522693880+523172411+521337767+518509761+516903028+516783778
3558+516752656+516391258+516982391+519429113+522697998+524773320+524731020
3548+523459800+522622871+522977857+523593406+523502394+523519455+524976934
3538+527156210+527777583+526298925+524635596+524304143+524804500+524827503
3528+523796314+522050504+520234862+518910459+518638131+519891289+522249706
3518+524193658+524616888+523951098+522987682+521783411+520477717+519757155
3508+519794159+519798689+519018296+517719308+517031162+517553523+518654074
3498+519769745+521337649+523521396+525113716+524840269+522881845+520318932
3488+517988813+516269301+515359186+515451374+516352782+517122762+517019690
3478+516484328+516252711+516007974+514787643+512393516+509672818+507901358
3468+508157626+510513748+513562723+515332123+515026438+513618789+512596306
3458+512292621+511699722+509950088+507520134+505628482+504919628+505094826
3448+505420103+505314913+504568289+503199233+501342645+499469584+498398801
3438+498475576+498943753+498912160+498684955+499009761+499419225+498855741
3428+497570226+496931086+497647883+498773613+498505050+496437670+494581259
3418+494968425+497008331+498635302+499352451+500117254+500871879+500527483
3408+499029822+497593523+497011390+496819778+496177520+495088735+494330109
3398+494355936+494810288+494993664+494332168+492712198+490840608+489867455
3388+490577810+493161579+497090930+500916473+503084924+503210176+502063736
3378+500788457+500497832+501706985+503658056+504927805+504795553+503651702
3368+502623572+502764707+503916030+504855031+505019758+505232432+506309392
3358+507822407+508581268+507990781+506767862+506199319+506754154+507751928
3348+508379125+508483020+508309292+508328059+509211936+510879265+511860566
3338+510939861+509038267+508095912+508616861+509332834+508820239+506944002
3328+505065411+504726427+505899046+507068606+506949708+505513820+503740419
3318+502707818+502571801+502688757+502971381+504119585+505988469+507184032
3308+506926411+505798445+504472100+503313542+503023034+504194771+506331042
3298+508188571+508995203+508815945+508084617+507237156+506631668+506497122
3288+506801160+507326874+507983545+508846655+509929498+511197423+512721440
3278+514360294+515409074+515096446+513377758+510972924+508764585+507457126
3268+507432299+508470607+509994918+511531759+512527356+512186901+510362847
3258+508175040+507026600+507442830+509032207+510962864+512403223+512959293
3248+512852515+512446052+511517522+509561392+506810808+504312904+502977440
3238+502963497+503882496+505192368+506367105+506916233+506476472+505138126
3228+503626111+502747764+502682344+503018740+503401082+503797721+504136646
3218+504022102+503023564+501451012+500190793+499602660+499471114+499812980
3208+500752335+501651037+501549553+500470005+499205845+498101822+497004801
3198+495978318+495208573+494529134+493715325+492822918+491884770+490908264
3188+490316042+490552160+491137940+491118820+490527569+490139372+489731115
3178+488083847+485008193+481937009+480214026+479866512+480196848+480691322
3168+481004274+480698500+479512173+477772364+476343801+476042821+476844864
3158+477732624+477800574+477282773+476852748+476457168+475683011+474669559
3148+473753296+472709987+471192001+469615066+468896239+469300585+469918928
3138+469596034+468321225+467138311+466613097+466161363+465229039+464356635
3128+464389727+465161913+465664124+465338083+464718533+464666586+465228863
3118+465499750+464596871+462571820+460273676+458605024+458044452+458489685
3108+459254106+459536465+459116206+458401380+457911377+457883756+458174498
3098+458438473+458578903+458846260+459181626+458876381+457430669+455353111
3088+453601713+452630914+452322139+452404120+452616500+452842470+453279437
3078+454066566+454791923+454936000+454605487+454174874+453542411+452395501
3068+450893135+449581821+448855788+448749804+449058902+449499340+449782847
3058+449614884+448904118+448103752+447891137+448257771+448395789+447750266
3048+446687866+445867968+445510629+445510953+445745188+445981453+445924446
3038+445609494+445358227+445218504+444904817+444369984+443895513+443548086
3028+443011459+442098844+441068743+440247992+439636149+438991803+438099278
3018+437012876+436206185+436220011+436945014+437519499+437204165+436150531
3008+435134902+434771121+435120018+435818871+436369677+436431479+436032516
2998+435432117+434810803+434281853+434043235+434170133+434319711+434027556
2988+433277079+432461034+431899316+431614045+431367984+430811649+429793461
2978+428558716+427517261+426940952+426889887+427182218+427496376+427642630
2968+427556295+427128653+426471128+426107170+426301577+426431770+425656584
2958+424050616+422574899+422001209+422184350+422509332+422778190+423181358
2948+423554641+423431419+422846051+422252241+421716408+421048176+420516227
2938+420568763+421063708+421470377+421538562+421306768+420908276+420677070
2928+420912336+421328682+421284559+420631682+419785899+419032068+418357247
2918+417837093+417584326+417376770+416826965+415922321+415034738+414455517
2908+414223959+414323236+414692194+415030678+415009235+414824093+415068448
2898+415798688+416241773+415782627+414718521+413690097+412925676+412323983
2888+411788797+411268761+410765432+410400915+410319787+410507664+410790612
2878+410982901+410960604+410628503+409979333+409260477+408875428+408979441
2868+409304276+409507302+409576634+409681942+409774512+409636583+409247152
2858+408816656+408491762+408240965+407975196+407593618+406993631+406222121
2848+405554860+405264882+405305534+405310859+405000319+404559734+404444366
2838+404807118+405291797+405343039+404659394+403546459+402833515+403093489
2828+403945156+404471076+404242841+403532927+402683996+401803826+401010167
2818+400486630+400218419+399989008+399713473+399529479+399536186+399678468
2808+399843636+399889319+399727357+399493298+399376813+399268064+398922932
2798+398430722+398103592+397918128+397477248+396631729+395809978+395476789
2788+395443020+395103212+394333468+393615994+393205384+392824571+392323889
2778+392021616+392196403+392703967+393205325+393409733+393114166+392346245
2768+391445543+390794166+390538693+390592023+390707743+390590876+390137054
2758+389518622+388982437+388708255+388805973+389155517+389282063+388761262
2748+387781961+386973006+386666967+386627168+386503299+386260415+386058007
2738+385969084+385965525+385965084+385807505+385417750+385033466+384977194
2728+385143862+385056674+384545580+384040016+384011395+384363175+384556111
2718+384198625+383355282+382365569+381544406+381077935+381026723+381255458
2708+381448276+381384503+381175712+381082759+381137443+381094584+380750688
2698+380183675+379637135+379262499+379076829+379110950+379392633+379746913
2688+379824482+379435433+378767436+378253018+378232310+378649127+379078005
2678+379155250+378879333+378399007+377756338+376990417+376253559+375683781
2668+375317470+375148713+375146978+375257080+375440632+375629568+375704960
2658+375651071+375535233+375305086+374947188+374755663+374967455+375292643
2648+375270846+374859794+374323638+373902055+373768568+373861109+373744300
2638+373103189+372250787+371730074+371637827+371716866+371895919+372332092
2628+372959936+373381048+373350779+373081334+372854540+372625688+372241080
2618+371768491+371392002+371188152+371142147+371209920+371295078+371277693
2608+371090405+370751068+370364725+370079365+369984559+370036712+370115222
2598+370166905+370247386+370385345+370484387+370444529+370299216+370144932
2588+370033830+370003885+370103486+370330220+370593812+370708121+370449441
2578+369788357+369045381+368621357+368594883+368751550+368917394+369075061
2568+369238347+369376070+369443225+369438401+369419017+369442078+369515970
2558+369597186+369583861+369421546+369282705+369406691+369673284+369644957
2548+369177633+368697631+368696219+369146776+369588332+369699405+369575360
2538+369405544+369159837+368741872+368184507+367569194+367024507+366821452
2528+367141228+367761365+368277195+368583499+368823382+368967842+368853768
2518+368577204+368424802+368440893+368445158+368411477+368449688+368523521
2508+368538287+368583322+368814763+369185605+369444667+369380865+369058912
2498+368786995+368775200+368905599+368961547+368933367+368908864+368835943
2488+368642242+368499959+368716751+369318180+369926257+370162787+370033300
2478+369780268+369534943+369339742+369336683+369603628+369883193+369801065
2468+369331123+368816028+368600766+368794967+369249348+369657664+369817626
2458+369812272+369827921+369871456+369814831+369649252+369509881+369426576
2448+369254760+368975813+368837060+369011053+369367657+369717496+369965380
2438+370000943+369799624+369583802+369593745+369810095+370061921+370224589
2428+370226001+370056068+369861161+369884370+370188526+370517597+370606020
2418+370565044+370720270+371142735+371595616+371856414+371902331+371884182
2408+371995108+372263465+372507202+372572387+372532087+372618716+373022385
2398+373695470+374364584+374893916+375580533+376930351+379266941+382738381
2388+387628883+394497488+403961246+416309958+431312418+448473387+467515594
2378+488470690+511193834+534940020+558613667+581175702+601321314+617449828
2368+629129425+637535785+643384644+646165937+645635105+641916222+634448217
2358+622647604+606949791+588064634+566523669+544565357+526635791+516474033
2348+515482378+523151055+536732894+551051414+561619989+567738470+571118369
2338+573324648+574904966+576037639+577263324+579224043+581712535+583264673
2328+582397445+579269578+575176059+570694550+565500480+559578612+553347529
2318+546941894+540423479+534183983+528325005+522075566+514482604+505562003
2308+496310242+487689444+479978908+472912013+466066116+459236868+452638473
2298+446618152+441179904+436046371+431140396+426709070+422943152+419673649
2288+416547135+413453508+410643858+408391778+406710742+405436698+404388271
2278+403419472+402488530+401679810+401070880+400631736+400297047+400037985
2268+399790541+399384461+398703286+397934659+397425330+397220128+397037987
2258+396738066+396443264+396179290+395796241+395272528+394745285+394259046
2248+393775750+393404909+393368463+393720331+394283402+394843650+395222610
2238+395243877+394884655+394397417+394063022+393937976+393973098+394132707
2228+394262341+394116411+393660029+393134022+392741825+392445287+392091919
2218+391608505+391063789+390636411+390491540+390614290+390815198+390936125
2208+390952598+390892502+390804873+390752249+390716745+390641382+390622792
2198+390827200+391169184+391363856+391345471+391351178+391582178+392040883
2188+392660903+393361933+394005014+394449718+394646213+394646978+394608179
2178+394742667+395142570+395672049+396122488+396418291+396629965+396862288
2168+397147824+397427448+397665419+397926393+398246669+398509379+398592360
2158+398582683+398690637+398951641+399160256+399181347+399193613+399453587
2148+399916381+400307931+400500014+400575670+400585583+400503749+400409738
2138+400477923+400793345+401329119+402009058+402672789+403156497+403513749
2128+403949480+404513140+405085124+405617397+406188087+406884676+407719134
2118+408583420+409339369+409990363+410589557+411046085+411286969+411467609
2108+411772060+412168522+412518625+412771569+412958328+413092462+413194269
2098+413424446+413964190+414624245+414929754+414806885+414740112+415066124
2088+415579572+415925792+415979210+415822514+415632196+415563511+415655081
2078+415874844+416166264+416406382+416516249+416642971+417007047+417560028
2068+418025352+418286503+418505589+418846662+419275158+419663501+419985748
2058+420393123+421067649+421917728+422582253+422910736+423161885+423526020
2048+423863298+424107888+424479023+425130017+425957445+426807524+427614891
2038+428390283+429220506+430190658+431255411+432281806+433223572+434197460
2028+435360931+436680804+437879103+438756008+439499514+440451429+441672437
2018+443029491+444570069+446394300+448243446+449701131+450799417+451992274
2008+453515143+455148350+456650246+458110520+459769759+461662882+463547062
1998+465147764+466425044+467580455+468807052+470061299+471134170+471943920
1988+472652745+473485291+474533512+475734018+477005208+478398532+480024679
1978+481856176+483793009+485849358+488020398+490135754+492141244+494270337
1968+496654463+499023880+501042136+502758942+504513458+506458646+508406775
1958+510275836+512407106+515087504+518036760+520749398+523084753+525222612
1948+527296757+529313424+531344152+533652621+536428444+539381700+542003032
1938+544222255+546365350+548620047+550937929+553223631+555307071+557047468
1928+558685382+560759409+563526113+566670570+569591881+571884937+573640865
1918+575376791+577521886+579952018+582310258+584555954+586769293+588733777
1908+590273031+591700389+593316005+594785250+595558583+595733370+596149599
1898+597551542+599691166+601441329+602021520+601837320+601768370+602175186
1888+602994055+604240860+605824119+607237063+607982393+608058403+607770601
1878+607559104+608043283+609474111+611203625+612421838+613085569+613376959
1868+612924019+611607735+610328573+609970057+610422584+610942297+610883584
1858+610009826+608597236+607313190+606644518+606440139+606187107+605620447
1848+604917299+604352404+603837103+602917104+601488688+600092511+599106974
1838+598254749+597121017+595860975+594952330+594490448+594149934+593547976
1828+592522669+591254567+590053003+588932450+587623872+586091207+584648907
1818+583522588+582652536+581967567+581530335+581352489+581236063+580827128
1808+579901423+578666678+577682259+577403989+577815041+578496186+579014899
1798+579200099+579139267+579167095+579770171+580993914+582036870+582351675
1788+582518343+583245435+584393463+585431888+586418719+587717707+589095529
1778+590023000+590701556+592013428+594443560+597256563+599181101+600121632
1768+600876551+601744367+602627538+603705910+605106323+606376484+607197941
1758+608080405+609538943+611361703+613153872+614878796+616473822+617631380
1748+618331234+619019203+620135403+621802203+623766334+625468315+626506093
1738+627337669+629051298+632179459+635570712+637241865+637287989+637092729
1728+637242395+637780463+638901723+640690067+642678966+644386947+646047157
1718+648237670+650685392+652292478+652891495+653339081+654194131+655331216
1708+656572609+658061445+659730480+661031291+661599481+661739322+662299452
1698+663881123+666164059+668297271+669810463+671137219+672772191+674625838
1688+676592793+679104346+682279219+684750473+685287777+684792126+684353894
1678+684445494+685664707+688400877+691843078+694696381+696569677+697734942
1668+698574519+699513168+700949820+703061382+705459804+707319216+708327579
1658+708883708+709385419+710016969+711093517+712849916+714762688+716576506
1648+718804436+721757575+724673944+726352804+726398516+725265313+724103754
1638+724434737+727408879+732349270+736453437+738431334+739670256+741729635
1628+744942983+748602564+752095536+755452962+759037887+763121875+767552966
1618+771938286+776019744+779848818+783411622+786313814+788217643+789418383
1608+790744728+792678679+794838423+796656477+798018532+798892466+798979242
1598+798246502+797352330+797131890+797867160+799190386+800608272+801926204
1588+803173891+804374573+805589962+806924719+808091044+808529276+808426321
1578+808987098+811207144+813983261+815109462+814526506+813794237+814575336
1568+817696025+822082346+825274397+825491719+823635837+822922629+826413189
1558+832654980+836353213+837113074+837579133+838680037+839556090+839624981
1548+839887073+841637236+844445474+846577097+847457267+848157003+849031231
1538+849215784+848621415+847734420+846772180+845752522+844498304+842879275
1528+841516103+841744014+844303279+848529050+853198877+857525484+861589411
1518+865473668+868139594+868803972+869057651+871451955+876465943+882395459
1508+887724428+892207114+895542007+897211807+897845417+898318183+898646048
1498+898718704+899559810+902239797+905955209+909067015+910951489+912101870
1488+913691895+916708513+920488580+922998957+923377476+923615270+926604826
1478+932861854+939919866+944404199+944697471+941843051+938067690+935709156
1468+936761819+941931180+949032079+953362452+953183311+951744658+952366443
1458+954848287+954903294+949945783+943733702+939714722+938062160+937373896
1448+936171744+934378634+933381037+934005764+935388174+936294406+936592327
1438+936992083+938023155+939005809+939070052+938693358+938856143+940108890
1428+942239395+944279477+944972800+944016973+942736870+942359351+942465071
1418+942349644+942769639+944508624+946497641+946671839+944583692+942488427
1408+942771874+945305372+947898818+948318224+946009991+942574143+940699318
1398+941688266+944215351+946572415+948292868+949367122+949730403+949209043
1388+947643374+945655475+944923147+946701725+950638224+955523314+960323098
1378+964604817+968665567+972681076+975722697+976894610+977338137+979104890
1368+982170808+984101052+982975733+979686611+977300956+978639478+983634935
1358+989127689+992346215+994432832+998746320+1005579774+1010867150+1011022346
1348+1006928180+1002162988+999164726+997753488+996651937+996096337+998511584
1338+1005480467+1015232644+1024594066+1031956293+1036979400+1039012952
1330+1037980703+1036362498+1037942581+1043829209+1050365096+1052614675
1321+1050751969+1049876564+1053273818+1058887117+1062663125+1063904223
1312+1065090021+1067362426+1069121590+1068732012+1066735523+1064357104
1304+1061504978+1057947233+1055399381+1056830268+1062871387+1070006173
1295+1073741823+1073141982+1070861340+1068580816+1065578553+1061931268
1287+1059024429+1057410577+1056264667+1055093931+1054482912+1054764006
1278+1054719413+1052184268+1046716987+1040937666+1038122486+1038904820
1270+1040318764+1038525831+1033058668+1027420777+1025011766+1025388872
1261+1025347573+1023438861+1021398720+1020464837+1018911463+1014339708
1253+1006921238+999232970+993024418+987605379+982209989+977429266+972889044
1243+966831570+958911802+950351717+941963890+933812151+926237485+919957160
1233+915277214+911486145+906847263+900258487+892845960+886737598+882896758
1223+880854381+879369605+876976302+873111047+868729963+865165276+863023828
1213+862481406+863436586+864884770+865315177+864370057+863442469+864189623
1203+866950443+870822875+874756138+878081383+880599114+882642432+884899306
1193+888066589+892415611+897515140+902347340+905569807+906668652+907320970
1183+910090733+915312924+920459988+923090733+923571088+924105450+926079465
1173+929566260+934401520+940720379+948809875+958524517+968450599+976243057
1163+980623965+982340065+982984852+984157530+987085666+991405507+994457777
1153+993962184+991262666+989411608+990149584+993159024+996560161+998610185
1143+999423347+1000989545+1003892502+1004851917+1000671152+993992776+991080407
1133+995086091+1003502923+1010617589+1013559021+1015487735+1020631564
1124+1028836015+1035882084+1037911165+1035376020+1032036421+1031169840
1115+1032379052+1033174918+1033235631+1034195165+1037933050+1045470829
1107+1054358308+1058448238+1054118631+1044144661+1034025496+1026920949
1098+1023390266+1024510173+1031284914+1041629166+1050140950+1051496651
1090+1044987591+1036205184+1032400349+1034361539+1036344967+1035146579
1081+1032813931+1032724273+1036198595+1040209692+1041372310+1040045200
1073+1037358389+1033113969+1025850225+1016924506+1010039516+1006533307
1064+1006061835+1008186340+1011001755+1012649258+1015220525+1020516608
1055+1025240030+1023901155+1015758476+1005724969+998764322+997212361+1000932126
1045+1007119852+1011333680+1011716669+1010702188+1011650426+1015058387
1037+1017912984+1017372680+1014082263+1010397090+1007358470+1004490107
1028+1001327235+998674429+997653946+997344613+995747469+993405879+993620141
1018+997994931+1003836612+1007390239+1006866055+1001134976+990518572+979100419
1008+972445929+973336512+979410635+984765313+984949454+980406820+973986771
998+967494301+961771517+957299715+953241260+947577483+939649067+931006383
988+923636508+918945855+917557679+918483208+919095698+917237698+913194479
978+908720324+904756763+900762845+896296397+892179640+889687265+889319513
968+890063254+889940356+888018466+885146278+882090009+878458784+874048754
958+869646608+866204760+864222039+864034368+865952199+869920349+875113948
948+879502798+880864736+879658230+879519859+883363346+890363939+897619388
938+903497015+908112188+912044157+915898234+919415503+921596250+923454780
928+928162847+937239232+947802688+954731390+955998962+953878399+951351903
918+949791764+948971954+948380467+947972474+947375458+946027816+944122163
908+942552258+941937945+942411299+944506565+948584317+952884038+954335810
898+952216895+949105324+947754800+949053023+952799439+958249718+964008918
888+967953536+967649556+963143456+957878200+955471484+956952848+961007479
878+965391564+967865113+967488771+966001406+966546122+970730005+977972217
868+986004764+991255959+991187362+987621499+985067116+985197839+985365154
858+983233060+980699386+981124381+984357556+987337816+987983427+986845577
848+986724032+989963089+994859475+997028455+996192349+996739242+1000586318
838+1004339852+1004747904+1003138877+1002840251+1005067356+1007489193
830+1006338106+1000759399+994030899+989892845+989539977+992727910+999339219
820+1008359891+1017273962+1023648534+1025974476+1024580652+1022364019
811+1022667939+1026681625+1033320583+1041062623+1047521559+1047842306
803+1039691508+1029159703+1024653132+1027282642+1030799558+1030300083
794+1027478549+1025397579+1024338033+1024504878+1026854117+1029713773
785+1029142525+1022236120+1010034339+997702894+990445856+991034519+996953505
776+1000398882+995570388+984837969+974850998+969023142+966076827+964216592
766+964131463+967186674+972440928+977554576+982349360+988397126+995317180
756+1000616322+1002805776+1002748592+1002144398+1001060025+997869385+992545299
746+988017902+987396294+991928515+1001684222+1016446328+1032965009+1042028746
736+1038219557+1030429864+1029565402+1032592138+1029184412+1021356361
727+1016690594+1014422542+1010615824+1005999945+1003672474+1002623988
718+1000590201+1001235106+1009382374+1023489455+1037423456+1047063737
710+1052707864+1053897191+1046806881+1030790498+1011993410+998469579+993357755
700+993976068+996170229+997155766+996347428+995917726+998405924+1003755778
690+1009784895+1013455831+1012068949+1006044304+999739858+995196929+988029550
680+976254293+967465650+970128223+981149678+988531379+985888926+975851360
670+963046561+951624525+946327854+947127014+950548330+954804046+959152126
660+963313771+966841924+966637310+959413454+948785166+944095218+950885079
650+963451024+967458591+958926980+949466840+949550321+958789198+968785229
640+974817876+979523943+983872259+982373598+974011774+969915902+978757022
630+991013928+986362516+963113334+934996830+913717604+906528988+912622525
620+927702082+952445041+976895904+975759231+949259108+920667073+903485190
610+894889983+889201086+891597802+910254342+938525277+959187366+963397547
600+956040909
##END=
