##TITLE=<SNM>
##JCAMP-DX=4.24
##DATA TYPE=INFRARED SPECTRUM
##DATE=29/4/2025
##SAMPLING PROCEDURE=Instrument type and / or accessory
##ORIGIN=Admin
##XUNITS=1/CM
##YUNITS=ABSORBANCE
##RESOLUTION=4
##FIRSTX=4497.3318
##LASTX=599.83466
##DELTAX=-1.4281778
##MAXY=2.0467746
##MINY=0.43292829
##XFACTOR=1
##YFACTOR=1.9062074e-09
##NPOINTS=2730
##FIRSTY=0.44744295
##XYDATA=(X++(Y..Y))
4497+234729414+232983400+231751507+231813763+232938983+234077993+234441976
4487+234199737+234083418+234622756+235704810+236573986+236425850+235218566
4477+233686977+232550250+232095979+232407946+233380200+234470290+235008080
4467+234931097+234744313+234674428+234514723+234392822+234883943+236114133
4457+237363521+237811023+237403185+236850542+236920881+237732288+238586925
4447+238588816+237543597+236117572+235095226+234720174+234783587+235074808
4437+235463509+235651731+235393483+235087174+235451252+236326291+236681769
4427+236219070+235751525+235525452+234719720+233140025+231801052+231314745
4417+231175897+230874310+230607885+230827391+231675837+232687176+232947050
4407+232035255+230689700+230119702+230823811+232167412+232869441+232081376
4397+230296433+228915013+228708921+229161582+229453851+229504334+229686115
4387+229995175+230066108+229778639+229373178+229183705+229454992+230105381
4377+230573052+230213055+229032130+227751848+227114998+227353172+228089925
4367+228709609+229054018+229434980+229799339+229595529+228740314+228004249
4357+228191517+229410997+231159496+232665632+233247808+232843879+232075200
4347+231515788+231176084+230872262+230690857+230765886+230939755+231017896
4337+231103588+231402063+231782197+231765718+231064533+230116575+229855716
4327+230649113+231753977+232242504+232036537+231509112+230750752+229913016
4317+229554302+229948553+230593752+230837522+230594502+230274779+230332627
4307+230876249+231561049+231938650+231907757+231838090+232295879+233405840
4297+234341166+234006481+232489933+231078573+230636699+230847435+231148599
4287+231420215+231530765+231156025+230428418+230024098+230281721+230796592
4277+231056231+231004122+230924137+231216312+232123558+233248184+233756269
4267+233437093+232927961+232636474+232187909+231242702+230248217+229950883
4257+230521005+231507017+232438590+233160694+233746294+234340884+234852518
4247+234732103+233566796+231914948+230840931+230681241+231004966+231558688
4237+232407556+233360845+234010358+234198940+234047693+233779892+233689917
4227+233984374+234518694+234834351+234575571+233877873+233283939+233208801
4217+233469926+233484606+232891204+231872829+230977622+230633650+230758100
4207+231028121+231586908+232840940+234301126+234641205+233505228+232238173
4197+232190770+233216399+234220015+234336647+233437875+232204137+231711311
4187+232426207+233659992+234390211+234391305+234133901+233963299+233918944
4177+234088718+234658527+235606016+236489701+236735051+236346459+236037149
4167+236347335+237075473+237776862+238203555+238178852+237751362+237350576
4157+237105976+236443908+235110798+233984155+234099881+235434351+237126488
4147+238357256+238688845+238113094+237193091+236709770+236879341+237270356
4137+237428028+237117811+236218617+234952500+233960235+233732020+234213824
4127+235118365+236163928+236845711+236604754+235653873+235057719+235441543
4117+236156611+236290566+235949925+235851507+236136599+236320365+236080050
4107+235559738+235130075+235162813+235837764+236886845+237558403+237169186
4097+235980318+235187172+235531862+236296070+236281233+235452768+234855051
4087+235118553+235845925+236435794+236792288+237046659+237218215+237389239
4077+237721563+238157590+238484520+238654199+238711452+238601433+238345061
4067+238198474+238437179+239071793+239756030+239957432+239403179+238377049
4057+237437190+236935546+236899212+237132132+237310302+237173548+236747355
4047+236324524+236190725+236380354+236684771+236884641+236982512+237162291
4037+237467802+237686042+237703146+237755490+238088267+238582250+238946937
4027+239103750+239225995+239493952+239851775+240022768+239878791+239672871
4017+239650514+239689663+239667165+239808155+240269103+240761835+241006138
4007+241115062+241142860+240832425+240231362+239988935+240547395+241481688
3997+242047714+241959302+241344403+240459467+239772525+239787925+240414424
3987+240956608+241014377+240900106+240951480+241041331+241040846+241163122
3977+241560266+242071447+242507755+242753105+242596840+241913243+241021913
3967+240494801+240538092+240829188+240981436+240949541+240934548+241100757
3957+241459675+241855959+242061238+242046385+242129576+242656688+243553115
3947+244436878+245167143+245868500+246340314+245982568+244618018+242924473
3937+241881693+242168943+243865098+246232921+247909675+248010469+247112479
3927+246559461+246962608+247704896+247885254+247506621+247290476+247617078
3917+248047351+247791510+246609037+245164157+244359941+244449917+245194519
3907+246820726+249926287+254066874+257280797+258072521+256938546+254953467
3897+252494574+250052769+248833274+249641523+251349577+251735010+250945507
3887+251331363+253603613+255734184+256370362+256727388+257251029+256535039
3878+254633713+253574064+254430608+256560663+259155419+261262570+261077600
3868+258553262+256445172+256621246+257837021+257752392+255924658+253526660
3858+252167957+254073222+261259756+270545249+272957036+267781408+261335489
3848+257124344+255582531+256138676+258202552+261274921+264930452+268420978
3838+270048827+268683604+265685216+263002518+261072441+259490010+258444509
3828+258323233+258747378+259579657+261925248+266008347+268797329+267982153
3818+265950969+264895150+263581552+260801623+258066830+257483622+259721992
3808+263389781+266041836+267454119+269753432+273269473+274954325+273216879
3798+270274181+267751015+265431471+263402163+262510504+262880319+263663726
3788+264449821+265763920+267813552+270033537+272237324+274770527+277326619
3778+279002997+279768205+280635099+282738889+286735061+292141859+297427177
3768+301769619+305633087+309271358+312720984+316901642+322773124+329673752
3758+336009356+341838656+349016545+359244570+372322176+384496523+391551619
3748+395338448+400711850+408694314+414760412+416077606+415959880+417913642
3738+422729774+429080511+434787645+438592828+440578328+440962965+440046979
3728+439080119+439533297+441359483+443041396+443354927+442206928+440470827
3718+439586610+440859465+444851729+450860136+456406361+458965486+459245153
3708+459555308+460705559+462426150+464353272+465937251+466813400+467517478
3698+468980510+471641320+475245258+479252093+483516144+488234405+492451741
3688+493625756+490669330+485262126+480318074+478385230+480103321+484486787
3678+490582341+496458200+498155403+495442999+493164261+493695110+494129745
3668+491304804+486534481+482670638+480739420+480263729+481075152+483835617
3658+488333620+492349117+494401814+496535215+501476078+508664941+513655834
3648+512983650+508499811+503741683+500729068+499964736+501071679+503411892
3638+506162882+508120616+508469825+508417575+511170847+518931271+528334554
3628+531424340+527431326+522876788+521755242+524353797+529488057+535088470
3618+538753788+539805480+538982425+536788112+534582855+534974840+538804443
3608+543321584+545335851+544887958+543989546+543844772+544475024+545866294
3598+548487987+552323532+555729570+556492777+554717527+553432008+555745392
3588+561744669+567955948+570917595+570535554+568787195+567354275+566717770
3578+566297893+565191169+563450565+562780539+565253831+571503133+579469024
3568+584321678+582922653+578660728+576685734+577595090+578469676+577570888
3558+576258666+576105824+576406754+575540361+573713268+572929361+574528631
3548+578042983+581799168+584074092+584375147+583511130+582236617+580876304
3538+580258559+581431949+584178404+586972764+588613058+589243435+589573945
3528+589537111+588432887+586203116+583559471+581284173+580086206+580312529
3518+581363282+582191716+582528292+582630603+582243059+581103314+579902533
3508+579614986+580335105+581311126+581784972+581935625+582963052+585574615
3498+588485606+589343120+587887436+586775771+587985307+590193941+591019310
3488+590335151+589348185+587931963+585303578+582001289+579573462+579209056
3478+580808701+582895011+584263268+585313959+586636500+587800759+588258533
3468+588014887+587396955+587081141+587850351+589655431+591301166+591809908
3458+591217053+589684574+587410963+585359236+584710223+585205456+585264242
3448+584248384+583091379+582532294+581972772+580667241+579019192+578721952
3438+580689129+582742295+581834314+578385063+576148787+577312609+579772393
3428+580083892+577875946+576029591+576953644+580050184+582969056+584318926
3418+584463637+584182407+583704871+582764683+580945220+578376058+576307820
3408+576179994+577755812+579027823+578250795+575484703+572026759+569385678
3398+568947854+571097578+574469595+577147510+578582869+579384786+579810353
3388+579679900+579377594+579558953+579964821+579876643+579408675+579265402
3378+579546758+579781211+580196084+581760833+584303354+585932329+585732834
3368+585638778+587590759+590348033+591670137+592049864+593245955+595053161
3358+595979403+595355780+593622055+592041234+592099769+594060379+596628228
3348+598514795+599531028+600046148+600236762+599698816+597843393+595071610
3338+592726894+591622671+591271148+591003050+591036258+591857124+593327691
3328+594530661+594554488+593772019+593517680+594174072+594702889+594233233
3318+592992928+591677454+591220555+592941835+597272927+602180113+604512008
3308+603551934+601604518+600451829+599164183+596483704+593750444+593564833
3298+596262322+599180255+599594628+597587615+595419505+594910326+596179272
3288+598416298+600909290+603210229+604967218+605886268+606318902+607387854
3278+609363598+610832602+610636297+609669156+609616249+610626041+611367485
3268+610582390+607875208+604323958+602094374+602215947+603598837+604747899
3258+605251575+605466454+605837989+606345417+606268559+605348696+604592243
3248+604715567+604859153+604222272+603886509+605140009+607354771+609031337
3238+609636887+609006635+606628837+603361382+601746979+602757896+604412886
3228+604932760+605023564+605774638+606665484+606926703+606963162+607163782
3218+606885678+605594593+603965869+602820308+601730469+599818575+597216643
3208+594886874+593723490+594252307+596342745+598657317+599300640+597819941
3198+595623752+594099153+593228569+592226470+590817126+589545053+589242622
3188+590279680+591849932+592378373+591383215+590242908+590538960+592010528
3178+592586560+590741956+587347676+584427929+582743483+581625002+580539977
3168+579604793+578984359+578768480+578989362+579286227+579065032+578199827
3158+577092415+576106387+575430420+575303844+575848170+576597243+576604498
3148+575373699+573541352+572398043+572646004+573427784+572980830+570792958
3138+568411846+567547954+568175142+568932157+568543675+566584753+563684142
3128+561235990+560343331+560796727+561648236+562557656+563658502+564513201
3118+564319585+563280088+562592802+562614877+562246594+560686473+558687402
3108+557359608+556710157+556012927+554931530+553759204+552843718+552184574
3098+551498163+550629331+549758935+549075089+548628509+548473416+548625570
3088+548984097+549424235+549772068+549607094+548429765+546214940+543618824
3078+541600804+540794634+541063920+541718499+542247191+542555813+542442433
3068+541539142+540105472+539210686+539654014+541007324+541920120+541289180
3058+539220442+536903306+535550997+535528296+536324147+537150454+537581149
3048+537695843+537508480+536592370+534783913+533033866+532808668+534308066
3038+535784887+535346062+533128923+530753001+529103577+527808802+526664680
3028+526162817+526316909+526192397+525066349+523364862+522116240+521972028
3018+522899865+524319026+525377660+525451516+524441099+522591680+520349307
3008+518458457+517751972+518511020+520040404+521015769+520573973+519117914
2998+517714231+516963344+516794962+516860470+516687148+515900489+514682417
2988+513618843+513083116+513062698+513253562+513099376+512179794+510717294
2978+509331653+508321861+507495398+506637197+505877742+505510898+505566400
2968+505782873+506020547+506315786+506463968+506106942+505324411+504552074
2958+503873387+502995080+501956115+501201914+500825313+500381047+499590105
2948+498591789+497534751+496644656+496419208+497002714+497765858+498064443
2938+497842372+497189544+496092544+494876910+494195190+494287964+494571415
2928+494263043+493297059+492257750+491471967+490614079+489334469+487821939
2918+486577288+485935029+485792975+485713521+485414999+484988400+484499639
2908+483816605+482991737+482335063+482029380+482004615+482112398+482189475
2898+481996829+481297848+480140468+478999317+478373036+478144680+477642317
2888+476543003+475412514+475048547+475522643+476130694+476209397+475807594
2878+475509572+475707785+476181349+476469772+476481122+476420711+476290508
2868+475865191+475024720+473802082+472279702+470659483+469248107+468249854
2858+467662096+467338840+467123680+466956361+466844138+466844200+467137251
2848+467826819+468570264+468797525+468335843+467392028+466133306+464766457
2838+463689719+463101836+462667326+461990484+461233875+460820127+460681513
2828+460341497+459767278+459509968+459782975+460064800+459875750+459319573
2818+458604020+457629093+456338258+455078817+454290220+453974344+453759778
2808+453407911+452961738+452530480+452244652+452208662+452197656+451723716
2798+450709671+449726833+449244451+448975415+448318803+447249476+446334522
2788+445862334+445416880+444556959+443577310+443197333+443627153+444210377
2778+444022420+442852220+441488623+440846145+440997673+441256828+440974784
2768+440061238+439004168+438499803+438748171+439133464+438912832+438042561
2758+436961414+435893713+434851371+434025251+433634736+433542869+433434366
2748+433258011+433090442+432659153+431500584+429639815+427746244+426573636
2738+426400783+426913621+427503318+427724763+427486964+426904397+426180276
2728+425579667+425255223+425106790+424932874+424662993+424383951+424175295
2718+423997564+423804824+423648042+423483162+423049559+422175599+421010495
2708+419838607+418928969+418529855+418715654+419265389+419716221+419543336
2698+418602711+417462310+416820488+416624215+416339982+415882740+415561391
2688+415348702+414881828+414058586+413227339+412806305+412848205+412986632
2678+412758746+411949793+410707143+409432568+408520491+408119626+408116875
2668+408262712+408317839+408253269+408289603+408575524+408925827+409008345
2658+408682588+408081572+407427149+406805246+406180247+405602839+405195533
2648+404913708+404568877+404111009+403646356+403189770+402651354+402108061
2638+401879862+402158122+402608735+402573214+401776081+400668480+399937700
2628+399790080+399835451+399631141+399201384+398944261+399148290+399729294
2618+400353010+400694058+400582679+400008117+399122993+398236275+397602021
2608+397188961+396813955+396423222+396064163+395753133+395541726+395498356
2598+395509957+395352550+395031608+394776236+394630118+394355985+393853465
2588+393368800+393142696+393164584+393396880+393847493+394288882+394352326
2578+394046112+393775012+393751529+393710255+393299884+392567008+391903549
2568+391578073+391530450+391610811+391702303+391631636+391343651+391101162
2558+391139123+391251627+391055573+390523786+389999534+389793411+389926678
2548+390170074+390230110+389992624+389658111+389528909+389614460+389609082
2538+389305400+388832492+388465554+388415837+388755915+389322567+389765551
2528+389842910+389579533+389144992+388738561+388527028+388531125+388572337
2518+388411960+388036891+387802532+388102243+388842717+389478316+389606362
2508+389301930+388910101+388712514+388722364+388713828+388540662+388356864
2498+388358959+388446543+388380691+388185981+388129353+388302081+388489694
2488+388550699+388638689+388863636+389033488+388970450+388788122+388638814
2478+388514865+388487255+388775615+389344643+389725152+389499079+388785308
2468+388056685+387651692+387615077+387806754+387993334+387994679+387879954
2458+387927232+388314182+388905943+389393109+389577595+389477003+389198461
2448+388809916+388356176+387934111+387697626+387745436+387974823+388131167
2438+388083701+387944680+387875201+387911817+387972290+387897996+387605102
2428+387329343+387497287+388175287+388876581+389106719+388908288+388680401
2418+388646068+388732401+388886087+389215784+389747071+390258533+390506588
2408+390497708+390438360+390503586+390728846+391042440+391332176+391542270
2398+391745360+392039067+392388308+392718255+393101422+393621170+394125503
2388+394405890+394527556+394680022+394792902+394589156+393978884+393185847
2378+392505034+392141816+392325801+393346881+395246549+397560777+399629890
2368+401172814+402373501+403450239+404414315+405274674+406158296+407057553
2358+407675016+407744621+407433528+407208268+407285690+407475272+407575582
2348+407647406+407906999+408468616+409185858+409847191+410456743+411114418
2338+411755176+412181213+412278271+412097319+411727754+411207912+410630941
2328+410148496+409733467+409157310+408359207+407637807+407276372+407129690
2318+406774040+405979439+404907392+403887313+403127890+402696788+402637252
2308+402902692+403269881+403536290+403713740+403886156+404042562+404164197
2298+404307877+404564655+405038157+405735231+406400817+406704373+406644431
2288+406513259+406523140+406718882+407084069+407462702+407565420+407288097
2278+406886732+406720633+406909934+407223121+407269555+406930039+406547060
2268+406499751+406746680+407002896+407126188+407107333+406963216+406853306
2258+407052988+407661790+408491943+409273879+409863670+410283827+410648546
2248+411045158+411469224+411841853+412033968+411912239+411442958+410740726
2238+409998469+409381194+408924952+408530872+408167155+408004776+408144610
2228+408330002+408219436+407846463+407564294+407648751+408138731+408951061
2218+410006724+411271856+412688016+414076003+415223658+416118162+417018232
2208+418252095+419947328+421989581+424254249+426716847+429229507+431451680
2198+433219769+434780078+436525310+438650143+441064119+443524122+445862240
2188+448019624+449831271+451053940+451738881+452334425+453329958+454862406
2178+456567114+457871832+458600549+459080086+459499649+459540049+458901041
2168+457854915+456920387+456204428+455418614+454357135+452961613+451127390
2158+448888019+446567037+444428882+442433126+440425518+438326043+436145364
2148+433833730+431160819+428292227+426462945+427017402+429695661+432924311
2138+435748845+438386767+441151984+444003909+446876878+449697628+452362535
2128+455004616+457965106+461337687+464729341+467651089+470138515+472739321
2118+475862409+479435109+483107994+486471694+489279905+491705857+494173521
2108+496965379+500255973+504318216+509381370+515395937+522083439+529166552
2098+536450723+543594184+549981944+555070488+558736494+561218729+562777850
2088+563288280+562278801+559602200+555588673+550376430+544011246+537297417
2078+531548164+527465909+524769233+522596027+520103004+517088669+514065047
2068+511533501+509354166+506911205+503805440+500311162+497001056+494106418
2058+491601513+489550348+487887791+486280830+484570588+482930012+481491339
2048+480232523+479164634+478374349+477948813+477865169+477997624+478432978
2038+479597393+481851773+485246398+489708162+495161768+501617725+509294912
2028+518261089+527914428+537300106+545840841+553394173+559898127+565215433
2018+569151288+571696561+573183201+573860168+573578625+572199737+569908679
2008+566923205+563257699+558859756+553823992+548522383+543455476+538785932
1998+534200876+529541339+525296361+522010207+519433416+516872196+514314322
1988+512457648+511639502+511452672+511394668+511374656+511622867+512406993
1978+513698484+515032751+515948612+516542405+517381626+518992683+521445432
1968+524164465+526279262+527520567+528517726+530003115+532123759+534568659
1958+536968345+539127324+541112074+543107893+545178382+547314598+549606469
1948+552139985+554936658+558148455+561831096+565399043+568065889+569959709
1938+571897932+574231578+576696865+579125256+581607303+584073404+586309867
1928+588445645+591026877+594318534+597690489+600208933+601862923+603437865
1918+605244946+606850407+608015792+609027897+610113610+611193631+612107678
1908+612796215+613401639+614207872+615245743+616065608+616274608+616244465
1898+616850766+618427584+620276815+621567713+622416783+623328079+624021181
1888+623890728+623262602+623027649+623455655+624098352+624480643+624530423
1878+624451251+624235872+623556403+622627597+622686195+624653309+627411647
1868+628338514+626352138+623004635+620030856+617751179+615716587+613754538
1858+612040512+610539927+608917081+607041209+605278279+604018400+603220923
1848+602859644+603267451+604133594+603783947+601266191+597988667+595485857
1838+593775897+592223468+590767784+590044539+590510943+591485964+591406041
1828+589721283+587396642+585049113+582489081+579955753+578140542+577145822
1818+576417386+575519786+574612493+574251277+574745010+575651240+576180369
1808+576153228+576111953+576637768+577945175+579777083+581349774+581790788
1798+581116197+580566368+581677033+584801902+588060665+588821370+587283887
1788+585980858+586426124+588245713+590396812+592389004+594225166+595867211
1778+597363293+599249422+602363785+606807944+610806712+612080349+610981504
1768+609469036+608590823+608829341+610600213+613255802+615150186+615934030
1758+616758710+617995200+619321181+621347018+625055112+629963361+633995023
1748+635773963+635968204+636054756+637111763+639362360+641971734+643657993
1738+644650774+647112747+652318112+657639233+658951330+657098409+655076887
1728+653813069+653272120+653491126+654301673+655750040+658754713+664343182
1718+671799580+677671281+679203448+677772842+676028048+675505798+677090246
1708+681236602+687010056+692060015+695468805+698976966+703851695+708542189
1698+711260754+712144970+710911545+708078662+706424485+707795305+711542360
1688+716634344+723937401+733836886+741084911+740120521+734932417+731452210
1678+732059073+736941181+744071260+749956719+753808398+757521433+760982754
1668+761916625+760834790+760690078+762498223+764471904+764797536+764318562
1658+765313407+769623549+778260529+789139475+794133526+791244172+788401909
1648+789053361+790639560+789398881+785921112+782822446+781236434+781905335
1638+785508866+790456639+791683685+786863176+780483546+776548567+775268238
1628+774777757+773870590+773405249+773872216+773508561+771394483+769637057
1618+770060935+771117880+769810535+766599302+763821327+762224246+761520825
1608+761612380+762400977+763368118+764132513+764779400+765222415+765175199
1598+764999594+765527723+766915616+768541401+769982513+771299301+772525160
1588+773658400+774990447+776792025+778697665+779966237+780709056+782393752
1578+786327856+790984017+791954160+788512788+784875924+783478088+782977101
1568+781287965+778929617+777410895+777257429+779259564+785061786+793451555
1558+795899770+789096512+780707055+775107580+772085397+770072880+768167365
1548+767309414+769384656+775052609+783088793+791705386+798475186+798852349
1538+792695103+786793697+785270285+787237963+789447597+790475712+791960163
1528+795413917+800603272+806387483+811993900+816742116+819714895+821476699
1518+823942737+827605866+831319901+834528508+838062873+843060863+850421392
1508+860033956+868030178+869260539+866742282+866259994+869206382+874202621
1498+879451637+883803866+886814042+888847946+891288844+895430572+900321061
1488+902930685+902612682+902352714+904639707+909167541+914129385+918635644
1478+923211444+928214125+933120123+937438269+941256679+944545897+947278532
1468+949721994+951695737+952174524+950821777+949478911+950048439+952621979
1458+955510082+955276880+950212412+943470003+938013988+933959000+930572098
1448+928580719+929426100+932331088+934372435+933831423+932189629+932735580
1438+937588984+944866651+949105000+948358053+946262924+946163114+948242921
1428+950496957+951238589+950246307+948377127+947532559+949806482+954933987
1418+959196100+960071436+959155576+957895384+956051843+953791679+952056953
1408+951275486+951097817+950914082+950475632+950521222+952260513+955902254
1398+959958869+962382631+962472685+961539815+961632620+963331699+965252974
1388+965427953+963493984+961656509+961991898+964174766+966655063+968758259
1378+971193341+975272093+981801875+989479094+994839301+995722955+993410759
1368+991027270+991384922+995455357+1001567514+1006439930+1008344569+1008643123
1358+1009276877+1010696726+1012414442+1014210829+1016268498+1018116603
1350+1018843914+1018730471+1019135025+1020715721+1022935737+1024961887
1341+1026445399+1027910276+1030117159+1032928028+1035641902+1037922266
1332+1039637042+1040358161+1039951668+1039663996+1041598091+1046347557
1324+1051677371+1054892420+1056172061+1057431814+1058940592+1059682411
1315+1060218231+1062601658+1067373137+1072135112+1073741823+1071952002
1307+1069447003+1068326458+1068372235+1068804869+1069747183+1070998181
1298+1071470839+1070457983+1068017398+1064279286+1059353214+1053492082
1290+1047508815+1042863848+1040522697+1039705396+1037901003+1032855109
1281+1025155753+1017686221+1012347527+1008868820+1006642050+1005856580
1273+1006456627+1007077686+1005282612+999571695+991218635+983150682+977402868
1263+973343815+968653633+962326285+955647789+950497020+947526680+945654497
1253+943117542+939097011+933978386+928122570+921225131+913135228+904487991
1243+896070705+888051970+880241609+872721360+865763134+859470119+853989402
1233+849736420+846862513+844613980+841727065+837775826+833945722+832095802
1223+832998655+835570256+837800903+838559920+838485375+838932518+840429539
1213+842632794+845465739+849306162+853793410+857492623+859591066+861228546
1203+864174496+868946226+874755202+880434475+884844926+886861570+886351577
1193+885291318+886357143+890100195+894548107+898034318+901080453+904707373
1183+908866861+913263680+917908584+922463372+926469143+930273169+934820515
1173+940988956+948854037+956967391+963393486+967625643+970554834+973460072
1163+977373788+982307303+987172589+990959042+993426018+994404353+994398537
1153+995575429+999509283+1004249306+1006203225+1004990250+1003140768+1002149425
1143+1001663259+1001083412+1000603062+1001157206+1003441698+1006950735
1134+1010527125+1013739422+1016871546+1020024870+1023188388+1026120517
1125+1027476141+1026422511+1025300527+1027385399+1032342115+1036317619
1117+1036287476+1032647485+1027700400+1023652228+1020879006+1018086586
1108+1015513296+1016381878+1023095395+1032425415+1037113220+1034383399
1100+1029383282+1027892578+1029851500+1030685624+1028125342+1024920987
1091+1024270410+1025379637+1024361340+1019287054+1012955140+1008841742
1083+1007168490+1006282710+1005161665+1003853007+1002590189+1000681859
1074+997421221+994725233+996194800+1001768697+1005890601+1003818173+997227292
1064+990386574+984851325+980574579+978374325+979311761+983817957+990721462
1054+995854158+994527114+987372771+980489465+978046566+978500025+978740544
1044+978078272+977144589+976723337+978291275+982570898+986782731+986295814
1034+980725669+974919132+972571165+973058644+974908001+978129741+982126882
1024+985035560+987144134+989733121+990847100+988292259+984297306+982309492
1014+982087171+981439283+979867968+977563027+973177840+965330833+955136671
1004+945630358+938890701+934029479+928117692+919495533+909631194+901163690
994+895246212+890963587+886900468+883234838+881626375+882555494+884109111
984+884384213+883438772+881642260+878015777+872010434+865506918+861023110
974+858698720+856319671+852469930+848437643+845980798+844625362+842381582
964+838309270+833410276+829517697+827959640+828807272+831041984+833622216
954+836331274+839558080+843653092+848810928+854897508+860915233+865544503
944+868889567+872564453+877537616+883149662+888500050+893718173+899344789
934+905527801+912334061+919812223+927485189+934652415+940778392+944981908
924+946391689+944842074+940734241+935714738+932316267+931779508+933000989
914+933956686+933746873+932246975+929248556+925660347+923809552+925131656
904+928339888+931052823+932870786+935234388+938660938+942018259+944541644
894+946938516+950007915+953712944+957458935+960822698+963366970+963485604
884+960009587+955351549+953752780+956250900+959426988+959945548+958409004
874+956789160+955396014+954215933+954146453+955660234+958287369+961882645
864+966651185+972268421+978146813+983573498+986983226+986781042+983875616
854+981661917+982595037+985726286+988316648+989525059+991187866+994802842
844+999279458+1001602160+999304848+993530706+988234724+985502652+985109855
834+987939485+995339100+1005141090+1012533450+1016013408+1017691474+1017875584
824+1015488281+1012550836+1013360320+1019856957+1029490534+1037155057
815+1039812585+1037879428+1032806643+1027051449+1024117694+1025460122
807+1029011935+1031777652+1032838787+1033360037+1035022531+1037288887
798+1036330814+1029446507+1019400747+1012112386+1010663644+1012727129
790+1013386961+1010430817+1004991876+998138275+990243301+982448137+976827399
780+974833769+975751005+976606892+974216649+968200112+961062592+955403393
770+951991351+949957197+948987242+951764591+961991585+978918338+995123721
760+1003215188+1003288169+999947420+996925487+996686406+999924344+1004541544
750+1008288098+1011290394+1014318581+1016092768+1014000578+1008225248
741+1002918448+1000988168+1000673980+1000302820+1003054279+1011581443
733+1021717946+1026702553+1025527475+1022089856+1019430264+1017992029
724+1015722233+1010304804+1003399986+1000219958+1002979296+1007039038
716+1005953826+1000631642+998275795+1001509479+1004211659+1000491996+993938637
706+991216196+992312164+992400842+990148119+989266904+990565244+988918321
696+981215587+971305845+963700607+958009390+952612160+950031742+954365772
686+965462787+978527666+989204054+997051250+1002664421+1004061819+999135059
676+988726581+975859883+963798854+954147454+948882179+952684266+963510431
666+968010374+962662799+955408083+953544969+958608811+968076413+978272701
656+983430788+979204196+968181476+956549829+948407019+945379583+949807795
646+962809449+978915586+987759878+983875178+973599530+966307730+964352935
636+965633389+968640563+967988986+957723844+941797690+930484921+927304018
626+927755163+926606413+923422571+920992554+920612514+921208371+918087128
616+905974756+890377424+883672037+890311572+902670467+909260409+907661078
606+901780371+894604891+892759912+902018702+921533190
##END=
