##TITLE=<SNM>
##JCAMP-DX=4.24
##DATA TYPE=INFRARED SPECTRUM
##DATE=29/4/2025
##SAMPLING PROCEDURE=Instrument type and / or accessory
##ORIGIN=Admin
##XUNITS=1/CM
##YUNITS=ABSORBANCE
##RESOLUTION=4
##FIRSTX=4497.3318
##LASTX=599.83466
##DELTAX=-1.4281778
##MAXY=2.1159649
##MINY=0.38190442
##XFACTOR=1
##YFACTOR=1.9706459e-09
##NPOINTS=2730
##FIRSTY=0.39921531
##XYDATA=(X++(Y..Y))
4497+202580949+201129462+200676161+201128176+202092457+203154116+203729324
4487+203279441+202116518+201372990+201527261+201630415+200736109+199417071
4477+198965645+199799171+201446654+203309143+204616673+204505442+203020563
4467+201329117+200396973+200104190+199935794+199902961+200325365+201030239
4457+201364354+201124622+200926963+201254122+201700042+201676979+201331325
4447+201136056+201106097+201052576+201081340+201205728+201015736+200465557
4437+200416891+201448893+202620224+202492736+201093393+199806582+199576877
4427+200083894+200486366+200385117+199972664+199527197+199072989+198530644
4417+197927473+197469121+197549138+198328569+199195063+199374302+199116574
4407+199239102+199586661+199221559+198087748+197291047+197678849+198908253
4397+199993987+200414909+200458872+200600425+200903159+201085060+200869768
4387+200282839+199779254+199775882+199981118+199686943+198637232+197106408
4377+195495039+194267813+193796577+194018781+194662542+195659897+196908235
4367+197995648+198537268+198471664+197974793+197373861+196970799+196718833
4357+196388952+196151232+196572305+197938710+199834076+201368967+201745003
4347+200859635+199457238+198392857+197810496+197395653+197197797+197525606
4337+198167250+198579945+198733793+198970197+199223525+199175116+199019045
4327+199281265+199881184+200098594+199690421+199370219+199750566+200391015
4317+200572946+200538359+201009611+201839493+202170810+201787847+201343726
4307+201277684+201365882+201354116+201366623+201627875+202191801+202932350
4297+203495807+203379616+202460372+201374094+200948559+201292761+201791900
4287+201881671+201528395+201099669+201090293+201828846+203094984+204111591
4277+204285718+203910998+203791691+204207834+204589481+204313621+203539906
4267+203031376+203428782+204821258+206520901+207206962+206099162+204068913
4257+202765905+202776688+203327003+203577366+203492904+203467164+203674714
4247+203943996+204136741+204422265+204907233+205286219+205370863+205564500
4237+206164630+206700397+206630302+206170816+205816511+205589589+205334250
4227+205280245+205766711+206598271+207043677+206577416+205554503+204904315
4217+205067433+205681311+206378184+207128563+207645608+207413090+206591118
4207+206055563+206367946+207270585+208098092+208340364+208048533+207815017
4197+208069373+208455058+208312613+207719605+207493303+208085630+208959036
4187+209283775+208909856+208336039+207992487+207961454+208315517+209277862
4177+210859710+212536623+213523180+213378391+212348778+211249721+210865064
4167+211243823+211703354+211672699+211303997+211132592+211421066+211879326
4157+211924167+211423500+211006722+211233630+211858139+212407396+212929522
4147+213520095+213721792+213163628+212445067+212605947+213740514+214795398
4137+214909214+214278156+213444842+212606280+211978065+211958798+212507753
4127+212957635+212765058+212024508+211197274+210783626+211160025+212217117
4117+213206532+213459149+213201813+213227326+213888086+214776660+215252358
4107+215048407+214509192+214376124+215167895+216667504+218103853+218890104
4097+219126086+219267578+219419157+219320493+218939920+218541320+218262449
4087+218221042+218821944+220219987+221632638+221964167+221188063+220393918
4077+220270422+220284940+219733173+218870384+218407117+218510484+218898346
4067+219429365+220112522+220821025+221312345+221452219+221291762+220889608
4057+220202277+219361825+218865771+219108013+219887505+220683813+221192978
4047+221407454+221479864+221614928+221819030+221845359+221635118+221543260
4037+221818667+222112192+221872309+221154218+220669990+220966388+221856278
4027+222780997+223440048+223815056+223817551+223327017+222567957+222088917
4017+222239211+222858926+223477901+223647839+223226207+222587769+222458663
4007+223255273+224595742+225727178+226394516+226921088+227414057+227427501
3997+226684487+225659290+225051386+225023212+225251435+225422145+225484981
3987+225621165+226010933+226545400+226858221+226733501+226402849+226378455
3977+227004220+228105804+229019543+229098576+228320658+227329791+226826160
3967+226973717+227438269+227921120+228467549+229196151+229887353+230079507
3957+229664453+229187591+229345839+230317863+231784746+233297935+234265679
3947+234127862+233156806+232444189+232563435+232874442+232672594+232304013
3937+232533355+233694524+235753023+238231189+239718367+238790125+236115282
3927+234076988+234053804+235103787+235554850+235322740+235630738+237017831
3917+238472796+238354518+236145740+233096707+231013375+230751579+232089325
3907+234856222+239418551+245571591+251505602+254854799+254452343+250559998
3897+244738352+239620082+237581787+239205481+242326304+243679400+243369391
3887+244376652+247465081+249960533+250453199+250737226+250915014+248699597
3878+244936087+243528260+245981200+250444291+254975845+258349118+258636639
3868+256039847+254070847+254483738+254732000+252056129+247657115+244508314
3858+244738004+250095129+261324411+272382228+272023840+262115230+252027743
3848+246129044+244968465+247746235+252937762+258520645+262967115+265710753
3838+266417396+265029305+262353631+259210138+255763881+252430895+250523476
3828+250870416+252593938+254772772+258302721+263456742+266853849+266218738
3818+264332310+262837359+259667885+254231122+249493032+248218893+251161143
3808+256639449+261113293+263549356+266567326+270763812+272535546+270377446
3798+266963613+263425497+259000895+254434014+251687034+251447529+252990164
3788+255475452+258103095+259761134+260268938+261242081+263884726+266656855
3778+267090012+265502084+264448516+265925531+270248507+275866415+280231281
3768+282267337+282889170+283139307+284051715+287131539+292765175+298656328
3758+302085526+303995577+307929344+316293369+328150715+338215215+342006612
3748+342605306+345083775+349876988+352455300+350847621+349170406+351610220
3738+359603607+370972597+380342159+383572066+381451864+377869226+376356399
3728+378457516+383349362+388547634+392200534+394365681+395797418+397089961
3718+398894271+402131012+408172096+418128223+430165837+438750297+440981079
3708+440051823+440284598+443894458+450543702+457220834+460599824+460999921
3698+461457214+463901383+468372051+474359719+481440850+488249674+491628603
3688+489457467+483756382+477956452+474388332+474343507+477946259+484682461
3678+494408748+505180768+510887146+509289902+506237057+505395728+504240956
3668+500659135+497574501+497944201+500883229+502982258+502592203+502080043
3658+504620909+509906804+515003055+519814145+527622032+539564461+549776562
3648+550583956+543907399+536482126+531728202+530055464+530750765+532751614
3638+535212268+537715387+540042291+542736990+547834753+557158341+567921166
3628+572471593+568965387+562678947+557384825+555175760+557998098+565067856
3618+571625787+574647871+575530215+575237612+573438868+571909315+572806661
3608+574455323+574100474+573215772+574919119+579154502+583550794+586941761
3598+589503316+590820661+590543666+590017684+591496665+596150292+602870827
3588+607888438+607534436+602715966+597483426+594300613+592698348+591201340
3578+589671425+589151915+590251971+593219612+599073350+608615255+619351826
3568+625179250+622733417+616241242+611471287+609250184+607728677+606930116
3558+608345579+611738180+614711447+615357507+614280619+613486292+614171551
3548+615940896+617639405+618830865+619688830+619728634+618695967+617937391
3538+619195998+622430713+625609110+626808071+625755925+623561681+621483582
3528+619648300+617446857+615473350+615419754+617543161+620278511+622541656
3518+624092986+624145191+622111917+619180754+617386546+617499062+618680723
3508+619833044+621022327+623553696+628181916+633655035+637526011+638168985
3498+636067416+633575004+633031358+634583777+636703676+638871848+640993320
3488+641377507+639179694+637013942+637505080+639360809+639579126+638087321
3478+637188886+637583176+637875173+636941472+634803304+632122760+629984774
3468+629786117+632157906+636234677+640750624+644634363+646262337+643895508
3458+638122164+632555887+630529388+631747223+633437988+634354752+635110545
3448+635217859+633400422+630887141+630600225+632881699+635348039+636581662
3438+637140976+636998637+635237398+632560182+631277499+632372050+634215317
3428+634574703+632871718+630307199+628642264+628693259+629644383+630086885
3418+629626840+629089969+629071156+629170243+629177018+629665555+630786360
3408+631647955+631582925+631165890+631534471+633374653+636625640+640667507
3398+644499344+646862725+646702481+644086785+640704407+638617719+638654377
3388+640019390+640712816+639351372+637169226+636989805+639813111+643225009
3378+643921035+641646397+639167656+638417912+638590074+638283619+637508649
3368+637073769+637232985+637518873+637603260+637875657+639043042+640952306
3358+642291065+641955332+640468547+639611731+641053873+644993991+649758017
3348+653442494+655348673+655430822+653857654+651751547+650339531+649252663
3338+647493057+645320711+643785290+643508658+644568366+646483800+648334750
3328+649587368+650265973+650185397+648848936+646602063+645234449+645978143
3318+647676470+648430570+648421375+649140449+650751788+652240327+653076635
3308+652952202+651431300+649208624+648144138+649196949+650972222+650998900
3298+648897451+647430568+649273230+653243474+655194357+653355627+650718154
3288+650788567+653584772+657141308+660565546+663261636+663391695+660425022
3278+657297560+656764016+657760388+657747564+656378921+654928008+654638915
3268+656329136+659723430+662934069+663882168+662717869+661208642+660069266
3258+659177727+659558165+662025291+663858818+660721193+653072219+646799148
3248+646953403+652579327+658283527+660948524+662062614+663152871+663191525
3238+661112701+658004354+655898187+655798011+657036474+658081422+658403423
3228+658918033+659957536+660407116+659501181+657849796+656589132+656717316
3218+658350795+660034119+660016940+658303550+656357930+654949846+653356534
3208+651034832+649060055+648633522+648728374+647291012+644523964+642498131
3198+642279935+643502669+645687416+647759284+647644409+644888673+642094344
3188+641821220+643912446+646675622+648845972+649551072+647846575+643758129
3178+638945346+635321422+633532236+632936384+632473617+631501623+630208294
3168+629347546+629547534+630700461+631750550+631509548+630265036+629629562
3158+630188694+630613594+629803418+628507850+627780548+627206717+625718359
3148+623103329+619910898+616951605+615146751+614957288+615906174+616986933
3138+617211360+615826989+613072645+610733823+610490401+611870175+612941799
3128+612445640+610782701+609570734+610071309+611611206+612353449+611654096
3118+610479331+609723417+609318057+608925521+608657176+608930300+609844644
3108+610660446+610133375+607838350+605012140+603511866+603806343+604488638
3098+604127317+602817473+601258218+599638350+598096820+597031607+596432973
3088+595769250+594735917+593737851+593738033+595246595+597252465+597887879
3078+596440172+594000752+591951387+590609240+589437803+588091361+587108176
3068+587243256+588244044+589176294+589590546+589396547+588211620+585985980
3058+583793369+582975268+583748060+585107145+585823497+585358128+584106054
3048+583069757+583076896+583913023+584395209+583531436+581542261+579516005
3038+578296839+577933823+577794086+577178091+576180872+575480611+574869455
3028+573024555+569705029+566994602+566959093+569018016+570768245+570783368
3018+569491854+567834480+566281033+564967922+563934952+563142803+562546710
3008+562118846+561782690+561365715+560625589+559596491+558921032+559310119
2998+560477987+561212487+560750506+559449071+557975171+556632479+555566662
2988+554974441+554913404+555231655+555674218+555766348+554909774+553185194
2978+551649289+551088887+551019078+550689939+550289539+550141211+549743836
2968+548706148+547568586+546735000+545749395+544404466+543291343+542737776
2958+542393453+542123536+542207136+542268657+541244942+539047069+537140466
2948+536774486+537414800+537469606+536243423+534685741+534237431+535351763
2938+537079671+537859177+536782109+534441230+532534628+532258843+533171553
2928+533889055+533664023+532744295+531412008+529612477+527475640+525462631
2918+523951468+523059507+522828304+523128528+523401894+523122237+522529955
2908+522214366+522111952+521654084+520721411+519673016+518635085+517578705
2898+516828295+516744271+517050061+517099181+516771372+516508774+516440418
2888+516139588+515402850+514628062+514142912+513686194+512915157+511997183
2878+511246290+510525522+509514692+508353115+507515778+507120701+506730858
2868+505872499+504642021+503748426+503826764+504644925+505212798+504875099
2858+504033497+503474062+503255503+502765211+501876849+501346632+501626501
2848+501951648+501312817+499814448+498309062+497253317+496535089+495857482
2838+494878048+493527947+492441320+492371995+492929010+492660847+490799765
2828+488282733+486632316+486390981+486966174+487539613+487630533+486980360
2818+485574393+483873072+482505125+481661950+481153299+480932380+481107567
2808+481534734+481834414+481859035+481744492+481382989+480356492+478693251
2798+477134177+476202653+475597033+474917006+474278538+473871726+473671768
2788+473701198+473777177+473247958+471840600+470314768+469527276+469398064
2778+469310592+468976734+468541672+468156849+467631865+466542123+464801996
2768+463016438+461916382+461584702+461558872+461488368+461412056+461491029
2758+461653905+461584551+461064860+460187144+459125985+457926902+456651297
2748+455469032+454498732+453739218+453139617+452579245+451956293+451398310
2738+451042130+450659455+449979126+449205306+448709328+448498179+448388113
2728+448255362+447831249+446826075+445525547+444651037+444347819+443857981
2718+442539849+440790315+439529077+439127861+439286865+439609986+439753353
2708+439315236+438211430+436981224+436280086+436196122+436237892+435889667
2698+435093404+434199355+433537174+433149175+432935123+432842418+432762296
2688+432434699+431692577+430696356+429750525+429011852+428499783+428203279
2678+428061333+427979275+427888385+427677932+427208147+426496090+425693808
2668+424926188+424335993+424049652+423922830+423638182+423164677+422764731
2658+422551616+422390797+422142263+421740079+421189960+420578623+419965229
2648+419345120+418754986+418257647+417806312+417272133+416637990+416069573
2638+415735442+415580975+415400405+415146850+414938605+414708038+414189617
2628+413408689+412860264+412968092+413541289+413938301+413686350+412843508
2618+411847741+411156281+410977223+411211118+411576432+411747626+411478736
2608+410793356+410015332+409438748+409070258+408818700+408668104+408539406
2598+408332885+408210176+408438656+408857445+408877983+408199499+407254243
2588+406718552+406782220+407089461+407235642+407121522+406921625+406866668
2578+406953958+406850849+406317335+405661506+405416753+405634889+405874530
2568+405821599+405532112+405096808+404463573+403678955+403044328+402882148
2558+403211741+403717216+404042696+404078236+403896062+403559815+403209684
2548+403158477+403559664+404095960+404309256+404118312+403776650+403511875
2538+403425915+403585040+404002590+404522190+404794346+404527362+403812734
2528+403094144+402806502+403043088+403471738+403614228+403359645+403062143
2518+402973038+402871924+402505279+402078565+402001105+402336959+402746070
2508+402892764+402795190+402761828+402996327+403340469+403495602+403409370
2498+403292559+403334783+403570431+403912607+404163046+404158781+404023490
2488+404014991+404058122+403828311+403373619+403148617+403323047+403546991
2478+403527693+403423525+403503738+403758926+404045388+404356592+404727895
2468+405051167+405168401+405038494+404754965+404536255+404625088+404978787
2458+405180651+404905894+404356168+404027119+404161867+404563779+404876888
2448+404978545+405015446+405093965+405166496+405214224+405236395+405064112
2438+404516080+403751455+403199310+403132556+403495300+404103703+404780160
2428+405282944+405382605+405131864+404852540+404750852+404706480+404478514
2418+404000563+403473099+403239144+403533561+404295494+405201067+405851150
2408+406018472+405860405+405813765+406141302+406652040+406978790+407062270
2398+407218341+407686432+408271092+408624670+408761323+408996487+409443194
2388+409853606+409904359+409407806+408274812+406499629+404269543+401978813
2378+399987733+398323584+396680820+394718806+392295235+389544097+386913883
2368+384964361+383910975+383487437+383284454+383059029+382911911+383355412
2358+384933903+387687007+391295475+395603902+400282331+404226110+406202067
2348+405819754+403679590+401029928+399053094+398095649+397747514+397484463
2338+397112736+396818138+396798901+396947622+396992628+396830630+396698423
2328+397036516+397990059+399074327+399692953+399934590+400392700+401284995
2318+402250092+402949355+403457583+404037010+404801060+405721303+406794984
2308+407981968+409106493+410063303+410979129+411977346+412943018+413637986
2298+413933855+413964282+414120777+414697724+415471786+415949313+416077467
2288+416271799+416666452+416836043+416444535+415749446+415222194+415012164
2278+415017245+415152839+415289219+415211093+414879262+414493501+414186653
2268+413895744+413565728+413273912+413132874+413187377+413401884+413741156
2258+414275819+415096702+416070208+416861843+417310213+417571148+417796573
2248+417933195+417946443+417956485+418022270+418041840+417958723+417810547
2238+417506602+416823854+415748932+414647757+413962498+413814382+413958112
2228+414050756+413917310+413626976+413370518+413238493+413178848+413227877
2218+413588019+414306428+415087810+415640923+416037512+416548613+417281419
2208+418102181+418796090+419233693+419468223+419710011+420150457+420799753
2198+421531228+422248730+422925671+423504131+423923072+424299456+424905893
2188+425818362+426692720+427098413+427063933+427073974+427497694+428236368
2178+428946671+429397159+429600111+429772031+430138918+430667440+431067538
2168+431141550+431058071+431211691+431815134+432659670+433364196+433852431
2158+434397438+435204710+436179698+437117937+437933346+438696761+439562711
2148+440594017+441632643+442486223+443225108+444123331+445324107+446702731
2138+448046058+449294109+450593457+452116537+453860506+455686411+457541474
2128+459529137+461725256+464020856+466227531+468302575+470351940+472354454
2118+474015880+475074257+475674191+476240008+477043711+478067002+479174105
2108+480254350+481327880+482648401+484533831+486977789+489597568+491974892
2098+493824572+494914495+495173887+494831802+494110973+492862620+490800431
2088+487949873+484560388+480785414+476792970+472963855+469611603+466649890
2078+463854320+461332509+459391486+457994019+456712183+455326027+454197510
2068+453858903+454351493+455092768+455388093+455075709+454608072+454418005
2058+454362805+454079065+453711452+453780928+454422602+455275062+456028557
2048+456647032+457215087+457922970+458993748+460419102+462014048+463789381
2038+466005796+468907470+472578457+476919913+481660105+486492609+491187643
2028+495513946+499255769+502390097+505035888+507251395+509081687+510645055
2018+511879949+512360078+511724906+510258992+508707541+507514447+506490007
2008+505200095+503450440+501420191+499516190+498037209+496890906+495771129
1998+494633477+493824662+493713144+494282651+495103141+495723492+496056261
1988+496284741+496582062+497057593+497730633+498514585+499460658+500854405
1978+502794339+504930661+506830458+508350756+509648562+511113751+513140491
1968+515682749+518194337+520151027+521476478+522479867+523606601+525195860
1958+527323018+529826742+532420478+534830016+537000365+539153959+541510505
1948+544069821+546851992+550075456+553648748+556728239+558546099+559518576
1938+560683420+562501885+564875187+567661048+570513874+572822268+574404812
1928+575858144+577931585+580722649+583471367+585345304+586557694+587974852
1918+589603250+590574396+590753817+591091909+592359227+594392320+596304366
1908+597278114+597411742+597526859+598091375+598869611+599569207+600269831
1898+601239828+602594921+604095437+605447565+606733999+607864362+607930903
1888+606356828+604167363+602749963+602310364+602321434+602444778+602469036
1878+602177401+601686505+601453004+602012922+603883048+606981534+609545751
1868+608844038+604568004+599448403+595666352+593199589+591258264+589595023
1858+588203453+586901715+585633429+584508571+583549947+582792339+582496107
1848+583204716+585386983+588138182+588543965+584957365+579786346+576105438
1838+574505774+573697897+572717858+572239302+573463307+575903332+577120804
1828+575783678+573150077+570247284+566751301+562947715+560121445+558837854
1818+558377446+557901975+557638712+558523959+560666845+562665033+563040631
1808+561980621+560864474+560934706+562811788+566081891+569058243+570101255
1798+569563719+569581866+572136948+577235317+581724344+581722227+578128125
1788+575267617+575393139+577654832+580444867+583314752+586170421+588254267
1778+589475610+591541248+596474834+604197004+611183101+613252791+610726080
1768+606747428+603559655+602823643+605548769+610190661+613131383+613326048
1758+613064357+613642605+614955353+618086444+624591928+633270243+639635263
1748+640740219+638435394+636323480+636627516+639430073+642995621+645168270
1738+646241770+649423796+656643636+663835770+664491146+660287886+656408078
1728+654390653+653986322+655040403+657087651+660030127+665399381+674760231
1718+685981106+692477697+691173177+686395358+682449312+680855879+682234079
1708+686921946+693825289+700196056+705069271+711108116+719965851+727586575
1698+729622631+728007361+724969609+721190522+718873901+719875173+723507082
1688+728575567+736528213+748775645+759153254+758866640+751721024+746034125
1678+745508929+750027477+756573793+761948309+766767928+772582104+776739693
1668+775716704+772309041+771449564+773609327+775576785+775541397+775747676
1658+779165382+787486790+801484330+816979907+820999633+813824921+809565946
1648+811763820+814272081+810865688+804355304+799935057+799107399+802387302
1638+810652815+821726330+826739343+820205972+809849898+803254099+801042251
1628+800410226+799377074+798159118+796513299+793052221+788639958+786528891
1618+788248511+790882173+789585638+784656830+780013244+777407409+775845009
1608+773840408+771415990+769584096+768682637+768183392+767690681+767465044
1598+768002459+769296454+770480776+770445207+769034582+767224949+765990902
1588+765501941+765526864+765990418+766676706+767025203+767114550+768458089
1578+772461240+777153583+777475221+773526755+770900413+771928604+773485741
1568+771813244+768174863+765792729+766249024+771345335+784244876+803742273
1558+813817117+804608344+789719145+778813073+773391433+771952619+771961874
1548+772336081+774856985+782026556+794363758+809740770+822155342+822147962
1538+811290346+802121558+800172430+802869306+804619354+803741608+803949823
1528+808127314+815501410+823898918+832743102+841247924+845812567+845101054
1518+843287731+843394077+844520507+845609977+847985639+853886258+864464279
1508+877916903+886353973+882784976+874454373+870324066+872623325+880079691
1498+888850256+893871617+893897750+893159197+896014080+903067626+910415287
1488+912292309+907744120+901601833+899009971+901847190+908544557+916522307
1478+924671191+932735204+939764129+944257694+944841023+941871930+938585010
1468+938241473+941251035+944808841+945506138+943807871+943584291+948264717
1458+958043994+966601868+966223124+959206418+952317956+949691432+952585635
1448+958888530+963693993+963838449+961369690+960904805+965161844+973276912
1438+981734550+985862558+983612902+978916930+977067130+980015958+985759358
1428+990542378+992981920+994062497+994471910+994939941+997163343+1001663742
1418+1005232921+1004879886+1002762528+1001789930+1001793559+1001110539
1410+999664284+999192382+1000496721+1002009518+1002296917+1002912429+1005880069
1400+1009918186+1012155380+1012340729+1012151690+1011710881+1009871727
1391+1006903844+1003571736+999017135+992956573+988738734+990214206+997059477
1381+1005057855+1010322034+1012782566+1014935857+1017801265+1019542844
1372+1019184366+1019110686+1021640845+1026386603+1031687439+1036506997
1364+1039961240+1040655815+1038329031+1035043684+1033531129+1035267869
1355+1039833359+1045304179+1049433760+1050887153+1050253675+1049828655
1347+1051420213+1054597399+1057351260+1057709013+1055484461+1053098032
1338+1053013585+1055237410+1057339282+1057424214+1056454398+1056075594
1330+1056398987+1056639989+1056889097+1058211584+1061121757+1065098171
1321+1069251586+1072533788+1073741823+1072430104+1069939628+1068538621
1312+1069149838+1070432883+1070596697+1069637649+1068032904+1065700918
1304+1063833031+1063777741+1064740539+1065337237+1065122126+1063299245
1295+1058961933+1053539870+1050087563+1048668288+1045340233+1037579287
1287+1027334399+1018089694+1012181694+1009918670+1008846863+1005637132
1278+1000457099+996522909+994622476+991931709+986747381+980479209+974546226
1268+968746992+962575669+955940368+948826692+941522707+934543385+927595761
1258+919833061+911647156+904873811+900679987+898220605+895627352+891655172
1248+886106740+878864155+869691980+859579207+850682092+844004144+838143691
1238+831399382+824390661+819117833+816134645+814164768+812045776+809774283
1228+807830417+806425720+805381075+804350707+803275997+802609007+802798167
1218+803885217+805844025+808524326+811071968+812615676+813836656+816223388
1208+819732195+822923597+825365982+828317713+832722898+837694050+841611363
1198+844167897+846363290+848925934+851978930+855522157+858878462+860783250
1188+861280982+862239849+865170287+869946472+875898692+882660301+889674346
1178+896034950+901428219+906993529+914421887+923668951+932458571+938749791
1168+942399424+943942830+944024253+944304091+946641521+950870854+954609775
1158+956617097+959112957+964817158+972833200+979070460+980976216+979654213
1148+976478417+971095795+964009099+957819930+955048103+956381539+960582078
1138+965158638+968598906+971601331+974443873+975214971+973273525+971882863
1128+974139838+978764610+982507886+985074401+988985362+995376213+1001965721
1118+1005286396+1004230500+1001104368+999027600+998414630+997248274+994811818
1108+992469367+990764265+988745691+986538501+985861469+987577762+990858573
1098+994416378+996956700+997404345+995533251+992138533+988229811+984877256
1088+983160055+983440559+985146931+987205310+988067267+986092429+981334694
1078+975892426+970791941+963742327+953294789+943897945+942142210+948812476
1068+957056938+958982414+953645524+945983423+939884267+936092356+934386165
1058+934423489+935285265+936095683+936885775+937585008+937353987+936323619
1048+936387075+938596201+941516657+942922322+942700859+943026308+945588105
1038+949834134+953492902+954629314+953124139+949956752+946177604+942892317
1028+941365608+941891711+943315402+944207727+943781376+942343711+941415937
1018+943271545+948721132+954609714+956145135+952177190+945723064+939468986
1008+933213034+925974320+918379790+912005574+907126975+902499360+897225261
998+891528259+885689826+879269999+871969764+864788519+859221697+855274622
988+851700422+847769136+843494010+838987622+834439372+830460176+827872246
978+826970243+827006054+826439058+824218137+820906112+817825169+815500018
968+813645984+811741015+809215876+805797506+801943468+798597326+796532717
958+796278286+798122157+801704946+806098940+810795819+816107000+821716348
948+825937757+828024627+829932560+834005581+839712201+844912015+849733448
938+856151460+864614179+873885985+883157791+892066521+899636734+904777870
928+906994920+906589197+905043311+903879254+902455261+899036104+894482531
918+892033371+893221626+895975909+896874344+894493722+890684086+888934401
908+890995078+895201303+898239115+898334754+896511510+895283149+896640661
898+900866365+906717744+912334532+915869654+916327461+914711525+913881689
888+915850538+919519166+922142786+922585047+922009460+921557582+921139457
878+920808321+921311438+922534293+923426739+924089314+925867128+928960109
868+932186900+935171357+938227983+940361432+939983475+937791288+936140205
858+935737446+935813122+936570186+938578113+940591546+941186489+941423318
848+942792807+944402513+945233196+946590768+949736317+954077864+958607058
838+962922412+965795805+965230805+962148591+960902144+964495700+971108619
828+976231305+977544113+975258646+970159855+965341567+964329467+967472899
818+973199058+980720393+988431977+992058562+989463737+983714893+979935926
808+981345160+987208153+993185840+995665125+995910603+995457938+992319769
798+985596875+979330336+978164343+981165376+982843317+979628080+971989269
788+962069165+953099398+948322245+947860445+948332468+946596212+942363915
778+936612289+930249446+924396192+920425767+919040307+919169882+918574576
768+916342705+914494115+915846908+921123971+929132573+938200640+946596696
758+952817079+956295156+957022881+955153118+952145976+949749505+947431674
748+944253278+942226234+944677874+951693613+959375011+964018959+965832887
738+967380406+969602537+971058289+970402974+967971902+964565146+961137096
728+959538885+961253545+966051628+971181331+972079766+966926591+960134857
718+957728102+959578810+960718125+959966446+960361038+962427946+963379190
708+961522494+958568948+957395031+957956340+956008724+948969878+941136886
698+938250184+940627236+943450784+943036108+941203427+940950327+941947001
688+942467660+943730683+946182141+945665959+939151401+930269953+924801189
678+923222214+921520076+918279554+916549831+918290805+920580204+917954648
668+910803528+908566939+914187478+920022161+920182708+915625385+912163278
658+913062378+914402106+912070120+909070115+909027408+910099093+909306218
648+908810300+912416137+917748550+919555219+917632042+914851867+912497136
638+911924030+913528594+913747637+910007447+904896315+900609877+895211224
628+888086236+883177088+883082357+884837607+884268978+882246653+881665260
618+881186643+877273807+872804863+874293765+882587710+890173530+886751530
608+873490667+860376740+850673320+842897373+839684616+844788550+858017714
##END=
