##TITLE=<SNM>
##JCAMP-DX=4.24
##DATA TYPE=INFRARED SPECTRUM
##DATE=29/4/2025
##SAMPLING PROCEDURE=Instrument type and / or accessory
##ORIGIN=Admin
##XUNITS=1/CM
##YUNITS=ABSORBANCE
##RESOLUTION=4
##FIRSTX=4497.3318
##LASTX=599.83466
##DELTAX=-1.4281778
##MAXY=2.2280121
##MINY=0.68575829
##XFACTOR=1
##YFACTOR=2.074998e-09
##NPOINTS=2730
##FIRSTY=0.71704394
##XYDATA=(X++(Y..Y))
4497+345563684+344670532+342285999+339049881+336492623+335372802+335405979
4487+336387374+338412211+340867178+342376283+342175695+340761699+338937594
4477+337053970+335535903+335361714+337114121+339847032+341810454+342335321
4467+342110374+341824415+341677400+341819445+342007538+341209610+339001479
4457+336937432+337021856+339160300+341202889+341464977+340356674+339375394
4447+339345146+339835341+340013897+339836979+340028662+340870021+341433983
4437+340563438+338661402+337597565+338406552+339900921+340169559+339039224
4427+337938102+337875625+338771850+340112395+341492007+342584655+342938520
4417+342255149+340959299+340225745+340902452+342200628+342297202+340575072
4407+338194474+336480243+335944633+336725498+338726091+341151212+342710040
4397+342742040+341793564+340742108+339914048+339536255+340188373+341890138
4387+343434230+343612872+342504167+340924312+339395530+338021319+336689678
4377+335476212+335271345+337151578+340437708+342460505+341535124+339189686
4367+338068715+338814736+340070169+340727200+341130501+342135738+343713266
4357+344676306+343780368+341190738+338495284+337113087+337177460+337952206
4347+338683778+338983238+338970886+339019001+338931648+337694398+334757825
4337+331517914+330486250+332663129+336370886+338914212+339006563+337321373
4327+335442029+334746909+335517232+336758302+337234910+336664917+335748670
4317+335232135+335141909+335032121+334869221+335226849+336326707+337603425
4307+338587607+339392514+340149192+340715423+341137539+341772853+342645725
4297+343155855+342799663+341927107+341284899+340977884+340482806+339538151
4287+338398107+337269237+335992461+334415881+332784866+331671680+331660018
4277+332843437+334391435+335186031+335397879+336420667+338480203+339682839
4267+338623570+336535567+335483882+335850846+336694504+337532589+338653531
4257+340029437+340984376+341186831+341078940+341171435+341713191+342853637
4247+344319137+345307570+345341179+344623595+343446812+342060708+340832564
4237+339864268+338968186+338232908+337872178+337763539+337826591+338302998
4227+339223869+340201415+340860111+341131909+341185826+341313854+341702247
4217+342072916+341980364+341671856+341877786+342465101+342252190+340557894
4207+338310150+337150975+337740502+339280084+340552522+341092038+341277890
4197+341527081+341619231+341065439+340120841+339702057+339957050+339911693
4187+339141600+338643362+339222950+340168094+340331655+339648254+338966003
4177+339083288+340192223+341684610+342492706+341970683+340390972+338586257
4167+337465200+337677967+339146627+340962086+342218524+342738852+342638314
4157+341807295+340223217+338291192+336700795+336186097+337145833+339001565
4147+340318039+340190758+339290597+338969622+339592355+340451927+340962201
4137+341147334+341262177+341545005+342046288+342408800+342265317+341875546
4127+341785004+342023882+342128097+341724020+340839314+339923671+339626394
4117+340191849+341040563+341245976+340553786+339751981+339747442+340382929
4107+340651480+340113487+339469440+339528901+340228876+340875881+340960305
4097+340605721+340326053+340441442+340604773+339986637+338422523+337035041
4087+336969231+337897944+338558249+338434444+338034417+337884501+338026030
4077+338282574+338587061+338810083+338402329+336897907+335055073+334620633
4067+336366865+339030635+340785397+341282170+341435390+341758893+341934691
4057+341773428+341542104+341213718+340439948+339450424+338912029+338784288
4047+338443952+337946231+338040680+338867045+339611802+339542373+338714888
4037+337634649+336686116+336051003+335839327+336050198+336545937+337169589
4027+337787324+338289037+338638910+338772482+338589732+338352146+338709114
4017+339848957+341010689+341293488+340510296+339021356+337444288+336656730
4007+337243068+338783914+340238470+340943673+340930746+340588343+340292473
3997+340128079+339876016+339345664+338620267+338020543+337959962+338679240
3987+340018234+341458945+342329030+342195917+341398967+340837418+340936750
3977+341436137+342114051+342724288+342540418+341195564+339576872+338771735
3967+338764956+339066110+339869496+341651260+343962371+345397652+344984814
3957+343156429+341128548+339787255+339425290+340181824+342137289+344680356
3947+346198165+345533580+343621375+342348793+342268592+342568971+342786765
3937+343150770+343783844+344612795+345463088+345768867+345056742+343893632
3927+343436212+344099850+345135535+345523152+345227484+345260145+346372814
3917+347945775+348567560+347669496+345919359+344220323+343138361+343121155
3907+344572350+347341196+350304484+352128933+352653656+352510748+351690990
3897+349895236+347761072+346764223+348002105+350520899+351361598+349693212
3887+348220301+348895802+350614658+351783686+352499230+352568371+351163423
3878+349212784+348483625+349144993+350608798+353200497+356636428+358599074
3868+357947099+356608708+356192279+356016912+354871324+352906179+351147653
3858+350725078+353000311+358659656+363888496+362327341+355685395+349604021
3848+346630708+346618127+348449988+350981277+353480653+355951591+358453466
3838+359929480+359313297+357492581+355954464+354871181+353695661+352477312
3828+351660081+351310410+351516427+352950732+355799233+358461653+359418862
3818+359183028+358230473+356022916+352881245+350254703+349502133+351414539
3808+355276636+358408109+359296607+359658918+361072655+362379535+362116298
3798+360680068+358639462+356269292+354458573+354039990+354752144+355822931
3788+357155635+359219538+361997404+364940210+367816317+370484223+372267883
3778+373046364+374201632+376903952+380751371+384880612+389065466+393112783
3768+396450704+398721284+400059474+400890292+401834890+403551046+406123930
3758+408841875+411288713+414348488+419394723+426143124+431300813+432378150
3748+431928946+433611436+437648498+440387097+440311837+440749437+444941759
3738+453225290+462020445+466302763+465828223+465044687+466557124+469286359
3728+471657506+473722270+476243305+478712606+479321148+477244003+474144760
3718+472269524+472091227+473033814+475387611+479791580+484530054+486247588
3708+484268367+480880781+478291466+476933255+475909806+474531659+473168909
3698+472502428+473129211+475762676+480678584+486932741+492372539+494552261
3688+492777908+489348641+486760562+485934599+487185120+490476449+495175770
3678+500288216+503976354+504094127+501804560+500623783+501508805+502098878
3668+500565816+497997557+495492781+492766648+489701214+487397399+487370570
3658+489987374+493551017+495771472+496742210+498538624+502034246+504725793
3648+503019289+497585523+492004799+488764199+488275182+489088679+489455786
3638+489184104+489112291+489341173+489451822+490101298+492514556+495545692
3628+495317097+491165852+486913437+485873012+488866346+494093865+498119179
3618+499314376+499384695+499657009+499393829+498476405+498857014+501687074
3608+504671618+504666907+502073657+499940412+500255412+502714515+506125857
3598+509930907+513881018+517006890+518127056+517707094+517834002+519611285
3588+521037087+519127439+514607075+510507134+508409450+508255483+509048872
3578+509582471+509697084+510069534+510601007+510836439+511629311+514123861
3568+517234336+518191516+516375166+513894979+512749362+513502650+515435854
3558+517431103+519067058+520778446+522857286+524699258+525463634+525036951
3548+523879786+522008342+519272443+516743250+515889539+516425952+516475762
3538+515080811+513618930+514076120+516403777+518322617+517927531+515863456
3528+514264269+514163559+514690895+514617244+514137362+514258639+514704166
3518+514095882+512243799+510314790+508942704+508173042+508516652+510142094
3508+511851184+512449586+512038012+510959727+509188649+507409298+506879778
3498+507666215+508297077+507718323+506772001+507016452+508713650+510516326
3488+511034068+510467895+510245735+510965013+511598977+511316494+510654264
3478+510015933+509029454+507875335+507010477+505780236+503541398+501291241
3468+500376000+500712716+501319909+501387240+500335842+498155373+495817777
3458+494437935+494293505+495081551+496423820+497765113+498387759+497886678
3448+496522118+495042255+494181132+494296607+495147562+495783537+495130614
3438+493140937+490960468+489624058+489121885+489030137+489228858+489494623
3428+489102237+487614102+485724790+484496732+484008979+483645089+483437291
3418+483844671+484413487+484150652+483151361+482561001+483010205+484099578
3408+485122194+485715254+486079029+486504908+486626128+485762248+484084929
3398+482562438+481999425+482753173+484558951+486221563+486650315+486235754
3388+485947295+485814873+485593287+485752022+486706674+488216640+489975137
3378+491733576+493062173+493813852+494425698+495193867+495760039+495646345
3368+494985264+494415185+494402144+495155375+497012514+499952361+502572326
3358+503002111+501373625+499818330+499865669+501037253+501899353+501665357
3348+500674742+499789030+499382569+499006614+498316923+497858182+498228909
3338+498890450+498734242+497934936+498192084+500489062+503645612+505648101
3328+505683547+504376955+502535787+500583855+498934342+497965040+497616776
3318+497431556+497150624+497062093+497554787+498509382+499281054+499405607
3308+499159892+499040797+498937157+498557468+498257922+498309972+497958261
3298+496564689+495119583+495136646+496477939+497479125+497145109+496478398
3288+497281783+500055427+503389499+505430192+505681537+505062969+504519087
3278+504069711+503370138+502653848+502309548+502000925+501385402+501062014
3268+501445897+501702413+501049030+500100985+499770186+499736693+499031950
3258+497670377+496864005+497498429+498862069+499567846+499402447+499219008
3248+499577268+500246392+500435518+499427265+497587189+496278299+496356833
3238+497400361+498377763+498502430+497749716+496902439+496713657+497098115
3228+497519800+497679627+497383068+496384122+494802572+493291284+492532710
3218+492620839+492938654+492735625+491819809+490612261+489785666+489836337
3208+490613640+491276904+491071806+490077629+488873355+487697577+486380299
3198+485081749+484449278+484683101+485036478+484683791+483637276+482451214
3188+481492196+480795122+480290479+479905303+479482555+478823801+477984969
3178+477363299+477182388+477103308+476625608+475593973+474199453+472914461
3168+472378421+472784107+473411636+473327816+472499526+471643747+471128274
3158+470633483+469724647+468297639+466744269+465887139+466187661+466842336
3148+466450209+464846369+463313336+462723924+462547035+461921458+460808617
3138+459761556+459135089+458879722+458814401+458802509+458833216+459092317
3128+459633959+459843394+458821353+456706205+454958508+454800807+455937146
3118+457163078+457609640+457039474+455631912+453984553+452851834+452521725
3108+452639412+452671124+452369941+451925879+451752522+451898475+451822152
3098+451126630+450270563+450017551+450351654+450425161+449609137+448284678
3088+447482154+447839552+448957421+449811190+449799499+449178863+448440713
3078+447723273+447024160+446449456+445979771+445453440+444940006+444668352
3068+444585681+444468167+444303859+444144204+443961800+443914231+444211536
3058+444636841+444774664+444594672+444190107+443296037+441788081+440305834
3048+439688932+440000572+440583577+440850291+440603225+439845197+438720866
3038+437505188+436445086+435727819+435498621+435656150+435802217+435577759
3028+434858050+433776175+432855074+432625359+432830140+432716848+432235415
3018+432056112+432428993+432894226+432934815+432305504+431137453+430108546
3008+429914192+430348976+430470943+429735636+428524555+427630542+427589494
2998+428347809+429337075+429948404+429889258+429107101+427842591+426828909
2988+426707401+427093697+427006028+426330872+425924957+426157746+426327741
2978+425723996+424548045+423544733+423141518+423165216+423273826+423357387
2968+423348023+423027278+422413450+421984440+422114450+422528322+422569973
2958+421929603+421016890+420533790+420610659+420567370+419784753+418520186
2948+417442590+416710874+416049477+415513035+415594241+416540563+417909891
2938+418854029+418750360+417662625+416322481+415631612+415985564+416947397
2928+417618991+417434231+416519708+415308799+414194751+413577620+413632313
2918+413905259+413738797+413123504+412536161+412144349+411807662+411545545
2908+411463190+411478471+411424842+411164936+410535712+409580974+408811771
2898+408785201+409476242+410382980+411059630+411298508+411099472+410662907
2888+410148008+409478051+408680986+408168759+408327092+408992108+409516055
2878+409276286+408164594+406762260+405929489+406039650+406599360+406726899
2868+406123642+405406777+405291762+405712643+406081359+406193129+406337501
2858+406556243+406420976+405767508+405139921+405102923+405477384+405730998
2848+405781238+405798359+405564162+404729582+403470357+402376015+401885130
2838+402044526+402547188+402912543+402850209+402494908+402256633+402478563
2828+403106122+403612920+403491010+402811919+402002042+401269809+400659629
2818+400362036+400509913+400889488+401143677+401020848+400391192+399371966
2808+398407691+397925999+397919450+398045438+398061840+398003844+398009704
2798+398086171+398036965+397629986+396864375+396063431+395637782+395670213
2788+395776725+395552928+395102632+394823596+394766490+394603504+394162975
2778+393612802+393136625+392719650+392300206+391965213+391860941+391983109
2768+392192285+392366331+392418266+392297678+392081780+391873321+391606579
2758+391196786+390788573+390606082+390671001+390814569+390826002+390589910
2748+390222170+389932736+389662288+389114787+388235998+387392857+386977463
2738+386993060+387103825+387046489+386874425+386721809+386528977+386223743
2728+385978459+385970502+386051766+385962114+385699337+385390512+385009330
2718+384529734+384151166+384079611+384243230+384403832+384377893+384064416
2708+383490832+382874074+382439606+382207076+382060635+381954696+381966732
2698+382178551+382573551+383052428+383440304+383465611+382938131+382019156
2688+381120460+380533347+380327359+380457685+380732728+380829790+380562618
2678+380056480+379577144+379240715+378966677+378720933+378633005+378783065
2668+379066324+379353978+379568210+379591564+379361820+378979057+378519282
2658+377959142+377415202+377145588+377195943+377293178+377187153+376944339
2648+376778107+376661282+376349355+375844395+375517762+375624677+375987964
2638+376250368+376220839+375959411+375670723+375504175+375436268+375402516
2628+375432103+375518221+375490645+375211925+374831949+374641932+374705960
2618+374840997+374930476+375009125+375072665+375041355+374876444+374596029
2608+374247765+373935896+373808442+373982689+374445911+374951330+375152177
2598+374965521+374604043+374186552+373636149+373026457+372689224+372854336
2588+373363030+373814934+373952298+373851789+373712127+373561751+373326118
2578+373093243+373033179+373095886+373095857+373050989+373127570+373322643
2568+373513435+373710202+373955889+374131916+374130940+374027271+373876579
2558+373603058+373287799+373269932+373681219+374130538+374159033+373802123
2548+373401579+373120647+372981416+373068597+373318047+373384402+373023700
2538+372386202+371786881+371459213+371550243+372031389+372616923+372991987
2528+373085344+373028468+372946372+372841353+372636686+372339294+372104466
2518+372077981+372260185+372568349+372938587+373343870+373744558+374039737
2508+374146624+374133956+374143234+374182645+374169288+374126057+374154265
2498+374308662+374607145+374994791+375257684+375180643+374810577+374409373
2488+374199105+374237654+374429538+374592208+374602865+374501609+374402134
2478+374332016+374245266+374195686+374359305+374778548+375214223+375393554
2468+375282043+375013434+374748933+374675195+374878972+375133793+375056895
2458+374574485+374060678+373922395+374139873+374316476+374170552+373860722
2448+373742633+373924061+374202896+374370651+374430830+374501609+374611426
2438+374655892+374522780+374228347+373932794+373822977+373942531+374150818
2428+374316849+374486959+374736610+374977643+375100845+375181821+375343170
2418+375539535+375649897+375676095+375740784+375943583+376221270+376357714
2408+376265621+376189528+376387071+376734904+376938135+376981912+377070902
2398+377257041+377432408+377656809+378312260+379922506+382862095+387233490
2388+393035340+400439910+409870724+421781669+436348455+453322812+472031077
2378+491420300+510411249+528638683+546685896+565115900+583306509+599512496
2368+612134446+620978003+627149948+631243857+631840479+627021029+617097808
2358+604264901+590072950+574382866+556762394+538893450+524525183+516724349
2348+516514656+523112020+533608768+543591162+550731145+556216042+561396164
2338+565719473+568150483+569040791+569858711+571426702+573058119+573504795
2328+572324996+569945116+566849406+563228083+559287795+555452584+551768928
2318+547467163+541901319+535639809+529713694+524098155+517909377+510780540
2308+503089091+495245687+487583768+480467368+473934635+467635438+461386854
2298+455438621+450101142+445384672+441010950+436694852+432440570+428511571
2288+425130620+422311073+419891984+417651048+415497121+413562740+412020745
2278+410901383+410094752+409352120+408401461+407295686+406456395+406161962
2268+406197322+406143693+405809360+405264128+404628440+404000106+403510400
2258+403213583+402897635+402267520+401348573+400457662+399844035+399578270
2248+399601595+399686765+399594615+399398968+399385381+399595592+399782075
2238+399841278+399976976+400321132+400639205+400614674+400291487+400021586
2228+400040889+400227947+400233261+399836596+399223026+398781032+398602534
2218+398439260+398170680+397951019+397836693+397659430+397370713+397149443
2208+397029430+396759815+396211481+395645423+395405797+395564274+395954793
2198+396339997+396515910+396465325+396404973+396556039+396950091+397500752
2188+398098465+398599259+398907050+399129497+399509790+400128041+400767406
2178+401154764+401263834+401275180+401304078+401298304+401181967+401024151
2168+401055289+401482231+402250572+403052406+403621365+403940272+404116845
2158+404173147+404054512+403816524+403695189+403864121+404153096+404214109
2148+404022368+403977758+404373648+404977279+405308106+405212538+405000087
2138+405056503+405467560+406043786+406602922+407113856+407574033+407872171
2128+407904114+407814692+407955819+408485913+409121974+409476902+409574941
2118+409776247+410229789+410711797+411033605+411291471+411632754+412050993
2108+412486667+412916884+413326102+413753964+414330592+415103357+415910763
2098+416566386+417060775+417475308+417843363+418199297+418614375+419091443
2088+419531857+419850045+420032910+420080134+419975287+419758814+419600309
2078+419717364+420165649+420779534+421382044+421943564+422472336+422905914
2068+423203334+423425006+423682872+424060436+424525438+424940890+425306533
2058+425895715+426882108+427926928+428496548+428533316+428457826+428600303
2048+429002915+429652477+430505528+431354874+432013685+432575520+433252486
2038+434071440+434899960+435642132+436319988+437063108+438000841+439091076
2028+440130668+440992882+441796727+442791307+444084456+445551306+447034415
2018+448494917+449888374+451056914+451895660+452540425+453315372+454525161
2008+456226380+458152775+459944995+461459960+462827392+464303837+466073709
1998+468050258+469945946+471656874+473342236+475022285+476462794+477603269
1988+478722545+480062918+481559039+482957811+484059306+484873549+485597825
1978+486453203+487604105+489149519+490986033+492811172+494530430+496455648
1968+498796806+501238731+503376917+505266228+507198742+509303320+511600700
1958+514102662+516677010+519068495+521147794+522977816+524674267+526395076
1948+528451510+531204874+534649997+538113160+540644076+541988011+542932092
1938+544453319+546839403+549634936+552214685+554360339+556296587+558297294
1928+560522920+563219293+566601163+570355886+573728909+576386618+578651769
1918+580671722+582084943+582799222+583432555+584682214+586652760+588902457
1908+590982043+592814594+594555625+596212320+597562460+598501371+599318831
1898+600404412+601715199+602855013+603815812+605149636+607043946+608794457
1888+609733023+610072554+610219684+610163957+609900548+609571645+609177076
1878+608879024+609253657+610617930+612619786+614899817+617480083+619973944
1868+621033557+619705306+616920000+614555230+613656477+613906501+614413327
1858+614696615+614763659+614537190+613722717+612370911+611174508+610889555
1848+611715058+613241571+614395403+613734667+611186228+608470552+606770195
1838+605748154+604748863+603934390+604040673+605378748+607121216+607675612
1828+606400157+604095308+601461556+598725484+596417705+595045906+594334672
1818+593563459+592430653+591313015+590787689+590970611+591267801+590930051
1808+589876757+588731542+588249017+588842479+590284941+591706262+592214180
1798+591807490+591537128+592593008+594991903+596845767+596075301+593416156
1788+591269812+590707201+591206559+592094282+593357786+594952607+596311882
1778+597176451+598289494+600809782+605127001+609842638+612614443+612937199
1768+611990992+610757591+610172977+611140268+613273168+615069238+616321310
1758+618097616+620122682+621271172+622217953+624745939+628763497+631847775
1748+632528159+631916141+631431490+631579080+632645817+634783084+637226331
1738+639181193+641607263+645948323+650737956+652188577+650217169+647548027
1728+645664691+644955352+645504462+647099398+649717696+654141370+661049426
1718+668800393+673050108+671891910+668159018+664654893+662563702+662473505
1708+664337710+667070909+669437747+671843422+675887005+681572805+685880200
1698+686650724+685205331+682748641+679897209+678020020+678109183+679958911
1688+683160272+688234112+695125392+699978623+698817437+694392441+691034757
1678+690399127+692209042+694988373+697301093+699438188+702299271+704785663
1668+704702360+702979597+702837580+705365854+708175749+708683207+708074349
1658+709297868+713960306+722285317+731667126+734607146+730475951+727444930
1648+728855335+732050434+732410763+729785168+727288722+726644245+728435488
1638+732995205+739093901+742688107+741679739+739740446+740501204+744529677
1628+750392252+756274877+761425528+765852937+769589965+773230477+778035391
1618+784609718+791486004+796165964+798532171+800117570+801538661+802416444
1608+802060367+800234538+797893783+796755577+797852476+800697703+803827711
1598+805943549+806709189+806763595+807219865+809053909+812096593+814607229
1588+815212928+815240504+817094828+820591024+823026458+823160719+823033352
1578+824920652+828051809+829527191+829475256+830815055+834516349+838734006
1568+841514085+843403511+845585474+848443684+853060564+861299974+871817346
1558+876609794+873305883+869005268+866657675+865320979+864210062+863060768
1548+862127660+863090987+868089165+877205266+887371617+892878000+888476157
1538+877979294+870199660+868083592+869399664+870228615+869282868+868548767
1528+869247995+870578889+871721059+873226315+875913611+879672470+883422022
1518+885738706+885627540+883972052+884164855+888794316+896796111+905158637
1508+912008208+916383222+917663043+917470412+917676601+918428569+918843820
1498+918481825+917851997+917149725+916450210+916776125+918957629+922106308
1488+924498712+926049296+928006341+930163772+931002662+930725637+931571420
1478+934813916+939569538+944550366+948934974+951310660+950719266+948516563
1468+946757665+946865614+949499423+953728514+957384537+959439879+960452499
1458+960250446+956835369+950261444+943839188+939730686+938103062+938019127
1448+937920599+936439185+933229724+929177351+926197000+926340971+930379211
1438+936590797+940395731+938398356+933443496+930302515+930722592+933692716
1428+937130140+939601596+940932202+941596903+941958667+942067018+941513485
1418+939590335+936744821+934497939+933581607+933660831+934660236+937298240
1408+941456379+945007843+945019448+940777029+936037378+935710945+941079620
1398+948453655+952633798+951952839+948012896+943092622+939711441+940041148
1388+943684532+947115695+948261139+949535387+952972467+956766084+958527281
1378+958448632+957947665+957960936+959193015+961869281+965097414+967691066
1368+969771342+972594336+976435809+980006231+982118679+982931831+983255391
1358+983783130+985157456+987608631+990226757+991627626+991781478+991655891
1348+991827208+992370458+993392499+995677184+1000887123+1009910500+1020275111
1338+1027125832+1028644014+1027102622+1024029030+1019699114+1016499132
1330+1017692949+1022905991+1028498550+1032431598+1035332265+1037388527
1321+1038307272+1039261522+1041034209+1042119215+1041123716+1039402160
1312+1040261732+1045691016+1054424958+1063018377+1068393313+1070041448
1304+1070478875+1072167684+1073741823+1072245817+1068772830+1067441132
1295+1068975745+1070169218+1069960558+1070719821+1072773440+1073205122
1287+1070102231+1064350764+1057828775+1051787644+1047284344+1044868443
1278+1044000713+1044172490+1044965304+1044568093+1041119120+1035856671
1270+1032077475+1031013610+1031122765+1030882738+1030088774+1028517278
1261+1025729100+1022406058+1019865031+1018466575+1017261153+1015278313
1253+1012241833+1008393467+1004608065+1001844475+1000116140+998304272+995102106
1243+989852526+982429026+973850889+965811062+958840787+952024824+944810731
1233+938025733+932141787+926147019+919110734+911778407+905679711+901159520
1223+896822539+891390898+885833097+882495119+882042353+882354423+880988427
1213+878000321+875406324+874457647+874623966+875129012+876218500+878170029
1203+879948461+880249099+879766229+880590584+883379969+886863411+889998533
1193+892890467+895622172+897952644+900123519+902863497+906225432+909369975
1183+912067210+915507967+920804024+926693888+930078574+930579368+931740669
1173+935488785+939420972+941529571+944237032+950927294+961149256+971164397
1163+977630431+980217648+981389175+983453020+987031600+992189949+997816978
1153+1000518062+997527888+991541795+989730157+997001643+1011285286+1023898503
1143+1026569368+1020427814+1012393387+1006498755+1003726777+1004611282
1134+1008575584+1013648447+1018717059+1023423389+1025988430+1024702577
1125+1020426665+1015601068+1012555857+1013177584+1018422453+1025975906
1117+1029994326+1027464214+1023196690+1025421281+1037187450+1052941132
1108+1063946429+1065706132+1058921595+1048040045+1039532343+1036927545
1100+1037276498+1035051103+1030299732+1027138816+1027684364+1031673829
1091+1037816072+1041997076+1039460645+1032921075+1031117250+1037910865
1083+1047405104+1049567879+1042829876+1035256315+1033725954+1038007496
1074+1043128273+1045840962+1043705074+1034084214+1021208104+1012609745
1065+1010099626+1009424815+1007308690+1006590561+1011873002+1021808230
1057+1028023435+1023490950+1011600918+1002862954+1003957728+1012456238
1048+1019699459+1019741283+1015299684+1012026969+1011626426+1012470141
1040+1013721064+1015476746+1017409030+1019298341+1020423448+1018642833
1031+1012106021+1002755752+995815869+995790016+1002795852+1010537512+1010603350
1021+1002852843+996322236+997925789+1005389160+1009932561+1005321368+994998810
1011+987532452+986910495+990804363+995151054+997330719+995713033+989768189
1001+981822465+975659080+973393470+974399310+975629091+973583400+967237668
991+958283462+948620606+939543054+932856067+929947702+929450125+927636935
981+921938438+913737463+906858994+903429785+902371263+902380110+903964877
971+906969701+908403948+904939464+897157991+888663100+881799338+877009763
961+874801545+875586316+878073972+879631853+878724655+876490584+875658876
951+878044271+882896237+887431825+889383872+889301488+889910346+893139456
941+898321417+903203775+906674923+910130502+915305052+920954946+923618286
931+922796114+922983287+928782150+939525761+949622482+954054774+953480386
921+952419738+953877942+957718783+961735651+963026215+960243207+955600590
911+953135741+954285379+956051402+954567863+949684643+944606897+942334909
901+943566529+946923696+950353767+952636958+953984110+954560279+953470160
891+950692839+949272035+952577611+959267586+964289893+965811407+967125410
881+970117193+971605846+968763089+964500276+962954862+964349641+967590758
871+972944208+979710017+984274100+983266651+977395229+971034790+968620612
861+971932278+980424354+992271988+1003151585+1006448773+999448108+986921641
851+976579205+972915023+975569343+982545650+991977613+999964126+1001576872
841+996548245+990576285+989477260+994436142+1002744147+1009502602+1010901977
831+1007966611+1004451685+1004087565+1008032449+1014894315+1022903808
823+1030160243+1034377441+1035107519+1035253213+1037815727+1041841501
814+1044795251+1047452328+1051305751+1051482123+1042048551+1026841682
805+1014360142+1008698183+1010162821+1018327660+1032320489+1049555240
797+1063154649+1064421543+1053938699+1042805287+1040032275+1043921662
788+1044685521+1037118280+1026836397+1020909363+1019719682+1018867923
780+1014599020+1006774632+998684938+993867154+992938987+994854955+998126176
770+999577256+995393609+985149298+974862934+971129697+974327037+980040586
760+985112875+989146461+991065532+989931922+989927211+995252281+1002761267
750+1004760194+998038851+987629428+981380672+983991674+994401442+1006385923
740+1014123791+1017355716+1019054637+1020960838+1022781783+1022828778
731+1018185413+1010630352+1005928388+1007010178+1012686499+1018974436
723+1021067581+1016402041+1007325810+999889900+998207640+1002152639+1008935798
713+1013952359+1014157227+1012538622+1013782996+1017204966+1017962391
704+1013316729+1006357657+1001915714+1003442168+1010140071+1013869286
696+1009136069+999924600+994717534+996674751+1000137052+996983834+987547964
686+979474701+978367748+984497352+994719027+1006555516+1019166780+1031918682
676+1040916550+1036721184+1017224729+994472565+976904029+964724791+958292884
666+956948834+957396429+960019783+967078301+976427881+981860842+981097098
656+977394769+972873315+967275586+961220782+959481588+966250672+976296779
646+980224772+976666759+969433764+961214922+955024650+952880719+949639257
636+939428728+927378294+920864290+923554114+936220472+951552410+956102763
626+946519533+932521878+920534927+906816596+889168146+876818051+878524900
616+889374163+896803350+896230226+891590079+888455934+893673400+910522314
606+933484688+946888364+939990879+926443979+919394308
##END=
