##TITLE=<SNM>
##JCAMP-DX=4.24
##DATA TYPE=INFRARED SPECTRUM
##DATE=29/4/2025
##SAMPLING PROCEDURE=Instrument type and / or accessory
##ORIGIN=Admin
##XUNITS=1/CM
##YUNITS=ABSORBANCE
##RESOLUTION=4
##FIRSTX=4497.3318
##LASTX=599.83466
##DELTAX=-1.4281778
##MAXY=2.1706855
##MINY=0.50297493
##XFACTOR=1
##YFACTOR=2.0216084e-09
##NPOINTS=2730
##FIRSTY=0.5202629
##XYDATA=(X++(Y..Y))
4497+257350972+258353745+258869210+258599698+257805022+256567353+254712440
4487+252540989+251086555+251303614+253044513+255161891+256666094+257256241
4477+256926317+256060703+255653975+256269154+257158060+257367896+257079427
4467+257084498+257597840+258087329+258021728+257630419+257622724+257989060
4457+257788865+256541318+255077537+254448265+254784882+255587607+256371993
4447+256791016+256661170+256097676+255495175+255320985+255829079+256886898
4437+257927970+258253500+257693957+256831114+256496532+257110856+258233363
4427+258704130+257732286+255871506+254328473+253594091+253468549+253770728
4417+254161536+254071640+253659869+253873007+254971543+256061028+256376386
4407+256016861+255288140+254373583+253776684+254046225+254754189+254592264
4397+253139657+251760819+251842401+252899070+253477954+253342653+253420667
4387+254056868+254646897+254707457+254410497+254132317+253995365+253800507
4377+253285720+252509176+251767129+251187891+251010959+251965289+254254970
4367+256523805+256965737+255421731+253314997+251735817+250716976+250034426
4357+249730183+249836974+250161295+250565989+251280824+252617795+254303205
4347+255446556+255443195+254601492+253619034+252860741+252366976+252089681
4337+251854371+251477038+251093778+251028973+251335427+251815158+252314053
4327+252664998+252656477+252347635+252110880+252170526+252382721+252567142
4317+252764329+253044336+253217170+252851011+251707218+250249953+249510942
4307+250176243+251915049+253712085+254654740+254468756+253661284+253066626
4297+252976848+252941202+252611662+252257532+252210329+252420548+252664851
4287+252667003+252165720+251232706+250255938+249487945+248969296+248799381
4277+249102179+249873799+250997514+252118015+252595888+252150565+251436645
4267+251342828+251891315+252288992+251880700+250786882+249762203+249505871
4257+250030918+250846439+251635454+252300461+252546120+252160914+251614816
4247+251711876+252702914+254050234+254883180+254722523+253971660+253420019
4237+253275519+253250163+253322870+253542966+253494848+252879581+252178398
4227+252121494+252950608+254320807+255397731+255282568+254012613+252823208
4217+252876987+254009104+255067985+255299314+254972782+254724322+254761501
4207+254948723+255346223+256045696+256499039+255874160+254423322+253591585
4197+254168641+255054157+254593060+252745725+251153837+251231438+252821085
4187+254670367+255715743+255670073+254733875+253386908+252391595+252332126
4177+253046666+253852398+254281328+254420521+254676794+255330213+256232830
4167+256862898+256755429+255968950+255055218+254489425+254246213+254049998
4157+253855494+253842580+253996633+253899690+253142871+252033485+251523563
4147+252079657+253053329+253675378+254089536+254736145+255429633+255745286
4137+255664412+255320631+254739506+254176661+254111737+254618652+255197094
4127+255488807+255799742+256461506+257059230+256939703+256195238+255419343
4117+254823859+254330596+254131492+254470555+255094432+255425416+255252583
4107+255000703+255233271+255999613+256806083+257143819+256874898+256224928
4097+255597484+255322105+255407284+255494261+255068456+253871268+252300962
4087+251264342+251440626+252665293+254013969+254566702+254292974+254126774
4077+254881942+256295984+257469438+257905031+257737357+257277646+256707282
4067+256060320+255314587+254559154+254014736+253800802+253790512+253799888
4057+253849450+254107020+254616706+255215050+255694869+255960075+256040713
4047+256026856+255961667+255816814+255660432+255726416+256083258+256339885
4037+256043161+255366154+254953706+255077921+255455490+255800273+255973225
4027+255779782+255303265+255204318+256033254+257493615+258820561+259561017
4017+259736209+259493529+258803756+257649790+256457496+255894120+256180054
4007+257026444+258097089+259019518+259333962+259028481+258694636+258783884
3997+259153522+259380016+259128755+258425007+257802723+257828020+258386914
3987+258781820+258455464+257406254+256153164+255434556+255633041+256462420
3977+257412947+258296723+259089159+259565469+259526167+259179998+258897101
3967+258777574+258822507+259223634+260025209+260793851+261063363+260857713
3957+260529058+260423034+260768318+261484243+262142321+262405582+262319312
3947+262101663+262033054+262453434+263374802+264210195+264282932+263472482
3937+262317219+261846835+262948938+265299621+267211348+267281254+265956254
3927+264756323+264527441+264869541+264957668+264708147+264788785+265545338
3917+266389488+266376397+265223670+263601296+262497365+262393906+263112750
3907+264542477+267109983+270970323+274958917+277376528+277566787+275721574
3897+272473288+269319556+268074221+269289601+271264601+271674455+270923061
3887+271287657+273210441+274705740+274789975+274837592+275189451+274342058
3878+272352935+271339843+272382213+274637132+277174181+279420196+280242822
3868+279369071+278234712+277644241+276741683+275040735+273495284+272839830
3858+273113204+275129275+280347578+286604978+287281631+281976527+276025640
3848+272673778+272348660+274106158+276614372+278950814+281158647+283538695
3838+285299879+285242504+283712237+281952410+280522594+279373906+278597245
3828+278342239+278454366+279130753+281272248+284666981+286530974+285286818
3818+283497507+283293656+283331896+281806347+279443753+278026055+278787120
3808+281687852+284968600+287292127+289499194+292152056+293577861+292686154
3798+290942218+289511106+288327332+287648232+288162046+289867771+292113609
3788+294474551+296861705+299099140+301327170+304418809+308886338+313694964
3778+317419531+320321383+323760636+328617262+335123328+342775488+350101232
3768+355964376+360769936+365300943+369655785+373634532+376924980+379036696
3758+380091684+381273129+384027562+389455436+397480742+405475090+410514604
3748+413929828+418734828+425131185+429736875+430782399+431301372+434598012
3738+441590118+450242338+456400938+457722194+456283445+455582586+457162710
3728+460814541+465507030+469572607+471464551+470705845+467741665+463539549
3718+459476361+457035989+457266493+460062498+463422734+464513486+462828990
3708+460203784+458306710+457863863+458738677+460176423+461749648+463611725
3698+465477871+466596250+466933190+467754372+470756764+476188943+481105804
3688+481594114+478107570+474296291+472748039+474239564+478156277+483127182
3678+488108407+492272842+494483948+495094764+495740104+495844182+493003509
3668+487465100+482072017+478328049+475939539+474047005+472231129+471130677
3658+471561346+472698418+472888028+472719705+474580308+478919169+481664345
3648+478927425+473552297+470122804+469673058+470830797+472194569+473059948
3638+473021914+471998561+470570220+470047591+471981077+476937948+482480809
3628+483807314+480077056+474972029+471876705+472782741+477872849+484249511
3618+487903435+488425976+488066392+487910187+488065655+489212250+491206945
3608+491994279+490749180+489634310+490422057+492317333+493693429+494515820
3598+495853794+497568688+498097332+496880478+495849489+497264062+500919578
3588+504210321+505184523+504546672+503587977+502940867+503224914+504562180
3578+505975042+506540187+506698810+507532552+509534500+512895415+517656160
3568+522402222+524303630+522483833+519242151+516847066+515647312+515024143
3558+514669512+514863398+516023702+517823627+519135891+519475780+519501136
3548+519582747+519429726+519233482+519443171+519645548+519149159+518131202
3538+517182414+516410765+515458085+513892969+511853045+510563071+511295566
3528+513598367+515383904+515083052+513128631+511093072+509900807+509141718
3518+508062494+506721807+505796489+505519636+505442860+505397043+506030885
3508+507856284+510090741+511082399+510165630+508662488+508440535+509755452
3498+511035991+510976375+510292469+510389412+510825595+509973278+507977580
3488+506719331+506869108+507201803+506789443+505904458+504938157+503999865
3478+503145839+502353433+501557194+500770036+500061305+499461369+499145657
3468+499292132+499428701+498733533+497327098+496288503+496098509+496032348
3458+495435596+494702452+494397295+494315301+494123126+493941388+493625204
3448+492505204+490495708+488603763+487843318+488131345+488383667+487784557
3438+486784408+486415714+486916024+487510977+487392010+486397640+484727797
3428+482640258+480673041+479585621+479635389+480177950+480449643+480503863
3418+480856519+481659745+482658773+483482167+483739884+483098583+481494282
3408+479438113+478023217+478036543+478969410+479647684+479886090+480385221
3398+481122610+481314785+480844047+480306027+479723487+478487586+476724545
3388+475589302+475931372+477506808+479487322+481036694+481621593+481566370
3378+482005914+483626814+485709961+487020603+487265583+487007630+486706925
3368+486548155+486598601+486559653+486128217+485978558+487261721+489771881
3358+491811893+492498629+493011027+494631927+496644490+497224907+495868064
3348+493909339+492874341+493041838+493492763+493309580+492529882+491683579
3338+490962170+490604444+491525841+494160688+497024948+497861639+496055876
3328+492995165+490590469+489882032+490459708+491044931+490822447+489934484
3318+488940350+488448679+488593031+488574604+487612666+486208266+485574335
3308+486151510+487537748+489118462+490250344+490698939+491000146+491740218
3298+492643571+492791344+491758262+490377684+489969393+490691480+491318423
3288+490978681+490177666+489709493+489730309+490235956+491299288+492433529
3278+492741015+492173718+491728188+491881298+491852286+491086769+490325970
3268+490509860+491543944+492673615+493477284+493856327+493562344+492349028
3258+490531796+489086088+488899456+489959339+491361027+492085944+491878172
3248+491328683+490869179+490116428+488785767+487566023+487192729+487361494
3238+487521355+488020958+489295217+490472121+490148920+488315265+486220531
3228+484604525+483202012+481731715+480541956+480139179+480581258+481502184
3218+482443394+483071074+483235358+483002731+482578518+482077766+481440740
3208+480651194+479722691+478381651+476418090+474494186+473754291+474421744
3198+475459691+475754706+475089964+473858221+472531127+471597258+471358026
3188+471541032+471561582+471300916+471107709+470867652+469869273+468046438
3178+466417519+465643747+465183181+464567560+464291798+464668836+464993983
3168+464541054+463453368+462238577+461106666+459940376+458507553+456808551
3158+455379295+454893403+455379708+456145697+456470549+456155279+455408072
3148+454484463+453671418+453269496+453164003+452774404+451814766+450611357
3138+449426669+448217451+447181716+446736245+446935762+447442293+447800079
3128+447507482+446319581+444662327+443376540+443004897+443404196+443965272
3118+444186371+444007787+443506091+442564468+441203055+439822949+438764423
3108+438004184+437467431+437232888+437291620+437469879+437644717+437724943
3098+437462213+436705983+435868998+435568971+435700616+435507940+434673991
3088+433657155+432977082+432846734+433285394+434046046+434721490+435092897
3078+434995866+434131342+432587218+431106101+430373989+430445517+430928933
3068+431246326+430863715+429759135+428503067+427710868+427589247+427803830
3058+427626573+426602219+425127883+423990015+423496663+423477322+423826528
3048+424530335+425336244+425914008+426246261+426488706+426644764+426615457
3038+426347862+425821636+425114674+424452203+423913859+423250209+422265097
3028+421049186+419669817+418174371+416976769+416625264+417105790+417822983
3018+418236316+418205889+417838108+417255715+416531299+415806381+415356842
3008+415304921+415307074+414838016+413839489+412853080+412441929+412621839
2998+412909542+412822594+412295277+411670014+411318302+411291797+411324936
2988+411086825+410412119+409467724+408729244+408516135+408540725+408272776
2978+407684634+407158466+406729418+406018299+404992972+404196055+403950514
2968+403826653+403281114+402467716+401959357+401947416+402151355+402256936
2958+402097193+401680971+401281702+401207638+401348306+401214862+400557462
2948+399733243+399268697+399220521+399196845+398900946+398422365+398069857
2938+398066909+398281286+398268490+397812700+397213265+396761515+396379140
2928+395984323+395646439+395306225+394880833+394515441+394283463+393974325
2918+393511371+393111748+392858158+392566210+392143884+391707230+391346790
2908+391098095+391070469+391305189+391541944+391428254+391014184+390704929
2898+390646315+390554768+390208540+389674088+389057847+388448447+388030072
2888+387952176+388146976+388379720+388378600+387952530+387149422+386214108
2878+385334518+384579351+384052564+383871534+383954118+384033517+384000555
2868+384054362+384323019+384520501+384272631+383639585+383004593+382603790
2858+382454632+382551014+382835238+383070961+382972514+382464981+381741950
2848+381125887+380883176+381009780+381162565+380995981+380565282+380118957
2838+379584387+378755362+377948922+377794574+378259651+378533025+378086169
2828+377265340+376589218+376046304+375409160+374805362+374594612+374856929
2818+375260208+375439174+375377730+375305141+375293525+375163383+374807662
2808+374367469+373999600+373689755+373367173+373015726+372611504+372082978
2798+371419091+370776994+370366049+370207603+370149048+370072214+369844363
2788+369215091+368198314+367352336+367150372+367317928+367280454+366981164
2778+366755348+366693580+366606750+366395558+366125250+365858186+365586464
2768+365288678+364972022+364605745+364072561+363332253+362611817+362260193
2758+362390600+362768906+363021169+362895392+362394551+361708021+361022966
2748+360461978+360133941+360044959+359986522+359718957+359228111+358627586
2738+357950580+357255205+356754570+356619033+356782521+357066951+357337612
2728+357486299+357431547+357165220+356733342+356247774+355887954+355691710
2718+355418071+354897210+354397962+354307063+354548506+354657979+354372871
2708+353862242+353396398+353065708+352842811+352664051+352384220+351860028
2698+351149469+350494605+350107837+350059749+350289044+350595439+350686721
2688+350366881+349724754+349102529+348825735+348933528+349168513+349218724
2678+348997832+348715554+348594228+348530337+348235499+347693411+347189592
2668+346896730+346736780+346646000+346713164+347004729+347367556+347465088
2658+347065406+346290278+345485341+344913356+344694144+344871873+345306198
2648+345594844+345334296+344502175+343517182+342885963+342784215+342989363
2638+343192477+343270933+343242599+343142207+343050837+343087456+343237174
2628+343299621+343130089+342798013+342367108+341726396+340892919+340284374
2618+340335853+340952536+341640893+342065253+342171247+341929274+341345142
2608+340660676+340214026+340082764+340064632+340009497+339993281+340103462
2598+340232984+340253004+340229918+340239677+340113015+339648173+338986852
2588+338517913+338412214+338423300+338235901+337927648+337871304+338202702
2578+338683759+339074920+339311557+339353513+339180797+338885782+338564969
2568+338216559+337827256+337466787+337290120+337420586+337726745+337858538
2558+337693104+337526580+337629213+337879059+338030045+338091696+338207184
2548+338341571+338360941+338320814+338391605+338541146+338570099+338429078
2538+338249257+338110359+338000886+337956129+338054104+338280657+338487486
2528+338532714+338476311+338564055+338924140+339332314+339424834+339131559
2518+338725892+338428312+338184628+337905889+337678893+337620339+337733202
2508+337968837+338246220+338436449+338508596+338588261+338710796+338691690
2498+338441403+338239262+338449216+339054547+339681372+340017576+340037153
2488+339873400+339649205+339449070+339365719+339492499+339799278+340046057
2478+339957665+339522101+339045083+338895630+339188639+339673588+339983994
2468+340040131+340072239+340215205+340310762+340196660+339964181+339804202
2458+339759917+339740399+339675033+339604125+339690483+340105172+340777756
2448+341328159+341404905+341053930+340651536+340526289+340687860+340883691
2438+340910698+340812488+340722444+340680636+340709678+340859455+341098687
2428+341361800+341675802+342058590+342403845+342623410+342778702+342962120
2418+343148074+343256545+343308820+343403079+343549142+343690900+343895901
2408+344295023+344819598+345229422+345416143+345515621+345733595+346152117
2398+346686451+347178712+347498847+347570463+347428263+347281493+347363576
2388+347679082+347974568+347915482+347252422+345894281+343856333+341173192
2378+337977210+334623490+331513365+328760052+326189214+323634799+321099578
2368+318699953+316603155+314980191+313883424+313192944+312934017+313673677
2358+316142677+320340872+325532227+331139422+336826989+341711507+344511286
2348+344564593+342498193+340121771+339113839+339523663+340373563+341136396
2338+341811958+342342519+342561318+342508011+342587234+343332171+344905631
2328+346894607+348661864+349833933+350520049+351171317+352175210+353574274
2318+355175921+356753126+358114480+359217910+360269065+361538401+363069670
2308+364622374+365809184+366319814+366201112+365890648+365802816+365961026
2298+366201790+366559193+367161694+367868007+368332052+368431943+368400189
2288+368492856+368693641+368824962+368877266+369062925+369455325+369740197
2278+369583284+369148517+368908194+369001894+369133657+369080055+368977806
2268+369051279+369276506+369413192+369279277+368897846+368380966+367799251
2258+367255688+366960054+367062245+367453671+367840646+367989008+367886405
2248+367756263+367893363+368357349+368879860+369219985+369486371+369900382
2238+370393941+370708031+370766439+370674154+370476908+370224055+370133864
2228+370352840+370639658+370624120+370310413+369978957+369673564+369186845
2218+368519009+367941421+367601356+367409416+367283756+367178175+366939445
2208+366473690+365980603+365734620+365747003+365874019+366089634+366418054
2198+366773540+367084535+367408325+367773216+368110246+368451196+368952125
2188+369602832+370139761+370375425+370445980+370646469+371151320+371935677
2178+372845575+373677165+374246497+374472225+374449434+374415675+374536440
2168+374715584+374764291+374775966+375092563+375806218+376533111+376833580
2158+376699075+376500708+376576953+376962336+377438351+377761818+377842397
2148+377747636+377608856+377553102+377694034+378113235+378753268+379347720
2138+379647010+379754095+379984540+380359839+380587159+380601842+380704475
2128+381027588+381303408+381342239+381354062+381590551+382002174+382435202
2118+382885744+383427862+384124268+385030157+386053421+386890466+387343218
2108+387565231+387827755+388260016+388904089+389751600+390670492+391506416
2098+392226852+392824281+393224818+393448659+393707291+394183424+394808687
2088+395374510+395795656+396135456+396410629+396537055+396501380+396461252
2078+396613919+397007439+397501558+397910262+398173434+398368351+398585853
2068+398847462+399122841+399400696+399764083+400329907+401037222+401648038
2058+402095808+402616845+403338902+404002140+404348810+404548799+404938368
2048+405548682+406212627+406976905+408049702+409358280+410467017+411065862
2038+411356395+411784028+412526577+413449743+414480585+415742903+417260433
2028+418787102+420084713+421192182+422277509+423406237+424610059+425979079
2018+427476943+428840096+429910210+430946299+432371397+434271951+436304827
2008+438128576+439799067+441550639+443307754+444809717+446163405+447745180
1998+449600034+451532606+453649600+456078208+458293796+459535122+459836092
1988+459933831+460387144+461341386+462797796+464617122+466453578+468044109
1978+469476814+470995052+472687892+474537291+476612241+479008417+481648630
1968+484256735+486542907+488467873+490334490+492473745+494833007+497116584
1958+499341783+501831216+504577865+507137941+509329883+511558561+514229084
1948+517245863+520327095+523443529+526581311+529379439+531495784+533103888
1938+534591226+536153217+537977673+540338085+543197952+546066665+548489228
1928+550546311+552791147+555665520+558946828+562004059+564691682+567380248
1918+569969985+571768731+572670758+573517473+575030167+577088370+579105709
1908+580731032+582049841+583311687+584585917+585679116+586500357+587459111
1898+589089563+591192110+592900282+593906976+594936196+596539700+598167617
1888+598934018+598768614+598271105+598023265+598372234+599296433+600378723
1878+601248789+601882749+602331905+602711008+603619874+605777261+608740203
1868+610622624+610144692+608123226+605998095+604317284+602948175+601787576
1858+600892566+600260080+599742404+599218478+598831651+598804997+599001890
1848+599191235+599662385+600603390+600867092+599008848+595543207+592171266
1838+589854726+588482433+587705241+587762852+589083077+590916024+591271598
1828+589383340+586721191+584512797+582483193+580226741+578071241+576325743
1818+574840822+573476372+572520331+572486543+573439989+574525346+574607016
1808+573555212+572326328+571870096+572434652+573594484+574598643+574972084
1798+574937706+575131414+576056733+577616366+578694410+577970584+575930778
1788+574547813+575114432+577268516+579604398+581158664+582040052+582813942
1778+584009450+586107810+589414416+593599165+597354985+599359410+599706847
1768+599166233+598319164+598059294+599224964+601394793+603266187+604607522
1758+605984886+606964396+607110694+607821961+610904725+615846088+619657101
1748+620480760+619722850+619554439+620694045+622605007+624492440+625904536
1738+627290037+629944638+634335185+638121727+638435080+636501947+634645059
1728+633452205+633318407+634860645+637672394+640707808+644023966+648451131
1718+653298735+655723716+654482744+651850551+650159421+650004100+651095118
1708+653289536+656442649+659826914+663117657+667233238+672214286+675166083
1698+674094938+671013706+668041624+666095872+665915195+667649431+670537720
1688+674011322+678739929+684761341+688458253+686703909+682685330+680423688
1678+681204537+684443801+688260063+690775264+692135233+693515899+694598956
1668+694005742+692346219+691936866+693789744+696288671+697177430+696928705
1658+697806378+701143646+706911969+713099375+715213656+713386783+712412049
1648+713415382+713657798+710793921+706780590+704424836+704458801+706771332
1638+711316786+717097905+720519379+718837389+714838092+712386988+712502505
1628+713880282+715240605+716874949+718904258+720003295+719805577+719903168
1618+720963228+721107581+718854608+716348310+716064263+717856110+719931945
1608+721121143+721864075+722862514+724053717+725256242+726683906+728419085
1598+730071532+731325595+732476229+734162936+736612036+739306086+741545909
1588+743199595+744674432+746353710+748368749+750823391+753959521+758089962
1578+763219962+767879046+769250808+767600543+766663194+768440889+770931973
1568+770515603+767105097+763565629+762159489+764199648+770518552+778994488
1558+781662887+776033668+768995597+764344237+762057063+761186878+761164589
1548+762225769+764927485+769361019+775106463+781494240+786444389+786195487
1538+781600087+778133680+778362651+781326359+784345911+785683295+786120008
1528+787254013+790070126+794926516+801921011+810291985+817480129+821702264
1518+824677059+828128606+831422121+834024358+836993610+841428913+847779423
1508+856108707+863760277+865629725+863144479+861722830+863457832+867676665
1498+873236067+879450067+885349062+890358768+895638074+902440334+909039333
1488+911312178+908761419+905567029+904997815+907103016+910575732+914558931
1478+918458337+921638162+924366767+928044043+933155939+937593483+939243867
1468+938690279+937924055+938580659+940901857+943967993+947228721+950474295
1458+952372460+950683512+945807485+940554125+936372324+933650264+932257215
1448+931441576+930966946+931537516+933026800+933858243+932980747+931730222
1438+932793819+936747358+940058975+939318402+935689185+932436712+931239258
1428+931691539+933140254+935529973+938368258+940445448+941062839+940580720
1418+939499491+937476963+934055548+930152840+927883710+928641443+931798742
1408+935768791+939738309+943223233+944994146+944153505+941701339+940113579
1398+941062544+943234790+943661774+942136638+942168834+945956909+950864601
1388+951811856+947480925+942662864+941965101+945144631+949787087+954984487
1378+960803227+966000096+968635002+968662009+968399957+970061014+973927634
1368+978426917+981225870+981312199+979666002+978169111+979118252+983518646
1358+988772478+990605012+988388776+986464665+988934875+995159666+1000831164
1348+1002969681+1003433402+1005992004+1011058260+1015754671+1018889268
1340+1022793037+1028933564+1034955212+1037745910+1036977563+1034189695
1331+1030532764+1027181638+1026321891+1029751326+1036471621+1042654958
1322+1044932874+1043649976+1042513554+1045394944+1052976755+1061746173
1314+1067093940+1067852144+1066661118+1066585522+1068524610+1070887912
1305+1071933878+1071825260+1071786223+1072587356+1073728378+1073741823
1297+1071792710+1068994582+1067150077+1065995728+1063570275+1059173891
1288+1054419573+1050876921+1047942224+1044170542+1040117938+1037830941
1280+1037413923+1036739098+1034691745+1032249663+1030243705+1028488477
1271+1027357361+1027760935+1029269325+1030335340+1029629853+1025660629
1263+1017748953+1008087946+1000652611+997842335+998839476+1001181549+1003040207
1253+1003402503+1001076823+995649568+989255776+984193884+979473768+973070718
1243+965339777+957464013+949243524+940504652+932458117+926215459+921745955
1233+918434278+915110926+910169682+903410763+896717533+891401373+886547696
1223+881376537+877290852+875745490+875719957+874763857+871776561+867772783
1213+864577921+863461901+864328606+865986479+867627781+869674191+872771049
1203+876759673+881171035+885744676+890231398+893974835+895950720+896016822
1193+895759370+897079653+900097023+903472266+906534804+909682197+912921992
1183+915550117+917300450+918743445+920553277+923315789+927445463+932567443
1173+937988860+943606698+949103535+953389061+956795911+962306782+972467598
1163+986215704+999315580+1007031248+1007152603+1002825801+999949835+1001119634
1153+1004716890+1008021667+1009301381+1008078983+1005683604+1004904760
1144+1007100122+1010382610+1012672319+1014922403+1018045442+1019827559
1135+1017812992+1013078370+1008949934+1007373731+1009031427+1013880329
1127+1019740523+1023776026+1025917138+1029099970+1035773209+1043904716
1118+1047776761+1044708208+1038394553+1034238992+1034580768+1038777842
1110+1044991016+1050759811+1053879666+1054129925+1052595353+1049975071
1101+1047256078+1046884818+1050396218+1054651198+1054644240+1050785050
1093+1048410898+1050638338+1054893083+1056384018+1053032774+1047391939
1084+1042718643+1038311644+1032433406+1026702232+1025648246+1030649637
1075+1036551345+1036510776+1029791306+1021239125+1014111835+1008866790
1067+1008006217+1014443115+1024053881+1027267495+1021578542+1014424481
1058+1011958812+1013754610+1016097390+1015434831+1010744081+1004627259
1050+1001122700+1001460348+1002702322+1002004029+1000509201+1000694124
1041+1002957180+1006767309+1012091843+1018096862+1021913006+1020466414
1033+1013545747+1004121789+997345003+997896703+1005212807+1012763837+1014274821
1023+1009541850+1002578726+997107600+995031234+996438200+1000305410+1005851425
1013+1011912346+1016168269+1016880597+1014378133+1009499865+1002630500
1004+995255193+989452551+984709614+977959481+968034123+957419787+949177716
994+944515094+943000453+942944434+941824640+938550231+935093259+933592417
984+932755785+929473121+923224979+916620437+911673413+907783619+903744401
974+899969947+897823588+897417478+896990671+895185144+892784457+890596938
964+887097391+880509124+872243584+865875502+863527591+864611591+867386309
954+870452858+872805250+873963726+874729833+876411410+878997432+881671492
944+885006225+890574000+898039409+904726624+909075362+912769030+918186379
934+925239959+931726153+936186871+939482980+943428675+948879989+955377623
924+961726364+966373655+967951627+966019143+961019756+955076535+951729714
914+952886067+956479963+958548780+957716512+955443490+952557559+948623362
904+944745067+944067412+947740913+952718953+955679891+956766958+957349498
894+957620749+958413214+961639505+967158985+971935239+973853158+974015024
884+973637632+971860645+968687837+966988156+968535347+970776821+970944938
874+971249977+975606027+983207298+989015719+989975947+987739543+986081317
864+987412922+991683765+996999453+1000174738+999150943+996507428+996903336
854+999959624+1000160703+995860200+992712512+995344116+1000634920+1001602696
844+997095452+992869130+993480506+997858374+1002342738+1005388176+1008107760
834+1012201405+1018736306+1026281321+1029505195+1024479273+1015576471
825+1011297668+1014662238+1021285945+1026078119+1028293884+1028931913
817+1028003056+1026259621+1026001226+1028521263+1033075090+1038399860
808+1042677248+1042814878+1039303479+1036757968+1035878408+1033357191
800+1029172972+1027539925+1030627112+1035100744+1037862666+1039516116
791+1040138105+1039563643+1038108678+1035574725+1031579909+1026127770
783+1020616899+1016248465+1012059647+1005503753+996634444+990287413+989713423
773+991421359+990762338+988772419+988495625+990309703+993645143+997947651
763+1002092008+1003892759+1001812620+998990669+1001208675+1010261136+1020673272
753+1025193488+1024718328+1024665021+1025234294+1021853095+1013856270
744+1007260042+1007338351+1013941301+1021646472+1025007740+1023756567
736+1020099518+1016255659+1014263500+1014730641+1016213556+1017665455
727+1019547581+1022033181+1025736697+1031891612+1038895187+1042265418
718+1041600972+1040583428+1038544802+1031359725+1020430444+1012501667
710+1012110948+1018971233+1027714115+1030786796+1028211565+1025544935
701+1023595939+1019046121+1013377099+1012756525+1019209697+1026593260
693+1024997480+1011257216+992489615+978358750+973876745+977893260+985929653
683+993519778+998152033+999159198+998051670+997448432+996872201+996348569
673+998534732+1001584770+996487261+980683487+970100640+971099374+975693476
663+980861569+984422796+981366213+972610240+965468209+963726189+966843391
653+973224918+982520739+994992670+1009393370+1019316900+1014375066+992887174
643+966450018+948960421+945625983+951876543+960904592+971055325+984116813
633+999025932+1006618357+1004577726+1000939193+993915332+975156577+951663434
623+942111871+953918235+976225599+987525786+976017149+958182179+949494667
613+944025368+940411129+942543632+948106748+953260983+960580507+978660782
603+1006791958+1026079535+1021938362
##END=
