##TITLE=<SNM>
##JCAMP-DX=4.24
##DATA TYPE=INFRARED SPECTRUM
##DATE=29/4/2025
##SAMPLING PROCEDURE=Instrument type and / or accessory
##ORIGIN=Admin
##XUNITS=1/CM
##YUNITS=ABSORBANCE
##RESOLUTION=4
##FIRSTX=4497.3318
##LASTX=599.83466
##DELTAX=-1.4281778
##MAXY=2.1223211
##MINY=0.38281468
##XFACTOR=1
##YFACTOR=1.9765656e-09
##NPOINTS=2730
##FIRSTY=0.39158598
##XYDATA=(X++(Y..Y))
4497+198114335+197494486+197424615+197769535+198621689+199715752+200346985
4487+200120049+199334629+198747423+199040370+200125401+201076481+201140034
4477+200576636+200198061+200438070+201148779+201913376+202251662+201768990
4467+200442217+198825270+197807607+197979389+199117765+200329495+200784046
4457+200299445+199286064+198384741+198208753+199037958+200407568+201242246
4447+200853691+199679972+198694063+198348976+198425904+198627419+198852320
4437+198981672+198847781+198438343+197881187+197369370+197191678+197487097
4427+197914991+198016058+197883840+197869034+197785684+197193050+196324144
4417+195944892+196385647+197318874+198346715+199321014+200049545+200065045
4407+199107512+197653919+196571768+196402504+197148917+198419676+199536883
4397+199900500+199527188+198910173+198360933+197961642+197889419+198140133
4387+198262792+197975966+197652004+197634031+197667323+197380120+196660274
4377+195541529+194340324+193676688+193882139+194735574+195895421+197040402
4367+197690829+197540367+196851205+196086729+195438216+195024360+195091969
4357+195622618+196139893+196301256+196362382+196728215+197359026+197866018
4347+197912594+197449463+196852833+196718671+197226206+197997753+198698903
4337+199283350+199595265+199340857+198605526+197900336+197602699+197687376
4327+197912805+197987802+197721874+197262905+197042874+197332836+198010449
4317+198807478+199536084+200036412+200214180+200189090+200178596+200213004
4307+200123743+199842662+199568366+199551599+199844788+200309652+200667826
4297+200538127+199788155+198902876+198623981+199206950+200285256+201330527
4287+202050720+202485881+202796786+202948047+202721321+202060174+201231074
4277+200567197+200109358+199615891+199076678+199005420+199774751+200849831
4267+201326878+201199878+201368689+202274731+203194328+203214683+202426007
4257+201618664+201196802+200972127+200711296+200404733+200249024+200605268
4247+201726773+203418173+205096713+206177959+206415149+205991824+205311708
4237+204688481+204245811+204017170+203969525+203904675+203589488+203126885
4227+203001045+203482300+204086333+204116187+203717740+203725068+204405696
4217+205079977+205197358+205084048+205270168+205645003+205726499+205420298
4207+205112515+205166599+205596091+206114874+206325134+206043571+205606630
4197+205585144+206049949+206510516+206674035+206705864+206664943+206380998
4187+205978465+205857058+206120724+206522397+206911149+207379497+208035186
4177+208810051+209507356+209970381+210044760+209549347+208698098+208247527
4167+208617809+209204005+209170653+208573043+208125337+208284016+208978938
4157+209854251+210516244+210762917+210744235+210821977+211144703+211455035
4147+211454190+211146979+210652939+210014318+209390804+209043893+209003078
4137+209129927+209470204+210159969+211041118+211684519+211877319+211965495
4127+212510151+213548727+214361694+214107270+212737962+211212900+210610329
4117+211061262+211822753+212314230+212633774+213066493+213581356+213842142
4107+213486757+212570523+211805549+212040100+213387078+215026656+216016169
4097+216293511+216582990+217158526+217226904+216047154+214152971+212852357
4087+212929058+214140698+215645134+216727345+217205026+217291769+217280113
4077+217354251+217442336+217264448+216766502+216330738+216284886+216459322
4067+216509998+216387943+216227786+216084879+216009429+216150618+216634662
4057+217436591+218339844+218978737+219067244+218624950+217929697+217384256
4047+217403013+218081018+218925391+219262381+218990528+218618723+218599770
4037+218904629+219169562+219132244+219004173+219285329+220112152+221010957
4027+221421089+221335055+221208326+221273010+221325586+221281936+221563424
4017+222570563+223880313+224431936+223635977+221986085+220495823+219837811
4007+220053108+220746326+221457140+222018216+222562375+223121687+223443433
3997+223345397+222945880+222399022+221756737+221193052+220967382+221059251
3987+221191861+221303090+221601948+222076583+222369243+222331142+222389764
3977+223059386+224240824+225258593+225544016+225146670+224595545+224325185
3967+224339117+224550855+225250662+226742779+228490330+229244810+228390364
3957+226690173+225443508+225380256+226495020+228443514+230637534+232166652
3947+232484478+232285662+232601904+233059109+232298312+230210077+228195438
3937+227313913+227816562+229794608+232789261+235176323+235412593+233915017
3927+232591742+232746516+233881303+234549100+234478416+234937867+236564569
3917+237873807+236882862+233777975+230527496+228508544+227824915+228527512
3907+231444635+237199768+244546999+250464219+252780566+251614763+247941471
3897+243011774+238852389+237504385+239379811+242050729+242216962+240535844
3887+240470376+242863122+245040074+245619304+246342950+247133270+245561707
3878+242444260+241571389+244262752+248517550+252458925+255283154+255505190
3868+253192130+251312558+251578546+252127439+250610715+247820547+246131996
3858+247260662+252722953+263200614+272939656+271261795+260219365+249124116
3848+242661441+241833382+245572729+251386168+257002660+261869965+265894087
3838+267463690+265326075+261261273+257658938+254957835+252694215+251187638
3828+250904114+251451636+253034627+257380330+264243457+268434581+266913379
3818+263779180+261696329+258422962+253020454+248477187+247671804+251269541
3808+257188630+261485058+263286467+265596994+269072313+270107587+267470867
3798+264164570+261397486+257947829+253690513+250120505+248301560+248488118
3788+250662628+254009107+256702641+257974698+259392738+262190037+264746514
3778+264686655+262518704+260923107+262153941+266778040+273064139+278065244
3768+280728713+282001071+282397286+282783490+285400519+291239620+297543933
3758+300483808+300647735+302378760+309237937+321295799+333515507+340184251
3748+343248579+348020170+354837159+357859661+354834264+351273302+352283457
3738+359497927+370983616+381535354+386073329+383997443+379258903+376701612
3728+378916787+384869455+390818564+394284836+396138143+397970190+400248662
3718+403101628+407106602+413561030+423686035+435624903+443340802+443637081
3708+440343058+438681119+441482610+448381954+455427976+458354191+457777946
3698+457301125+458770158+462067619+467068815+474430808+483899505+491206523
3688+490829246+484296594+477588196+474309310+474892853+478263049+483705574
3678+491573367+500633877+506028363+506171844+505740407+507190442+507162880
3668+502698937+496504119+492511781+491894856+493243146+494946127+497653834
3658+502917686+509319854+513816365+517847272+525969036+538952858+549357949
3648+548453159+539591374+531510501+527900868+527370068+526802901+525295359
3638+524778250+526622811+530084621+534634266+541912516+553441870+565072728
3628+567901330+562119343+555585455+552827599+554563842+559017773+562525480
3618+563305788+564487347+569524428+577161651+583137297+585619591+585874949
3608+584460347+580913920+576173148+572455739+571326892+572725693+575595909
3598+579121769+582803233+585718562+587069475+587612699+589286278+592842958
3588+596294756+597282293+596601559+595897666+594717011+592537601+590966733
3578+591803251+594436926+596699746+597599651+598714325+602985091+611507684
3568+619945721+620316998+611544957+601797380+598253487+600981368+604612713
3558+605052382+604073469+605499651+609540208+612918909+613415512+612260068
3548+611798988+612818973+614333571+615359950+616492114+618811687+621506699
3538+622249614+620288169+617526694+615854020+614799597+613149720+611922445
3528+613623044+618496862+623380089+624880695+622864608+619822385+617667581
3518+616847589+617173571+618159601+619224579+619809297+619314201+617776685
3508+616851087+618606749+622917501+627055703+628517046+627418777+625201250
3498+622505153+619538921+617281951+617016521+619178380+623122017+627629384
3488+631478573+634215381+636147032+637145003+637003030+636151374+634716206
3478+632359722+629879298+628929515+629368883+629292469+628329478+628232558
3468+629937679+632361531+633977332+633991988+632739623+631585083+631304816
3458+631359700+631042824+630488503+630500625+631400892+632685765+633857252
3448+634818856+635575703+635929610+635449531+633737233+631054464+628585861
3438+627493261+627865985+628721501+628409813+625797970+622206491+620561681
3428+621793117+624052199+625817210+627603330+629799265+630870816+629613566
3418+627784927+627848978+629272204+629401813+627518833+625634346+625366443
3408+626513021+628060007+628915764+628863655+629205801+631067914+633261919
3398+633381094+630926906+627529026+624862843+623803234+624412559+626079202
3388+627970445+629502714+630771001+632159609+633411612+633671734+632882621
3378+632549039+633674388+634853957+634214114+632481189+631796655+632432819
3368+632919411+632413640+631366093+630643382+630448637+630059327+629304893
3358+629812835+633035510+637341196+639039442+636680546+632695596+630550322
3348+631709023+635111185+638482528+639888686+638898073+637110204+636788081
3338+638590545+641125491+642751122+643544759+644806351+646526370+646612374
3328+643715319+639328515+636269886+636123933+638435183+641355397+643076984
3318+643288315+642934830+642498176+641518298+639832838+638310640+638072230
3308+639379659+641675650+644574876+648146030+651978091+654568221+654426852
3298+652060054+649577218+648204472+647187020+645516698+644030024+644377899
3288+646755010+650263380+654085248+657009202+657954823+657608696+657304607
3278+656995330+656302413+655650689+655192986+654863506+655237677+656557048
3268+657788786+658044566+657937996+658601541+660328918+662599639+664577489
3258+665063417+662887445+658540989+654846739+654434994+656751914+659064491
3248+660079229+660241949+659336194+657222644+655773061+656804927+659222688
3238+660205642+658385265+654652537+651217565+650369407+652588140+655771372
3228+657567564+658169350+659099653+660000643+658573497+653912276+648368097
3218+644907433+644084304+644333209+644392736+644511248+645244392+646305751
3208+646734022+645884476+644681084+645187157+648129988+651503743+652656895
3198+650878133+647174174+642478756+637398974+633411190+632798004+636483750
3188+642376528+646835164+647861421+646067159+642661017+638239232+633611544
3178+630030137+628353904+628508542+629530095+630008364+629050017+627237783
3168+626284803+627278251+629463632+630788793+629587029+625991087+621942267
3158+619529754+619203108+620014717+621015463+621509534+621034522+620008264
3148+619164267+618157490+616221075+613772073+611915932+611123803+611167167
3138+611585003+612011103+612624047+613907170+615417306+615605779+613571538
3128+610412973+608119696+607579065+608287240+609582848+611212098+612620850
3118+612694430+610815250+607642754+604564765+602619363+601633213+600409677
3108+598318985+596146088+594743850+593834295+592822210+591891365+591653678
3098+592295873+593263810+593603664+592941928+592140813+592403831+593711260
3088+594796622+594674251+593591843+592426267+591674064+591447896+591869412
3078+592660576+592820461+591606998+589531805+587683746+586457134+585556686
3068+584688324+583761158+582827538+582092403+581837407+582034927+582161098
3058+581939575+582056518+583255507+584794110+585066114+583718156+581825767
3048+580326307+579213563+578128743+577052065+576032864+574930976+573962135
3038+573809487+574601556+575483308+575796323+575773767+575666714+575371551
3028+574911858+574294029+573208967+571539912+569853125+569078788+569589082
3018+570491882+570223135+568220618+565495209+563304219+561974415+560985430
3008+559568536+557443527+555290714+554262406+554933792+556619372+557705398
2998+557238529+556141405+555834722+556122045+555747512+554452266+553238440
2988+553057205+553863989+554513301+553802411+552069426+550885816+550895526
2978+551098233+550388127+548765632+546949236+545665630+545207806+545032481
2968+544149704+542296217+540199976+538678382+538056210+538190463+538634354
2958+539098028+539806022+540804235+541253736+540475599+539111176+538138897
2948+537484217+536454160+534998185+533871810+533698837+534174573+534297970
2938+533413746+531863443+530529960+529915568+529676494+529060957+527850991
2928+526462624+525071905+523459482+521870218+521110597+521596948+522895993
2918+524113800+524642730+524642368+524474642+523941490+522701972+520931473
2908+518990353+517178239+516012179+515826541+516045471+515708452+514782431
2898+514221536+514706319+515796566+516354929+515700370+514228894+512855907
2888+512069688+511611744+510971238+510045761+509177881+508618131+508321460
2878+508258073+508348359+508051507+506807284+504986033+503574959+502826827
2868+502075107+500979039+500003171+499555299+499546886+499908663+500690901
2858+501458453+501403329+500396673+499251119+498645171+498381309+497941187
2848+497261087+496632643+496198462+495908635+495651920+495216111+494403627
2838+493291998+492208506+491421503+491006561+490887657+490800146+490366718
2828+489433220+488325662+487502805+486997155+486543975+486074904+485645729
2818+485157659+484579304+484007281+483226008+481905190+480369905+479308576
2808+478706730+477882123+476576745+475348595+474800395+474833959+474875694
2798+474677632+474543379+474712220+474919299+474799038+474407980+474040744
2788+473622998+472576144+470587167+468367167+467044057+466792258+466707701
2778+466126209+465376208+465011626+464909700+464491290+463568678+462590277
2768+462053144+462036257+462356209+462746815+462763461+462003810+460629797
2758+459296736+458423760+457803608+457038981+456122883+455353883+454810418
2748+454214904+453325824+452250896+451284497+450568270+450009787+449441805
2738+448744486+447854049+446847755+445996370+445506009+445304780+445291873
2728+445488699+445672860+445338795+444375895+443346863+442816787+442731537
2718+442553015+441804884+440540788+439333114+438696257+438585284+438577444
2708+438359690+437815470+436935226+435964546+435347742+435201969+435113071
2698+434737090+434286805+434096041+433995833+433490786+432459553+431350850
2688+430576332+430004671+429316911+428581625+428050313+427632506+427105415
2678+426618462+426490752+426700787+426857475+426489818+425397972+423953485
2668+422851778+422386718+422248665+422064323+421677577+420962918+419971852
2658+419192509+419082501+419399075+419478988+419093870+418575223+418198126
2648+417895393+417578457+417362965+417331603+417278710+416884184+416079842
2638+415088957+414170988+413467457+413008548+412696527+412318194+411733717
2628+411068935+410612530+410488318+410544046+410595280+410625858+410677696
2618+410689879+410516936+410014452+409190177+408385142+408067060+408256769
2608+408479318+408403084+408090219+407597054+406920964+406414258+406620704
2598+407490453+408230534+408193804+407607216+407159857+407121710+407173487
2588+407017703+406792109+406741538+406794521+406707040+406408710+405969884
2578+405430400+404864860+404396151+404006901+403580531+403182747+403030552
2568+403168725+403383946+403415278+403179370+402884025+402880859+403255995
2558+403683633+403828018+403692891+403454540+403231690+403127683+403192307
2548+403252497+403060255+402663286+402386185+402439139+402716299+402945452
2538+402933782+402691511+402344510+401972480+401621136+401401814+401414932
2528+401606873+401821129+401928241+401843293+401545596+401185146+401050078
2518+401261409+401570445+401666701+401634767+401827974+402330578+402851487
2508+403077323+402892469+402415557+401980712+401843353+401865488+401785093
2498+401662208+401695229+401805086+401772005+401599484+401462940+401451631
2488+401495357+401429587+401129116+400675605+400361896+400472386+401060000
2478+401898237+402608794+402889785+402704328+402289657+401984271+401999560
2468+402294934+402646821+402840541+402811441+402648690+402488262+402402922
2458+402400901+402502285+402748445+403136127+403552968+403775366+403606615
2448+403088300+402519835+402218701+402258175+402426051+402476984+402459373
2438+402654842+403123160+403546002+403617351+403348483+402975397+402798685
2428+402996234+403368205+403462954+403133262+402750436+402758397+403188236
2418+403660564+403807934+403664333+403540936+403562497+403584903+403565362
2408+403661649+403930698+404261657+404607090+404979030+405287492+405452865
2398+405554490+405662357+405719924+405751105+405955349+406467151+407158108
2388+407691863+407718038+407110130+406022506+404649850+403066769+401354892
2378+399642503+397942085+396183045+394455729+392977196+391750796+390529039
2368+389318410+388639304+388756610+388877383+388069091+386894377+387019704
2358+389294496+393018268+396928855+400415241+403603057+406311789+407616625
2348+406690544+403742044+400251225+398003422+397517855+397948719+398301601
2338+398231067+398053058+398287669+399127655+400222758+400969141+401087471
2328+400842125+400638333+400684019+401091754+401878485+402731076+403184858
2318+403180425+403113208+403319352+403836281+404591469+405475754+406273341
2308+406833271+407263321+407719275+408157165+408543127+409124408+410185133
2298+411595634+412860001+413646219+414078199+414438680+414791743+415020865
2288+415058379+414970385+414909410+414953799+414940892+414632641+414106003
2278+413736294+413740727+413948500+414019245+413753966+413215054+412590530
2268+411982200+411443378+411180723+411479022+412369579+413502980+414383887
2258+414735743+414667350+414492297+414475500+414785591+415418588+416035030
2248+416184271+415824876+415356528+415112237+415039049+414834805+414302497
2238+413616335+413137855+412935058+412753853+412490021+412306856+412247178
2228+412093685+411709412+411304632+411233646+411602178+412199049+412773695
2218+413215777+413512901+413722453+413924104+414146984+414498901+415208916
2208+416206887+416921999+416945189+416621317+416594991+417066233+417776429
2198+418478664+419214040+420203598+421526407+422927047+424016058+424628489
2188+424898021+425064540+425315647+425705951+426123909+426427938+426625096
2178+426783142+426874936+426950566+427296512+428106885+429152231+430017638
2168+430508844+430712636+430854397+431134815+431556029+431979445+432399785
2158+432957785+433668976+434362134+434901679+435329076+435791875+436405090
2148+437161876+437951231+438678405+439380459+440190530+441170167+442253962
2138+443397525+444667530+446107222+447671728+449404080+451478730+453895646
2128+456276164+458193340+459675009+461184058+463088117+465286254+467340940
2118+468889795+469946419+470807152+471703771+472673577+473674473+474568528
2108+475149990+475501756+476126400+477412660+479149355+480766542+481851061
2098+482371216+482621598+482928432+483253540+483125228+482031271+479912504
2088+477271501+474680104+472211984+469566247+466625889+463570547+460616468
2078+458008727+456053404+454819253+453987138+453209574+452456768+451918942
2068+451724076+451766535+451728026+451364349+450801403+450367644+450187796
2058+450162706+450227631+450382360+450628641+451076272+451858329+452790772
2048+453491349+453978634+454717659+455932359+457281735+458378255+459345799
2038+460705005+462880043+465927001+469603670+473554966+477455360+481123013
2028+484573062+487877579+490925774+493420612+495212914+496562742+497862089
2018+499086077+499774199+499634307+498879963+497918812+497025119+496319205
2008+495750409+495094553+494171398+493034198+491911231+491035209+490463669
1998+490078370+489909800+490293621+491338756+492425868+492797928+492535906
1988+492340195+492614521+493327462+494445272+495975551+497728288+499400179
1978+500872589+502264333+503729627+505336472+507196895+509545056+512419554
1968+515299420+517395420+518453521+518969666+519574769+520589749+522178771
1958+524520600+527556732+530771627+533560483+535824450+538005609+540530482
1948+543431457+546597500+550099296+553793003+556755736+558035422+558067930
1938+558283724+559445079+561244708+563338175+565902914+568961844+571898583
1928+574218639+576362767+578945720+581487722+583095019+584247810+586146832
1918+588428953+589508525+589289957+589395743+590841888+593133477+595173749
1908+596240475+596290835+595779214+595235809+595017422+595356070+596348191
1898+597818099+599301396+600285134+600799228+601622477+603160838+604395411
1888+604116411+602896916+602204421+602312620+602419672+602088744+601586652
1878+601203434+600942045+600828418+601404150+603671313+607796909+611463235
1868+610955293+605744636+599350429+594749037+592147930+590422242+588743536
1858+586845720+584772759+582776334+581102272+579889593+579344680+579789476
1848+581570047+584667335+587547864+587120619+582528454+577029991+573662509
1838+572451337+571642381+570315833+569668331+571365069+574790149+576820470
1828+575746386+573152154+570167105+566001282+560850755+556688550+554751832
1818+554486824+554905445+555883755+557747616+560080217+561565384+561325586
1808+559978653+558882856+559086709+561096885+564547115+567834565+569176190
1798+568656669+568383277+570540433+575336932+579667526+579469464+575461957
1788+572036515+571611562+573555275+576585738+580379863+584410711+587291360
1778+588895461+591459295+597266190+605729317+612332019+612829226+608972498
1768+604819219+601968363+600956037+602538365+606038412+609011459+610547407
1758+611882338+613209006+614129599+616323001+622056859+630386697+636779456
1748+638389045+637035116+635562434+635398870+637084089+640334387+643571718
1738+646032420+649931969+657310879+664585812+665207803+660430120+655419154
1728+652062587+650385450+650375559+651999261+655689288+662860184+674499426
1718+687897406+695432220+693176878+686378525+680811971+678643598+680316453
1708+685664017+693224645+700365445+706568103+714464605+724846717+732715596
1698+733983762+730948172+725657542+719578462+715819921+716023110+719284324
1688+724916557+734533319+748413850+758711405+757311338+750168427+745610640
1678+746235706+751230449+757667959+762644729+766667555+771398375+774815615
1668+773546363+770024724+769544284+773129974+776551616+775868228+773281717
1658+773745210+780335790+793962410+810388380+816707319+811974749+809129140
1648+811535622+812861265+807369618+799355509+794760570+794472101+797944586
1638+805306910+814034562+815819596+807186573+796796198+791473060+791265710
1628+793048211+794418846+795608487+796841854+796657603+795157419+794776251
1618+795856909+794655628+788754949+781944896+778051438+776825188+775794287
1608+773207112+769681794+766806934+765059595+763860364+762883562+762549739
1598+763313099+764866659+766169866+766334998+765483402+764423069+763688718
1588+763281014+762964620+762483457+761604419+760386553+759868900+761961402
1578+767615106+773835134+774413037+769556588+766196704+767846702+771667726
1568+772409977+769467629+766113716+765326352+770086845+783466189+802264988
1558+808761302+797017420+782994796+774352846+770743515+770208734+770658174
1548+771481967+774488848+781616923+792619518+805927212+818163958+820607893
1538+810862789+800244619+796328242+797712206+798690275+797518125+798210257
1528+803132506+810362447+817565730+825432437+834562306+841781028+844343295
1518+844396851+844366032+844084800+843478008+844567713+850592453+864073542
1508+883039704+894636788+887444060+874263683+868276155+870666715+878202917
1498+886144109+889181207+886177220+882773370+884816235+892687707+900880036
1488+903689156+902448854+901886873+903873950+907347943+910839124+914664129
1478+920589415+929438413+940017442+949575882+953840194+950765583+944983898
1468+942386712+944738311+948806732+949453450+947049561+947556719+955297979
1458+968367685+976266840+971024821+960240553+952782937+951288784+955174643
1448+962002970+967844303+969089370+965565621+960926293+959450294+962869704
1438+970082818+978201266+984087289+987196820+989142041+990781243+991972995
1428+993339468+996184233+999865455+1001721175+1001271855+1001072707+1001173186
1418+997547691+990205089+984916932+984925556+988319214+990943782+990889743
1408+990036579+990806091+993168064+996242253+1000735386+1006681299+1011176362
1398+1011767594+1009989616+1007918404+1005324475+1002529226+1001209312
1390+1001629562+1001903013+1000436845+998237532+997111399+997052957+996847115
1380+996438867+997323514+1000630686+1005515058+1008846897+1008583156+1006452900
1370+1005070383+1005735738+1009519730+1017401275+1027824278+1035872583
1361+1037530903+1034230426+1030739607+1030408980+1032777285+1034890835
1352+1035197820+1034890956+1035186361+1036479677+1039899812+1045971594
1344+1052271112+1055896426+1057443411+1059209689+1061325289+1062779033
1335+1064353883+1067136044+1069901439+1070899350+1070652074+1070550510
1327+1070650868+1070509498+1070408899+1070875949+1072273363+1073741823
1318+1072090258+1064881245+1055227814+1048609129+1046393411+1046356260
1310+1047630155+1051425065+1056838730+1060351261+1060267670+1058435412
1301+1057499862+1058266781+1059453105+1058985572+1055462425+1049343600
1293+1042585957+1036982312+1032590200+1027768912+1021270849+1013780062
1284+1007205464+1003264662+1002292926+1001868093+998160876+990622745+983094685
1274+978973250+977184839+973670799+966354071+957236024+949578053+944834749
1264+942064951+938869476+933214988+925268910+917085025+910224974+904508486
1254+899267974+894765191+891406333+888186492+883340839+876535369+868903273
1244+860941635+852268866+843427588+835850736+829755493+823904148+817756072
1234+812347111+808604492+806168276+804339094+803016768+802309437+801977665
1224+801522736+800531640+799050273+797767874+797552321+798676886+800813234
1214+803622837+806657703+809137343+810991433+813628305+818341213+824388207
1204+829813211+833723616+836615605+839035657+841052648+842884062+845322751
1194+848944325+852869627+855146501+855115862+854706469+856459116+861025588
1184+867109795+872922419+877216525+879840731+882190099+886669481+894631963
1174+904629108+913601624+920057167+924806986+928984932+933404245+938881960
1164+945023583+949460205+950563420+950156439+951144158+954436975+959032819
1154+963264141+965622193+965528770+963326020+959501498+954837985+950632356
1144+948186912+948563255+952401709+958805505+964905815+968684681+971579142
1134+975444495+978849069+979032657+976403144+974254975+974188271+974745547
1124+974555325+974303525+975583513+978943095+983998209+990539334+997147767
1114+1000673507+999266926+994428209+988853150+984484017+983059041+985620403
1104+990766949+995843474+999582173+1000669707+995872122+984753186+973120459
1094+966983118+967059472+970741840+975954729+981157063+984160507+983803946
1084+981294875+978476949+976046040+973905652+971794514+969482238+966668775
1074+962124317+955438022+949129940+946088923+945934284+945278157+942567465
1064+940509462+941611410+944370231+945236362+943182399+940570074+939696103
1054+940312726+940349878+938498199+935184997+931956290+930482764+931595508
1044+935312012+940990565+946946188+950734583+951007492+948763850+945776027
1034+942912024+940514890+938592285+937078712+936920093+938778225+940598481
1024+939492371+935973507+933354910+933954465+937801423+943170638+947331276
1014+948105432+945204939+939748333+932991896+925843617+918847322+911705376
1004+903955009+896416817+890199322+884846210+879405585+874263864+870329334
994+867691377+865647426+863085883+859002927+853634918+848458940+844287627
984+840652784+837350800+834900592+833203853+831256159+828423155+825086492
974+821839149+818648559+815230958+811787181+808552082+805133937+801462244
964+798757884+798161345+798791538+798482442+796683898+795530082+797457029
954+802395622+807836789+811712093+814461807+817650166+821678902+826024031
944+830770955+836497334+842976158+849096370+854187249+859006305+865142258
934+873532770+883410679+892597119+899570194+905025836+910158209+913931587
924+913697097+909113014+903246350+898807135+895841869+893431768+891775136
914+891524000+892271861+892881729+892618832+891345358+889257139+886868509
904+884950910+884495439+886627263+891661751+898440081+905301097+910891474
894+913378231+910980192+904947854+899581352+898347503+901498770+906907369
884+912203547+915956600+917711298+918227201+918957390+920490082+921735089
874+921165026+919004795+917469389+918315256+920395876+921092894+920554676
864+921669530+925029474+927888050+928942232+929933328+931304506+930904220
854+929102177+929684544+934227313+939775111+943019378+943787623+943206705
844+941777507+940197230+939676080+941025365+944390254+948956726+952290616
834+952872680+953413492+957512491+963895419+967771809+967716745+965994314
824+962387274+955195631+947535610+945950870+952945355+963876059+972202882
814+976935512+981189390+985057276+985926965+984808673+985858030+990748856
804+996023383+996582831+991206981+982969298+975751118+971059440+967464885
794+963855553+961588270+962284443+963771479+961637363+956099638+951489078
784+948567356+943410858+933987938+922996199+913372019+905452418+899573813
774+897693065+900796082+906442067+910596733+911967248+912665894+915135040
764+920230562+927443013+935295909+941300384+942948452+940698839+938731001
754+941005643+948215862+957875203+965098389+964935609+957300135+948131788
744+943259055+944142435+949219201+955447009+959299696+959425506+957822612
734+957121372+957502117+957434930+956358011+955921297+957705246+961891636
724+968960907+977625715+981739309+976627200+966335073+957767547+952868338
714+949301285+945029373+941546394+942399739+947968947+953962506+955844641
704+953278153+948727000+944289655+941659297+942383395+945990615+949037785
694+948195175+945308072+944149069+943763981+940919760+937834594+939627891
684+945190646+946920676+941109439+932537088+927134159+926029858+928253115
674+933371194+936713527+930267272+914254012+902635276+906659007+917442370
664+923949781+925039968+921009483+912297392+904101505+901795743+903416609
654+904093725+903378493+903968156+906449666+906716242+900215887+890928727
644+888906368+898685910+912320129+915471697+907920780+901207285+901239129
634+907421342+915681581+918300238+908340667+889991248+875443131+870916223
624+872920610+873447369+868165725+861196933+859972854+866184860+874169477
614+878025119+874782662+864752768+853818264+848045747+851285792+862553757
604+872462726+868262766+850803964+835655509
##END=
