##TITLE=<SNM>
##JCAMP-DX=4.24
##DATA TYPE=INFRARED SPECTRUM
##DATE=29/4/2025
##SAMPLING PROCEDURE=Instrument type and / or accessory
##ORIGIN=Admin
##XUNITS=1/CM
##YUNITS=ABSORBANCE
##RESOLUTION=4
##FIRSTX=4497.3318
##LASTX=599.83466
##DELTAX=-1.4281778
##MAXY=2.0936725
##MINY=0.37859207
##XFACTOR=1
##YFACTOR=1.9498845e-09
##NPOINTS=2730
##FIRSTY=0.38879767
##XYDATA=(X++(Y..Y))
4497+199395233+199301144+199573080+199583519+199457027+199873459+200678062
4487+200789560+199953105+199410288+200071022+201157786+201401247+200714653
4477+200055310+200266476+201397289+202698245+203218670+202655892+201549687
4467+200632424+200131303+199754655+199352774+199335381+200106680+201322519
4457+202149559+202085029+201238334+200093352+199261818+199090391+199306677
4447+199402065+199356519+199468124+199628133+199583228+199692418+200474860
4437+201526012+201780493+200888006+199508520+198312871+197451915+196963816
4427+197000299+197491898+198077449+198456603+198517236+198203666+197564590
4417+196864301+196399036+196349210+196990196+198602307+200755309+202173662
4407+201944446+200434999+198559405+196907158+195950523+196056579+196824638
4397+197217334+196762310+196066071+195861814+196046217+196005087+195559325
4387+195061031+194720607+194467777+194353299+194441870+194501983+194337098
4377+194161284+194331580+195031579+196221297+197544537+198477527+198823912
4367+198810324+198689885+198573405+198540116+198606648+198639692+198527277
4357+198403032+198513078+198900088+199385039+199775824+199914833+199690263
4347+199256728+199020329+199141272+199166628+198494263+197270691+196484184
4337+196898354+198125824+199129136+199390862+199045211+198302784+197542948
4327+197367898+197778232+198025376+197843954+197946953+198830056+199938631
4317+200460263+200257886+199657830+198919346+198258842+198005201+198423880
4307+199439909+200636352+201488825+201609387+200974101+200017008+199344291
4297+199217326+199416585+199691562+200135246+200948240+202037480+203022788
4287+203536916+203467404+202918994+201976604+200708738+199503797+199014673
4277+199452778+200243167+200707393+200820037+201056070+201760883+202792288
4267+203657646+203997657+203836700+203263040+202182237+200714958+199502085
4257+199160515+199672916+200550853+201378856+202078213+202806090+203669277
4247+204432476+204578470+203910553+202984822+202541536+202677688+203060433
4237+203648063+204505030+205171999+205037270+204185606+203271033+202795895
4227+202855733+203258241+203722481+204132509+204536744+204896136+205154957
4217+205380231+205446197+205032975+204266047+203692249+203484354+203386566
4207+203420482+203963787+205063329+206101505+206298227+205503788+204377392
4197+203628942+203322373+203269169+203674397+204783186+206189648+207192182
4187+207749732+208366921+209068601+209244308+208679986+208051258+208067016
4177+208645154+209252148+209643866+209910360+210073213+210010670+209673762
4167+209172686+208713138+208529881+208727459+209037391+209009008+208669547
4157+208565004+208846094+208933749+208506802+208101374+208182686+208364674
4147+208162985+207850806+207955548+208450877+208958081+209319200+209609859
4137+209915878+210303637+210766578+211152106+211347162+211463077+211643949
4127+211833335+211856995+211584846+211035808+210501154+210382442+210686398
4117+210979135+211068471+211312543+211992382+212769841+213092535+212838986
4107+212300984+211865921+211938444+212747755+213889466+214508718+214382471
4097+214279533+214751859+215237757+214956024+214041818+213217621+212931486
4087+213208160+213834917+214446007+214719548+214590275+214277546+214209760
4077+214755313+215819410+216839215+217294239+217101063+216537139+215932421
4067+215356943+214574700+213513033+212710019+212876234+213968393+215120772
4057+215662075+215741568+215745802+215735317+215713690+215785953+215837904
4047+215717740+215737778+216248085+216828042+216683439+215739169+214759990
4037+214537453+215235021+216354401+217244841+217717075+217962859+217901050
4027+217244413+216320914+216088381+217040476+218628178+219982919+220721052
4017+220849790+220375982+219392187+218276597+217435266+216943758+216641484
4007+216434475+216387064+216667161+217399210+218449476+219401189+219847043
3997+219690824+219149001+218559889+218187750+218119766+218302106+218670087
3987+219259276+220110114+220965430+221225337+220568256+219574267+219216832
3977+219807106+220872304+221819264+222321486+222328516+222057284+221825011
3967+221732587+221635059+221435433+221255309+221325036+221758494+222403485
3957+222929244+223094481+222946424+222792589+222963160+223482454+223971516
3947+224082999+223984493+224093606+224436261+224575607+224167199+223353349
3937+222608170+222465584+223258603+224783823+226197270+226569592+225820195
3927+224895351+224776960+225359546+225685343+225494001+225666773+226798518
3917+228217621+228797700+228258704+227215454+226288379+225563513+224932125
3907+224744543+225718479+228021846+230687065+232460683+232954132+232418408
3897+231075848+229278539+227931761+228106428+229730430+231105194+231273365
3887+231490736+232864888+234464313+235061006+235020809+234595390+232995399
3878+230602238+229303896+230063885+231950651+233756535+235145298+235697530
3868+235151137+234425507+234373968+234337195+233157931+230998250+228904322
3858+227809977+228892905+233670989+240851314+244362572+242102703+237846710
3848+234794007+233930927+234681868+235784405+236465436+237199075+238887820
3838+241140536+242300083+241671645+240153501+238898565+238356650+238369504
3828+238615793+238856702+239455657+241488495+245021914+247351738+246365941
3818+244262613+243692331+243919087+242863457+240932732+240178261+241695060
3808+244402769+245947461+245914830+246381898+248335502+249883282+249520452
3798+248336175+247143660+245430169+243315103+242010937+242203808+243399838
3788+244929277+246732990+248797175+250620024+251921576+253130674+254535639
3778+255643602+256071696+256346795+257375755+259631481+262818134+266135528
3768+269023804+271389637+273212791+274857763+277488287+282039417+287713779
3758+292524923+295895475+299262145+304351094+311643130+319199001+324285321
3748+327393750+331166672+336498486+340919762+342412443+342616669+344192648
3738+348701564+356004024+364150016+370702544+374576800+376380788+377615197
3728+379654286+382948845+386967109+390929432+394264770+396646009+398530056
3718+401141046+405309278+410970802+417706373+424765784+430640552+433917565
3708+434679755+434647689+436119032+440424485+446747170+452498045+455806054
3698+457100041+457820719+458741833+459957626+462020772+465821603+470539850
3688+473268346+472543082+469968437+468033128+468078247+469726275+472210591
3678+475967190+480816544+483642828+482848541+481540126+482531242+484603895
3668+485114019+484312182+483842928+484136873+484607227+485124076+486470792
3658+489218210+492570604+495282562+497648487+500933203+505155755+508240493
3648+508633082+508223589+508983853+510297678+510819265+510538740+510662450
3638+512176834+515214925+519260822+523476985+527504419+531650397+535155480
3628+535872612+534188116+533145431+534772031+538845379+543006641+544429962
3618+543746027+545135967+550439994+556245036+558293051+557393120+557486292
3608+559522141+560979515+560359895+558663661+557102477+556064989+555933790
3598+557260026+559962324+563197061+565982689+567870709+569438924+571760219
3588+574659927+576648701+577469521+578056432+578187692+577288189+576475134
3578+577028053+578095620+578096537+577083443+576467981+577324810+579367934
3568+581137471+581651691+581972781+583634840+586364772+588383686+588163900
3558+586088985+584333387+584849869+587827771+592313424+597505143+602535339
3548+605843746+606216802+604375001+602344960+601238632+600578785+599888798
3538+600206586+602714042+606114459+607579475+606254584+603944171+602672163
3528+602908823+603807470+604227539+603476721+601819613+600209276+599109367
3518+598418524+598826794+601566630+605877983+608354993+606832753+603626994
3508+602815467+605408576+608518961+608870924+606510807+603988006+602581436
3498+601575373+600613083+600630751+602560100+606339564+610583666+612860515
3488+612007170+610076171+609714242+610222471+608695157+605122212+603046319
3478+604658613+608222999+610343155+609446036+606737991+604358738+603428851
3468+603551674+603825749+604499536+606677343+609938553+611863683+610971394
3458+608578569+607059936+607943666+611328554+615452706+617185073+614954749
3448+611344205+610426728+612495774+613718139+611627206+608377063+606958511
3438+606908868+605554570+602446263+600086880+600591074+604028234+608885414
3428+612861187+613982188+611794109+607926364+604748667+603100853+602172677
3418+601558071+602016840+603852160+605914298+607073814+607891638+609421398
3408+610932206+610673720+608726397+607127798+606885330+606741353+605551880
3398+604227967+604510540+606929960+610125447+611920540+611716099+610973840
3388+610808832+610790124+610283424+609465844+608698397+608029563+607576479
3378+607815340+609509924+613203858+618136969+621879874+622635033+622013152
3368+623191315+626563915+629081581+628045254+624279240+620879618+619962630
3358+621162253+622816486+624249589+626210117+629001186+631572958+633181278
3348+634255204+634854037+634055960+631555045+628689818+627098249+627085960
3338+628056565+629646361+631519036+632905491+633519914+633988709+634261745
3328+632887089+629349237+625881936+624828125+625582367+625953099+625799646
3318+627034911+629609679+630291046+627256470+623256670+621767444+622645059
3308+623406516+623282775+624186496+627825591+633080158+636607556+635805016
3298+631019122+625238290+622176264+623831904+628837034+633314862+634380167
3288+632925789+631946197+633164649+635765033+637753562+637862507+636259445
3278+634305702+633470332+633832811+634083838+633489590+632860250+632926094
3268+633014070+632129668+630423651+628988714+628584112+629366600+631390343
3258+633845772+634726689+633326355+631917830+632603965+634008456+633486961
3248+631375609+630360191+631532486+633394339+634316279+634469365+634955279
3238+635716796+635166934+632264229+628284726+625481064+624835889+626074516
3228+628678752+631685510+633421545+633075695+631776543+630862979+630476534
3218+630199525+629760931+628845594+626984901+624164120+621398545+620189325
3208+620770489+621335758+620248933+618542855+618343611+619633288+620590014
3198+620316978+619585051+619392165+619875266+620351887+620134424+619284870
3188+618375096+617554643+616414201+614954504+613763563+612737447+610993159
3178+608766625+607604602+607875559+607974723+606543699+604257007+602654800
3168+602160633+601960594+601262353+600288631+599642967+599198871+598630973
3158+598438149+599409976+601076437+601727053+600370554+597670212+594767630
3148+592317398+590623425+590026426+590684928+592121455+593460835+594005685
3138+593583964+592351451+590474741+588382708+586896538+586400721+586402127
3128+586427070+586584986+586909560+587052437+586823113+586366912+585735493
3118+584634484+582713023+580250318+578113472+576731235+575788998+575099010
3108+574883015+575003698+574770279+573753822+572343340+571405321+571489812
3098+572281775+572965405+573150710+573006794+572617782+571809984+570550631
3088+569158001+568013891+567071531+565951265+564768577+564371678+565302850
3078+566988386+568282281+568551037+568025690+567284898+566619549+565827157
3068+564647405+563274338+562119712+561119273+559745473+557859225+556099775
3058+555307445+555880906+557534712+559241218+559626623+557994276+554999072
3048+552097285+550540870+550798683+552333639+553954248+554753181+554642952
3038+553866884+552527870+550901453+549618441+549033364+548707200+547985055
3028+546951051+546405652+546912841+548033047+548725296+548630657+548368198
3018+548320450+547911202+546482439+544273758+542208014+540962050+540461647
3008+540232507+539952868+539434736+538414549+536979857+535885512+535718181
2998+535972142+535618712+534589416+533948705+534232562+534396163+533288919
2988+531483249+530288335+529652514+528558108+526978767+525907531+525731274
2978+525833495+525742829+525754690+526116863+526245433+525318969+523560925
2968+522200269+521938360+522181806+522026397+521250513+520087939+518748131
2958+517418777+516418460+516099266+516447133+516824835+516478618+515490957
2948+514772051+514868097+515363303+515607850+515376203+514639079+513363098
2938+511829150+510693935+510402405+510648022+510613632+509878893+508916939
2928+508395352+508218270+507751737+506842360+505990055+505476263+504970236
2918+504180626+503279687+502439548+501559425+500722924+500336235+500524383
2908+500855560+500817319+500157533+498854987+497225911+495874425+495077602
2898+494451960+493654617+492908781+492453038+492100708+491682259+491457826
2888+491637904+491925552+491866066+491288142+490287550+489074019+487964359
2878+487341255+487352229+487590265+487331229+486291326+484994772+484225001
2868+484192537+484337217+483983450+483118154+482309897+481892671+481549786
2858+480822383+479815035+479152223+479216814+479604236+479511828+478629566
2848+477398245+476420457+475885573+475603580+475411611+475361938+475444808
2838+475373676+474888771+474068899+473154387+472334423+471768910+471480498
2828+471174601+470465661+469371897+468333920+467671933+467265558+466876271
2818+466536779+466414689+466512966+466756535+467109935+467323118+466902406
2808+465685207+464106538+462594936+461148231+459841130+459159824+459316884
2798+459737167+459729984+459262228+458636373+457858776+456793930+455621819
2788+454704159+454173401+453967585+454050700+454213476+453818870+452353732
2778+450315897+448847976+448337394+448115805+447673726+447301618+447211197
2768+446918872+446036396+444999000+444417438+444166717+443612575+442500684
2758+441248851+440444416+440269168+440345160+440067661+439217771+438250682
2748+437792249+437906269+438128195+438171021+438147667+438041992+437535384
2738+436491721+435145921+433731710+432345468+431191056+430526930+430295161
2728+430159346+429973216+429829025+429656100+429242542+428641263+428058081
2718+427407099+426467827+425379198+424546243+424148029+424030983+423978437
2708+423881321+423681282+423285025+422652598+421946134+421365703+420840051
2698+420147801+419306715+418567848+418085358+417783099+417473106+417027940
2688+416516899+416155857+416041990+415991277+415684738+414926308+413793845
2678+412639280+411900781+411778294+412025408+412095654+411598155+410669734
2668+409814403+409350865+409183993+409142940+409202273+409225627+408902612
2658+408160322+407268247+406396287+405462884+404496528+403759343+403461700
2648+403599349+403995972+404307891+404138023+403425385+402614071+402148486
2638+401911001+401492796+400914260+400620102+400786118+401064626+401081713
2628+400858840+400615150+400381394+400059051+399776600+399774797+399910581
2618+399703970+398923561+397773062+396640568+395991756+396159668+396893979
2608+397467165+397430117+396944845+396394616+396013765+395818128+395690444
2598+395596630+395658072+395847626+395824089+395362049+394757133+394449066
2588+394373715+394079312+393421023+392736385+392356238+392300053+392422785
2578+392549063+392466651+392046276+391427665+390909349+390606111+390407112
2568+390314979+390482493+390789521+390860195+390677397+390660034+390999220
2558+391424119+391645189+391603677+391364419+391091964+391011202+391169821
2548+391300256+391027495+390263594+389375004+388840517+388774153+388957777
2538+389227145+389509199+389593017+389294028+388824347+388616146+388779411
2528+389046089+389193061+389221490+389200398+389215712+389412389+389858411
2518+390393020+390749477+390818530+390703594+390542713+390383635+390223488
2508+390067773+389963780+390031672+390367556+390854601+391225119+391325659
2498+391131489+390621793+389917163+389355471+389179917+389321265+389554379
2488+389680595+389626153+389546553+389697377+390080276+390419492+390568115
2478+390685650+390909349+391105720+391093676+390876824+390525136+390120045
2468+389947884+390379325+391383891+392421715+392910961+392684817+392078953
2458+391673067+391793720+392201440+392377514+392087634+391552567+391132773
2448+390981826+391011630+391105506+391270055+391579895+392026926+392417161
2438+392469188+392137155+391722557+391500112+391413879+391312392+391233037
2428+391237714+391210538+391044614+390874746+390980359+391502771+392242830
2418+392729813+392650427+392252428+392110163+392447454+392906070+393039134
2408+392845086+392700804+392876419+393263750+393607001+393844150+394081207
2398+394394838+394803627+395241090+395528799+395636919+395864622+396403480
2388+396883525+396679726+395498414+393435085+390663580+387261787+383192108
2378+378332819+372634888+366350719+360054781+354325794+349384459+345060177
2368+341075202+337382949+334327251+332365011+331526339+331462787+332211283
2358+334481162+338924233+345631895+354409398+364418956+373315858+378077604
2348+377044059+371165134+363826298+358606578+356525458+356428678+357079264
2338+357784994+358267392+358608045+359000970+359610074+360659300+362279786
2328+364225153+366045311+367535791+368858756+370322886+372178656+374479777
2318+376946363+379139883+380966705+382754186+384705452+386660325+388503135
2308+390354962+392253406+394039267+395634168+397162338+398762803+400402272
2298+401864262+402925685+403586449+404051484+404474152+404856287+405197429
2288+405572379+406052149+406631479+407149734+407270571+406794194+406058966
2278+405690923+405843367+406008772+405663290+404777298+403657918+402643723
2268+402016736+401944381+402393002+403138929+403885560+404441780+404857693
2258+405331012+405940177+406562700+407086244+407568367+408087478+408527753
2248+408654825+408393772+407919994+407454653+407045496+406584037+406001405
2238+405367327+404760394+404149303+403525312+403041172+402854338+402943323
2228+403192087+403471512+403552549+403214311+402585918+402158420+402312607
2218+402952249+403661953+404150495+404476414+404846077+405330523+405912391
2208+406657737+407577048+408415445+408886747+409082201+409374831+409912680
2198+410438241+410701495+410893219+411439261+412424630+413503813+414351930
2188+414902435+415212458+415438816+415847087+416532214+417262246+417814248
2178+418292764+418930235+419684936+420187448+420118486+419586873+419039487
2168+418841649+419088824+419733387+420634479+421498706+422019987+422200615
2158+422450480+423211325+424444695+425686654+426686818+427682855+428912893
2148+430257592+431576584+432990153+434597862+436281136+437966855+439774756
2138+441803024+444056457+446591150+449425717+452348382+455101669+457711620
2128+460424710+463388611+466507525+469570958+472500012+475390672+478193509
2118+480525412+482089683+483149119+484309400+485973507+488219819+491111916
2108+494986539+500420726+507889263+517380200+528171480+538795736+547463621
2098+553095890+555926209+556757911+555985695+553616407+549674503+544206630
2088+537216272+528836585+519491246+509852023+500580751+491983693+484001975
2078+476640671+470183607+464922039+460940580+458123926+456114366+454434271
2068+452890419+451649805+450811806+450180999+449508068+448711856+447900726
2058+447327143+447210249+447529658+448075454+448654601+449221613+449919426
2048+450999709+452658834+455024453+458236509+462355159+467319052+473287329
2038+480886332+490740236+502729274+515913349+529203466+541912174+553567498
2028+563523225+571166583+576363682+579329846+580286450+579574515+577800025
2018+575464546+572548025+568673799+563720390+558152192+552632781+547438555
2008+542362506+537051448+531333832+525386525+519695320+514704985+510453363
1998+506664056+503185231+500223469+498143663+497060964+496641445+496394331
1988+496125086+495957174+496028520+496351566+496867834+497485619+498145130
1978+498964758+500240770+502120354+504288165+506248938+507974824+509852604
1968+511904898+513686327+515122975+516691251+518553044+520240719+521394673
1958+522309887+523595896+525601787+528206695+531007301+533708010+536302036
1948+538843178+541296161+543778674+546546450+549460892+551984366+554074687
1938+556373912+559158378+561840318+563854952+565456242+567277623+569555144
1928+572050557+574480430+576768712+578860317+580562298+581821834+582889402
1918+583971336+585070327+586281382+587801054+589593579+591316836+592537000
1908+593038137+593080932+593184926+593586165+594214283+595067872+596212593
1898+597542253+598761500+599504860+599673780+599783398+600458346+601518760
1888+602197193+602180442+601640239+600741531+599891182+599752341+600416712
1878+601106272+601034436+600211415+599258968+598755019+598867083+599283606
1868+599275170+598167252+595984921+593370720+590964445+588996947+587350111
1858+585878064+584520220+583168979+581724505+580311761+579157991+578259283
1848+577543312+577211524+577282381+576971563+575553989+573469476+571442370
1838+569574402+567792210+566374941+565660988+565554182+565448355+564607482
1828+562930995+561018948+559229969+557408649+555636360+554420720+553957549
1818+553897024+553997899+554444013+555274921+556033320+556194843+555666500
1808+554773295+553993070+553822010+554608348+556231586+558013167+559194143
1798+559571784+559610850+560087776+561587640+563832576+565650778+566516350
1788+567277623+568845104+571155639+573480541+575450301+577348287+579375576
1778+581221779+582720665+584484150+587279131+590738056+593385943+594452654
1768+594317481+593678604+593541230+594836042+597355542+599733388+601151268
1758+602064832+602921845+603755748+604963807+607302282+610882502+614500932
1748+616768243+617749730+618488016+619649366+621206149+622861483+624334080
1738+625807411+628295853+632569423+637031477+638705397+637984047+637300173
1728+637641743+638836780+640522744+642334404+644331247+647399265+652392413
1718+658627306+663442362+664829796+663649187+661833859+660931788+661937302
1708+665039617+669298208+673161246+676447949+680856020+687168189+692679836
1698+694748271+695071500+695483071+695421996+694711833+694691047+696589766
1688+700605829+706493894+713487675+718657752+719775329+719409365+720564847
1678+723870686+728625706+733552827+737430170+740445427+743756157+747292358
1668+749643610+750894710+752744642+755712334+758415916+759783603+760749439
1658+762707461+766296790+771723151+777867562+781047521+780882513+781691656
1648+785391153+789858343+791176753+788884682+785398123+782396072+781023678
1638+782339154+785839407+787855447+785250356+780181032+776000818+773925291
1628+773596071+774053862+774544727+774657463+774235376+773727025+773949012
1618+775014012+775669946+774530788+772096451+769575729+767387895+765500058
1608+763644012+761397548+759056078+757771415+757933671+758336133+757881583
1598+757102947+757040282+757732532+758636742+759599337+760621113+761215667
1588+760879599+760065810+759801944+760435869+761532232+762803628+764324096
1578+765793391+766164246+764988039+763962839+764778524+766751340+767275281
1568+765037437+761983237+760093382+759600927+760506727+763587277+769082356
1558+773922785+774820698+773149040+771006753+769309846+768355075+768158521
1548+768901820+771139114+775319083+781170650+787783122+793776526+796922493
1538+796600058+795274250+794686116+794549109+794150254+794202709+796379233
1528+801280431+807590828+813437014+818694455+824111524+828824605+831801896
1518+834194721+837020638+839617414+841666101+844176309+847950209+852967873
1508+859070894+865475502+870215055+872987172+875473047+878724046+882515615
1498+885733539+887395538+887893862+888804430+891786307+897651934+904800942
1488+909695659+911080464+910715601+910276518+910694020+912870544+917384197
1478+923825732+930639710+935909685+938802974+939960412+940420281+941155326
1468+942879195+945070880+946009694+945025028+943927504+945062016+949533668
1458+956117040+960009851+957974492+953586535+950630703+949807866+950386218
1448+951079140+950765815+949623967+949169355+950817598+954382533+958359224
1438+961583568+963771708+964794890+964711438+964375493+965124844+967622885
1428+971289858+974976578+977676125+979025532+979848186+981545032+984554908
1418+987600061+989428779+990675720+992288687+993711641+993799005+992718049
1408+991756738+991488654+990926442+989107995+986956048+986400989+988156954
1398+990661109+991325113+989424621+987077221+986074458+985065705+982085357
1388+978623375+978491870+981956420+985031835+986020230+987496006+991364424
1378+996461504+1000994538+1004862222+1008961186+1012956401+1015407856
1370+1016116979+1016124560+1015530312+1013574614+1010741728+1009108280
1361+1010638957+1016092463+1024431922+1031897739+1034097434+1031646468
1352+1029957631+1032069778+1035891915+1038402673+1039853444+1042219919
1344+1045774156+1049673203+1053910213+1058592054+1062287394+1063460849
1335+1063357773+1064981683+1068806266+1071242681+1069468253+1066122370
1327+1065593660+1068036434+1069802181+1068191721+1064064634+1060736970
1318+1060852762+1064090556+1068403498+1072125494+1073373047+1070578371
1310+1065945196+1064405410+1067649684+1072116568+1073741823+1072621312
1301+1071317757+1070783790+1069619749+1066448839+1061444565+1055429824
1293+1049484169+1045265744+1043538513+1042841189+1041041572+1037305148
1284+1032040065+1026030827+1020061940+1014646155+1009587775+1004501822
1275+999701560+995715393+992058569+987726124+983163745+979689047+976956364
1265+973157825+967372592+960038463+952009333+944285887+937397871+930886763
1255+924386599+918443572+913492547+908918980+903685566+897336164+890078395
1245+882235976+873750584+864342580+854385325+845132729+837590797+831446081
1235+825570182+819605391+814532704+811450075+810401827+810602966+811195747
1225+811635625+811798920+811650848+810726951+808704736+806561593+806014360
1215+807721049+810943436+814835758+819049048+823112736+826456663+829233853
1205+832158506+835474432+839040346+843051090+847597329+852001853+855473556
1195+858029004+859972170+861393901+862692198+864634752+867577439+871342964
1185+875961528+881544521+887310497+892020337+896064829+901742217+910304152
1175+920002555+927941508+933157315+937016868+941211389+946165348+951407933
1165+956738004+961872622+965880248+968366978+970019623+971173637+971824314
1155+973222018+976770998+981382653+983931132+982289370+977349533+972649597
1145+971880559+975778323+981282022+984655906+985041189+983605029+981207741
1135+978619340+977303925+978445407+981592351+984968008+987618830+990501481
1125+993888081+995609260+994580331+993568093+995217191+998012295+999078395
1115+998860320+999858742+1002698292+1005686404+1006908586+1005836005+1003996283
1105+1003386568+1003290461+1002056358+1001335619+1003403870+1006975530
1097+1008780099+1007138398+1003310086+1000905095+1003001468+1008257137
1088+1010601664+1005708597+996887259+991042968+990756788+993167220+994470897
1078+993156949+989289387+983305338+976185982+969594846+964991077+962559614
1068+960900244+957681342+952465412+948294674+948279634+951993377+955852685
1058+956545974+953815369+950465145+949838740+952364537+954574991+952986785
1048+948882441+946758434+948856397+953527416+957754889+959997073+960751744
1038+960775709+959625974+957409834+956602342+958770245+960905930+958814753
1028+953639540+950353510+950458176+951538826+951817120+952395655+955912171
1018+962779522+970434251+975741885+976262097+970666570+960354050+948938809
1008+939041590+931241539+925127024+919789677+914182596+907971852+901489478
998+894991025+888977080+884193937+880311030+875861631+870173605+864263836
988+859497016+856164277+853539744+851097766+849101656+847701995+846031621
978+842995089+838929261+835486170+833619364+832319784+830027406+826903449
968+824251710+822103126+819211365+815193713+810992223+807439820+804878931
958+803878186+804932242+807653737+811209869+815243295+819697584+824257151
948+828911969+834278233+840407910+846253975+851137137+855613620+860344247
938+865410208+871127947+878211721+886337080+894153393+900924943+906862162
928+912241143+916776133+919762288+920745242+919800865+917154935+912972397
918+908012691+904226747+903291418+904156440+903795061+901191499+899014852
908+900713288+906503535+912616582+915261840+914524227+913123894+912918353
898+914173364+916607579+919454099+921361560+921516664+920730203+920226254
888+920185415+920515124+922049041+925707394+930589395+934600567+936965819
878+937542887+935382993+930416012+924747977+921598893+922933199+927857996
868+933215517+936240739+937055140+937843190+940373145+944893523+949914366
858+953621933+955771679+956737087+956283637+955197362+955667686+958008973
848+959774475+959580061+958554494+957183201+954698243+951848850+950952587
838+953261166+957701028+962016598+964533103+964705814+963172691+961715806
828+962714289+967429265+973610052+977159093+977661513+979388622+984650465
818+989515592+989311457+985415650+982408647+981943765+983366107+986945288
808+993003863+999752915+1003778515+1003601708+1001461499+999883869+998177791
798+994486181+990224655+989645019+994777191+1001984828+1003849983+994988540
788+978751456+964910438+959336859+958201859+954243509+947676033+942706301
778+939571889+935353708+929904849+926498562+926197159+927276953+928521328
768+929949601+931653355+933792341+936992719+941321373+945416669+947804053
758+949180115+951472187+954641753+956591949+955030092+949166726+942571311
748+940644836+944086276+949613085+954934047+960193994+967194134+976063586
738+983557343+986347494+983624960+976821741+968046867+958966677+951663789
728+948904206+951834605+958060878+963858399+968760087+974810469+980194463
718+979525323+973738256+970945781+975171114+980683984+978738801+969284150
708+961197124+960929896+966972636+973803978+977809097+978289508+975808830
698+972279048+969097133+964072928+956257287+951965254+957899599+971066648
688+980239765+977971843+967786670+957463879+950167349+943609655+935556804
678+927834641+924686290+926549978+927203834+921416950+910473195+898610434
668+892455874+896415508+903812180+908990938+912787092+915825397+917799804
658+919076825+919420474+918887240+919919348+923858073+929002106+934868651
648+943143733+951462650+955690123+957338732+955847244+948635327+937531944
638+924059763+908618616+896151215+893465362+900764459+910602621+915524055
628+915185236+912826036+909971447+903985441+891536074+875324240+862357964
618+857287845+859404455+866601394+880378280+896869264+901679369+888369199
608+870769870+866142258+879356504+900660038+913369418+912496693+905682165
##END=
