##TITLE=<SNM>
##JCAMP-DX=4.24
##DATA TYPE=INFRARED SPECTRUM
##DATE=29/4/2025
##SAMPLING PROCEDURE=Instrument type and / or accessory
##ORIGIN=Admin
##XUNITS=1/CM
##YUNITS=ABSORBANCE
##RESOLUTION=4
##FIRSTX=4497.3318
##LASTX=599.83466
##DELTAX=-1.4281778
##MAXY=2.1027265
##MINY=0.38049382
##XFACTOR=1
##YFACTOR=1.9583166e-09
##NPOINTS=2730
##FIRSTY=0.39266059
##XYDATA=(X++(Y..Y))
4497+200509245+201414249+202584068+203363125+203006240+201564941+199852924
4487+198720847+198586561+199345012+200503889+201560650+202185089+202116652
4477+201388972+200594377+200440580+201123184+202235872+202985999+202706941
4467+201590858+200593783+200310859+200459710+200561657+200399308+199855253
4457+199208747+199400194+200922621+202654133+202902953+201521691+199925333
4447+199153885+198970732+198772711+198482178+198324136+198293121+198326708
4437+198674386+199481779+200225073+200215745+199562254+198976150+198778692
4427+198757173+198726661+198711808+198785586+198866517+198526448+197277145
4417+195436243+194296374+194854598+196645386+198226830+198604884+197919404
4407+197001053+196634398+197054896+197832903+198340952+198383107+198231654
4397+198151651+198132217+198016467+197740041+197446844+197396822+197733542
4387+198320468+198866669+199218289+199348588+199098019+198337787+197376185
4377+196772215+196809302+197343694+197877888+197822646+197204051+196873919
4367+197415403+198311109+198760841+198743112+198741270+198905583+198840996
4357+198055167+196663967+195535634+195481533+196461350+197732538+198615947
4347+198874324+198502936+197669047+196991999+197276749+198504336+199555025
4337+199453884+198508491+197784006+197769732+197903273+197462519+196743179
4327+196797630+197926465+199193970+199676544+199439853+199101519+199162925
4317+199847841+200988273+201977526+202242370+201799212+201104100+200454490
4307+199846943+199341253+199154829+199357582+199794212+200326595+200916884
4297+201491787+201900993+202050467+202071925+202225554+202467267+202331048
4287+201483767+200241327+199357674+199399037+200331419+201566692+202453434
4277+202755320+202599301+202160435+201588834+201072933+200771670+200745967
4267+201026897+201693673+202796151+204084900+204978901+205136898+204872038
4257+204644433+204461584+204148178+203840585+203878083+204422702+205304193
4247+206093264+206384117+206148126+205694346+205304346+205120980+205181244
4237+205333321+205327675+205140840+205092308+205474456+206108817+206516745
4227+206520017+206378258+206314478+206258779+206191696+206236149+206237123
4217+205851201+205228695+204966681+205278018+205797937+206222650+206588271
4207+206982532+207440924+208003074+208530283+208610894+207982545+207013350
4197+206431233+206485608+206760543+206975304+207297643+207591646+207263372
4187+206283782+205522029+205695152+206590234+207438641+207670736+207350862
4177+207092181+207483322+208609373+210185627+211845704+213116207+213506999
4167+212952640+212014430+211382488+211223944+211246467+211265033+211363572
4157+211589747+211873554+212223834+212695998+213158955+213306178+212986379
4147+212445733+212078956+211939738+211765488+211488256+211317765+211316852
4137+211329803+211309745+211392274+211739648+212477189+213563078+214577396
4127+214940018+214565297+214035882+213918198+214155254+214327419+214198459
4117+213816251+213462789+213583060+214340096+215243137+215578732+215180818
4107+214540019+214237631+214491884+215169724+215970330+216526926+216610079
4097+216431339+216484482+216918722+217358714+217448670+217230850+216961074
4087+216920533+217314246+217982605+218386850+218182970+217614641+217149629
4077+216958868+216937486+217065731+217462290+218032400+218352776+218157677
4067+217755913+217687263+218086927+218586925+218735669+218379241+217808949
4057+217646341+218304458+219464841+220384211+220751262+220836683+220835343
4047+220669737+220451202+220464062+220609518+220443852+219865661+219298626
4037+219075769+219032762+218931758+219002295+219691655+220985959+222389775
4027+223540524+224439411+225077698+225253120+224849880+224044312+223179926
4017+222538077+222208920+222120684+222130865+222105770+222028963+222078834
4007+222501340+223341271+224334678+225039105+225083177+224450429+223540829
3997+222883731+222809527+223371023+224395308+225491637+226172658+226196398
3987+225745753+225156925+224651022+224419718+224624329+225118986+225580345
3977+226012956+226608496+227139372+227123895+226610550+226184406+226163374
3967+226397250+226804021+227520454+228467278+229206524+229405778+229191854
3957+228937464+228926598+229319536+230244445+231664225+233041119+233429263
3947+232467631+231163176+230855690+231615131+232394081+232505982+232110624
3937+231565306+231364485+232248716+234334708+236297265+236457879+234944127
3927+233612066+233750674+234788413+235530504+236065018+237300610+239026826
3917+239575614+237680795+234133187+230995288+229630994+229853167+230961716
3907+233355074+238177521+245050000+251178546+253949379+253119737+249572753
3897+244550337+240149467+238513770+240226274+243102555+243645591+241807216
3887+240966768+242662806+244710266+245308073+245574881+245662447+243909523
3878+241241642+240855568+243705202+248009647+252278908+255475033+255459723
3868+252293563+249612138+249542240+250045145+248350492+245106110+242804169
3858+243221015+247972682+258173122+268753154+269050216+259876511+249833093
3848+243511320+241810534+243932472+248171236+252896240+257626388+262248350
3838+265147960+264332836+260529347+256235676+252952320+250872247+249985581
3828+250176678+250941064+252624441+256883460+263422840+267406422+265927504
3818+262846826+261022056+258474415+253632686+248848482+247279137+250232088
3808+255949023+260375368+262288069+264509825+267824135+268810040+266374345
3798+263530038+261277511+258125550+254230903+251776475+251804370+253392038
3788+255445083+257579972+259246106+259959816+260589033+262396911+264789934
3778+265782869+264974623+264122153+265186402+268763076+273399890+276832812
3768+278795826+280550043+282107092+283183851+285433243+290449937+296552277
3758+300406990+302202419+305616379+313642104+325735508+336363112+340391954
3748+340976764+343707390+348783375+350960571+348503540+346366916+348952086
3738+357425686+369440807+379475322+382936124+380467374+376477735+374949966
3728+377333980+382437327+387629550+391303439+393823596+396051256+398521983
3718+401793013+406683486+414311556+425233543+436888385+443605576+443533776
3708+440951833+440319237+443304862+449256419+455795769+460280308+462324040
3698+463458567+465003593+467739820+472429259+479367238+486748618+490247162
3688+487563652+481966256+477809428+477082966+479716103+484443101+490562638
3678+498690539+507247871+510534879+508233410+507569343+511058299+512344796
3668+506289207+497463515+492252391+492366011+495788067+500084325+504562717
3658+509393260+514054668+518289505+523653786+532001470+542443380+549718901
3648+549046555+542938158+537052801+534178179+534096791+535158788+535554464
3638+534941713+534978663+537152877+540941330+545539946+551819153+559283748
3628+563020641+561100635+558088621+558170618+562654244+569849230+574726708
3618+573316759+568407871+565105249+565144756+567763953+571971093+576393237
3608+578981146+578727913+576681046+574775163+574828062+577582520+581612640
3598+584856520+586960729+588633407+590131378+592067455+596018439+601947930
3588+605938482+604258682+599192497+595359911+593934745+593324063+592507873
3578+592182323+593090979+594612996+595658739+596560517+599269868+605058071
3568+611836257+615335744+614695661+613015191+612078716+611299780+610799158
3558+612279963+616472980+621437932+623976351+622840941+620718470+621615561
3548+625518029+627819103+625458252+620954050+617942463+617271578+618579441
3538+621084562+622635980+621646545+619512082+618874860+620597393+622972549
3528+623744180+623117976+623907077+627996914+633364665+635799659+633443922
3518+628103016+622778546+619427651+618367724+619000563+620763699+623276064
3508+626258675+629743857+633557207+636055997+635212597+632112865+630688368
3498+633034792+636841628+638546934+638312876+639015964+640928300+640560016
3488+636166604+631732407+632541353+638964160+645497819+645843457+639457904
3478+631445815+626745601+626490420+628764709+631164276+632498376+633134624
3468+634296696+636337780+637821020+637051642+634532946+632833484+633500656
3458+635474596+637140030+638307459+639386013+639850294+639210210+638032189
3448+636282872+632980919+628867342+626834902+628359901+631468825+633125067
3438+632460087+630767929+629490685+629090929+629196484+629369547+629566107
3428+629568420+628760205+627534276+627772230+630447127+633968346+636298212
3418+637457545+637819072+636542619+634280808+634003409+636882231+639998277
3408+639805065+636701315+633933709+633172914+633566460+633791265+633525979
3398+633084708+632852233+633386031+634439992+634512127+633213820+632523578
3388+634120955+637490051+641284287+644072652+643984507+640228743+634530694
3378+629948635+628338413+629188144+630863318+632252509+632917611+632667908
3368+632301999+633803196+638168789+643719404+647910899+650137159+651457380
3358+652492349+652360680+650022230+646757410+645317573+646331966+647853800
3348+648426740+647959537+646234812+643486928+641795380+643439752+648040559
3338+652517977+653949840+652424597+650788930+651206886+652966918+653885131
3328+652925950+650823871+648670416+647154243+646750653+647444122+648278270
3318+648208265+647451975+647090022+647431582+647539085+646340245+644026936
3308+642147837+642396809+645536169+650768781+655833444+657846099+656027751
3298+653110153+652304129+654129172+656726029+658395481+659226585+660379343
3288+662532921+665313798+667591313+667806988+664874718+659847006+655472952
3278+653656126+654316845+656082050+657345416+657476050+657886397+660482037
3268+664841786+668154574+668257572+665879372+663491676+662951790+663929234
3258+663796225+660368508+655185812+651856649+651492139+652149936+652579215
3248+654035732+657576126+661951276+665352026+667517170+668760690+668456689
3238+665955646+661908482+658082348+656375399+657494068+659820891+660073211
3228+656374303+650863804+647744350+648450541+650334997+650403663+649008506
3218+648857480+651813550+657307735+662674999+665144631+664420482+662457073
3208+660380135+657884327+655122504+652827091+650953958+649216754+648329160
3198+648919936+649944130+649891596+649124044+649250539+650499173+651433701
3188+651230018+650416081+649251878+647119119+643863734+640558007+638528551
3178+638266491+639204367+640046489+639554997+637401359+634218474+631068339
3168+628953356+628188178+628181603+628086276+627621082+627311967+627520214
3158+627758960+627643970+627543225+627557956+627101101+626205228+625758235
3148+626071794+626302260+625531847+624019814+622882700+622751762+623137333
3138+622909363+621436471+619334454+617797584+617076600+616116628+614409434
3128+613238962+613647483+614445593+613846478+611935542+610113359+609225399
3118+609193502+609570064+609923312+610035684+609738622+608672061+606728861
3108+604429553+602313352+600649866+599839399+600235745+601510068+602764059
3098+603394402+603310458+602453970+601131618+600377458+600550399+600441375
3088+599365987+598671604+599422781+600551191+600861279+600719140+600454341
3078+599342489+597132483+594812417+593335568+592944701+593695695+595166334
3068+595866865+594732186+592920290+592175931+592100448+590997423+588789668
3058+587191317+587335708+588637363+589668619+589436691+588049509+586334585
3048+584994946+584422127+584704641+585314835+585406632+584904549+584626175
3038+584950812+585113466+584111673+581714542+578486915+575338424+572970877
3028+571345802+569908582+568590370+568076842+568772016+570141118+571401927
3018+572183297+572259389+571332531+569410212+567199292+565828546+565942379
3008+567037064+567864394+567499519+565922291+563740407+561555480+559556643
2998+557756740+556492157+556086680+556044433+555548864+554861299+555194155
2988+557037582+559236145+559955424+558668866+556780149+555598658+554562654
2978+552728358+550907149+550400196+550724285+550424241+549237454+548079947
2968+547634841+547784833+547870056+547371503+546478674+545635334+544979728
2958+544695693+545087840+545830373+546001853+545253050+544128780+543113230
2948+542193190+541331284+540593073+539717532+538218404+536267657+534936904
2938+534974646+535736841+535929018+535148561+533975045+532734507+531200194
2928+529654376+529216758+530347784+531682737+531474185+529889652+528655201
2918+528564074+528595545+527675871+526217589+525382041+525525093+525903543
2908+525645257+524663127+523488454+522441128+521516401+520878509+520692724
2898+520590882+519978070+518847531+517757289+517048845+516547248+515985935
2888+515312007+514583048+513801191+512962295+512283679+512050839+512065448
2878+511751403+510983729+510194719+509569458+508821416+507879249+507121224
2868+506793542+506713342+506613783+506438651+506218350+505893043+505431988
2858+504922661+504384206+503748384+503085260+502538465+502098472+501696495
2848+501352591+501030541+500634103+500233465+499950800+499691510+499223515
2838+498388394+497157078+495641910+494053025+492531921+491175024+490212251
2828+489812861+489706789+489400261+488903961+488770070+489140332+489315465
2818+488641110+487289965+485816221+484565548+483754471+483435921+483315635
2808+483100418+482753774+482154750+481183059+480185011+479509590+478774301
2798+477474107+476020482+475256948+475186943+474992423+474245902+473405485
2788+473029075+473150578+473541811+474011053+474303915+474110520+473232909
2778+471716219+469988603+468620261+467645253+466605141+465482575+464822251
2768+464777662+464861210+464690065+464279961+463670223+462835680+461859546
2758+460813650+459624672+458355493+457415426+457128012+457273652+457386572
2748+457272282+456974946+456538302+456028640+455558393+455152185+454689030
2738+453943484+452767654+451378799+450240954+449543071+449086126+448690966
2728+448391743+448218194+447985383+447359118+446250858+445094265+444425206
2718+444267422+444184786+443756755+442863774+441746930+440814442+440174146
2708+439506852+438617766+437848358+437651372+437932089+438073985+437610617
2698+436662636+435649765+434822374+434183995+433682368+433352891+433273573
2688+433360044+433321450+432957458+432321301+431495980+430548791+429805558
2678+429646557+429853800+429696321+428850790+427740734+426827573+426078952
2668+425315935+424710367+424678865+425369230+426352822+426864401+426403620
2658+425106866+423559861+422332228+421616236+421158042+420591920+419894312
2648+419382580+419271729+419404007+419437335+419218770+418934826+418813657
2638+418736440+418419990+417865799+417285036+416761191+416281113+415875666
2628+415533801+415197933+414852355+414456374+413988075+413648493+413699292
2618+414032086+414223168+414046453+413660242+413305472+413069496+412905656
2608+412661919+412124711+411259762+410379381+409857484+409715892+409664119
2598+409461624+409106337+408786173+408728739+408956649+409166723+409010796
2588+408501195+407992233+407750566+407662360+407416827+406911183+406386607
2578+406201156+406539216+407239899+407816309+407789981+407155529+406436432
2568+406180946+406443189+406823495+406977961+406911731+406708018+406255516
2558+405483703+404656039+404192458+404304830+404846694+405392119+405497582
2548+405039175+404306565+403742512+403611148+403805973+403925406+403717645
2538+403434310+403473665+403774806+403933898+403800829+403550092+403316034
2528+403166955+403253090+403637597+404152372+404594161+404868882+404919894
2518+404710246+404256162+403640854+403077806+402826734+402937614+403280849
2508+403811756+404499016+405101358+405350999+405224596+404856708+404430168
2498+404187009+404248522+404447639+404536544+404453239+404297281+404196506
2488+404210720+404286172+404363603+404484741+404665900+404788164+404764028
2478+404680297+404651899+404691558+404813731+405078652+405444440+405726801
2468+405781739+405631108+405423347+405380827+405670006+406158301+406454542
2458+406359275+406110546+406026754+406114868+406179546+406121625+405988891
2448+405864922+405800031+405778391+405699195+405451288+405080143+404833880
2438+404933682+405312953+405710700+405986456+406175985+406275300+406175468
2428+405828459+405326102+404811357+404423259+404302151+404493415+404820031
2418+405041489+405231292+405754102+406674203+407437250+407471309+406950233
2408+406570110+406664037+406945820+407133584+407382982+407898701+408482781
2398+408778412+408742466+408601392+408507069+408499886+408689750+409186903
2388+409821051+410138444+409811950+408890145+407491428+405485499+402779526
2378+399758839+397051588+394879414+392929579+390838793+388524967+386089180
2368+383752313+381928122+380989363+380827471+380917015+380961423+381375148
2358+382971947+386056370+390083537+394475001+399098454+403376907+405938701
2348+405799027+403464017+400697140+398825163+397611318+396537451+395831412
2338+395651379+395596410+395280356+394761471+394447304+394774529+395794036
2328+397078676+398198685+399124690+400061105+401105053+402177428+403132683
2318+403838783+404210598+404252813+404142511+404243804+404882274+406044803
2308+407401792+408638860+409686308+410659033+411702068+412896494+414169721
2298+415254819+415870005+416010166+415978207+416069761+416295844+416457068
2288+416438288+416380093+416534255+416965573+417460534+417735408+417648572
2278+417230737+416640418+416074966+415648152+415378879+415236831+415090552
2268+414770206+414337945+414087299+414169082+414468214+414896975+415534745
2258+416399177+417266227+417831405+418032713+418141403+418457153+418973237
2248+419439466+419665489+419615146+419265490+418575430+417684853+416980761
2238+416743051+416779392+416651193+416213057+415660296+415146282+414666813
2228+414258809+414062036+414158155+414447273+414741322+414981041+415271803
2218+415660783+415999604+416128656+416132491+416295449+416782831+417454143
2208+418068750+418586387+419159570+419923135+420877873+421870656+422669832
2198+423186160+423551765+423884925+424170695+424470100+424959583+425642491
2188+426303514+426863153+427505032+428304939+429000569+429346055+429484755
2178+429726697+430135644+430548304+430832583+430958256+430981357+431064206
2168+431365224+431881735+432496251+433118590+433697861+434161442+434458473
2158+434713319+435269032+436375344+437782675+438907919+439544533+440133878
2148+441124409+442332380+443240519+443764425+444353832+445392635+446860109
2138+448540944+450244424+451846002+453353104+454917792+456701077+458763740
2128+461025215+463256376+465222372+466895141+468451703+470126572+472052727
2118+474023654+475508020+476216281+476500408+476864308+477372510+477905638
2108+478665703+480036480+482106569+484531824+486796008+488590555+490012495
2098+491358222+492705623+493781438+494213791+493790082+492438085+490100183
2088+486843185+483068216+479338475+475930755+472768110+469760906+466934861
2078+464325403+462018212+460166232+458801299+457791988+457031863+456478372
2068+456057220+455709116+455426207+455129662+454682608+454106655+453637474
2058+453498500+453665780+453883676+453949602+453979886+454318616+455179944
2048+456438744+457783953+459032283+460225461+461450659+462754810+464337365
2038+466598992+469780934+473690037+477929196+482253578+486543962+490597427
2028+494206760+497426899+500499147+503428220+505876607+507566725+508513580
2018+508818342+508557287+507903659+507098944+506300164+505545700+504763051
2008+503833454+502768323+501656927+500375483+498714219+496878004+495415553
1998+494592088+494290157+494463128+495131457+495990380+496595461+496940156
1988+497382797+498114433+499079793+500234165+501541329+502860272+504116211
1978+505446111+506919489+508303993+509476779+510936552+513385913+516703876
1968+519762700+521579587+522407647+523268640+524710425+526481109+528227627
1958+530076533+532351735+534944148+537295442+539078727+540619431+542465294
1948+544878070+547995516+551966345+556306676+559620012+560978401+561217024
1938+561921268+563788193+566410739+569055381+571413006+573762535+576434509
1928+579295678+582049650+584619174+586825651+588439038+589906816+591970362
1918+594316847+595742987+595909354+595735683+596078156+597006840+598133849
1908+599129920+599916647+600491474+600767839+600790423+600901699+601419914
1898+602346407+603420517+604253934+604745182+605476514+606981242+608547392
1888+608797703+607640075+606259832+605433538+604998171+604566458+604110881
1878+603922905+604088784+604191173+604087628+604739886+607208909+610509644
1868+611507298+608533574+603546768+599234926+596461719+594720863+593420121
1858+592203872+590693726+588676931+586527250+585060750+584835823+585792752
1848+587706366+590340721+592347594+591205914+586597924+581528695+578318783
1838+576695169+575306039+573755412+573138704+574581281+577260439+578511386
1828+577164563+574832262+572566373+569589606+565733949+562346956+560444055
1818+559776639+559680946+560016663+561084442+562834064+564392544+564740070
1808+563856675+562688455+562290404+563360984+565901107+568811888+570507697
1798+570714667+571073637+573490370+578050818+581999003+582108758+579268103
1788+577151597+577670238+580121121+583043772+585822275+588288376+590137526
1778+591718468+594404017+599489499+606596705+612521265+613583322+610345347
1768+606114041+603214887+602895728+605461113+609283472+611752800+612722330
1758+614088693+616182371+618181391+620848191+625725425+632125405+636881561
1748+638231489+637729162+637494434+638482226+640918377+644321441+647236301
1738+649218519+652435006+658577675+664504304+665081870+661514144+657604675
1728+654791535+653735870+654784170+657211007+660707329+666915802+677310291
1718+689209022+695533945+693512585+688033132+683688905+682256555+684354738
1708+689730585+696502380+702053359+706691239+713867476+724506981+732780825
1698+733626478+729847156+724426993+718802783+715778230+717387660+723099285
1688+731426393+742429312+755559450+764093284+762036313+755273528+751146254
1678+752089304+757344195+763656822+767910956+771016958+775115743+778536765
1668+777893881+774823856+773796800+775940516+778477230+778841131+778309342
1658+779979524+786340423+799080241+815360027+822505097+817538319+813220633
1648+814434265+816727973+814104636+807634042+802077645+799992611+802543630
1638+810116701+819885352+823586755+816833344+806981663+801004022+799611239
1628+800196415+800642373+801046937+801364331+800242740+798042777+797260554
1618+798599585+798680729+793995917+787037545+782289302+780869127+780649374
1608+778907057+775481470+772613544+771862611+772505920+772799208+772030804
1598+770830990+770057777+770135816+771019028+772137697+772712098+772416193
1588+771346222+769572190+767408386+765733821+765413992+766845064+770156392
1578+774669602+777388024+775082324+770435131+768741756+770993035+773584474
1568+772979880+770492230+769031635+769882401+774617130+785909257+801827516
1558+808100515+798540538+785790067+777245336+773392358+772662121+773133037
1548+774472434+778541939+786889866+798579497+811139251+820880266+821273020
1538+812258347+803509873+800682489+802294902+803506038+802745791+803397501
1528+807859152+814813628+822054391+829729850+837913054+843605869+845343803
1518+845998922+846684113+845884115+844681379+846945564+854906580+867828957
1508+882678097+891804717+888271262+879058081+873480500+873964382+879161748
1498+885589122+889052511+888647459+888012368+890462824+895636755+900341960
1488+902373060+902933582+903893920+905670813+907844296+910443223+914747090
1478+922315778+932887591+944220991+953405806+957096922+954366204+949688514
1468+947963120+950050162+953390831+955110564+955339204+956663443+961783378
1458+971233418+979351488+978298257+970153159+962085980+958511010+960134076
1448+964187145+966744617+966482070+965443510+966730555+971979786+979952977
1438+987010877+989709027+988777239+987783481+987785612+987415197+985319145
1428+982070457+980428337+983133062+990505981+1000067479+1008239057+1011760519
1418+1010034273+1006620982+1004751988+1004124079+1002981791+1001198567
1410+1000835336+1003279888+1006845727+1008238022+1006886573+1006173685
1401+1008791361+1013949038+1018948079+1020957751+1018118923+1011601883
1392+1005563003+1002435270+1000193305+995416269+988470620+983737169+983997585
1382+988036410+993175094+998072903+1003476022+1010576472+1018336302+1023347213
1372+1024404340+1024473979+1026068130+1029445262+1034937255+1042648447
1364+1049838198+1052137020+1048902210+1043863114+1040261603+1039079565
1355+1039895998+1041279406+1041830066+1041600573+1041921011+1044413044
1347+1049405754+1054828352+1058221676+1059196745+1059087660+1059209285
1338+1059150116+1058162020+1057465264+1058692349+1062111361+1067037476
1330+1071848784+1073741823+1071076544+1066074703+1063054046+1064110442
1321+1067365583+1068966674+1067157396+1064521337+1063989182+1064290505
1312+1062307982+1058492075+1056514300+1058450438+1063155948+1067935236
1304+1070142625+1067770635+1061105855+1053982456+1049844529+1047920201
1295+1045750431+1042978259+1040444589+1038089520+1035525779+1032745814
1287+1029985573+1027860241+1026100636+1022559999+1016016662+1008596931
1278+1003222971+1000443433+999064834+997572342+993835449+986190608+976297411
1268+968225422+963704298+960431260+955433801+948232910+939740287+930337059
1258+920859931+913374214+908998272+906227195+902636216+897483043+891620757
1248+885568729+878904619+871367951+863700892+856905600+850898314+844520248
1238+837099847+829550639+823406205+819231633+816542005+814659496+813061145
1228+811294479+809112656+806654895+804274807+802286014+800915573+800354503
1218+800861395+802713771+805674955+808533385+810052053+810726652+812588646
1208+816863416+822720954+828632913+834030857+839121817+843851371+847963853
1198+851726922+855499973+858785856+860993428+862988369+866178133+870346557
1188+873939545+876013196+876915035+877788080+880170663+885175852+892388675
1178+900463768+908727081+916816601+923728344+929400766+935671269+943244278
1168+949334413+950554620+947495064+944585684+945501523+949990506+954985226
1158+958029867+959455399+961664554+966291354+971663001+974149251+972485583
1148+969045264+966517194+965134213+963505059+960894384+958353409+958044111
1138+961403407+968067821+976216936+983249391+986633827+985666550+982247476
1128+978949967+977017847+976169090+975888890+976835409+980226846+985730284
1118+990829036+992796888+991139611+987820979+986117073+988616107+995543189
1108+1005249140+1015785039+1025258636+1030533920+1027891652+1017352223
1100+1004814322+997539227+997462039+1000157937+1000593121+998369478+996124591
1090+995445427+996125200+997443595+997983541+995482803+989661546+983193570
1080+978354565+975491326+973361246+969593490+962981792+955919266+952417892
1070+953502046+955286062+953467044+948681669+944635234+943496659+944323380
1060+944610398+943277820+941590289+941546643+943577560+946012859+947123433
1050+946688006+945745869+945081436+944179232+942355771+940801127+942113617
1040+947067855+952476026+953975398+951334712+948338830+947950154+949910945
1030+952157354+953092734+952112673+949136697+945667707+945407291+950967950
1020+959966552+966935881+968638144+965159475+958441005+951107167+944702865
1010+938756147+932426476+926049384+919921446+913515440+906520970+899127050
1000+891591599+884612287+879227370+875290569+871204019+866012801+860564514
990+856051912+852830068+851084038+851049462+851891280+851605966+848869527
980+843951082+838025366+832898673+830369081+830217263+829759983+826983367
970+822668846+818311167+814291152+810579521+807382696+804786448+802741956
960+801362931+800942600+802122813+805545173+810538310+815042755+818021349
950+821099288+826453768+833771719+840488849+845082778+848918164+853967609
940+860001618+865381240+869829560+874675565+880677738+886843782+891307138
930+893359057+894455386+896751346+900937788+905776185+909500599+911165789
920+910914748+909490555+907177611+904117873+901716298+901382103+902149594
910+901533739+899137764+897399951+897887547+899231143+899809136+900239693
900+901307229+901853080+901167464+901406452+904837092+909760528+912161495
890+911702875+912231499+915909284+921001340+925120335+927133782+926883653
880+925565806+925397369+927228014+929730821+930777660+929181135+925801508
870+922716264+921570749+922908928+926942883+933286616+939463009+941639048
860+938947411+935241929+934922466+937995718+940456949+939753922+937971977
850+938272630+940943814+944369279+947170183+948150549+946651603+944121768
840+943156499+944375975+946939595+951110454+956413619+960154895+961114259
830+962012688+966390273+974222482+981570504+985312023+986046217+984886762
820+981862635+979414248+982000513+989438262+995179593+994259736+989878194
810+988437444+992441631+999791297+1006390516+1008746497+1005790183+999397264
800+993109108+989328934+987635802+986433128+984682045+981608489+977256531
790+973767758+973032895+973120187+969832783+961676850+951468146+942597073
780+935963400+930067025+923108045+917315093+917108550+921490396+923438039
770+919704555+916117958+919055462+927617481+935437028+937666271+935120243
760+932360489+933418285+939463739+949586551+961151391+969866446+972830248
750+971756929+970185118+967455496+960353463+951365453+947856287+952741677
740+960692832+964489625+964291178+965453128+968930823+970447482+968498622
730+967512474+970755136+975058943+975045550+970366764+965296745+962945268
720+962619291+961645683+959171181+956547236+953869234+950342659+947624846
710+949013733+955867706+965481556+971657035+969558792+960120866+949046361
700+941770169+939752888+941980852+945873703+947310009+943374547+935471178
690+928836105+927763699+932899157+941768343+949709454+953776403+953110205
680+946558832+937844630+933348342+933856147+934265094+930440970+923465128
670+916803879+913297026+913220326+915636876+920100779+925808386+931528168
660+936465422+939885896+939297190+934116198+927513875+921997593+917217574
650+911465286+904433136+898989050+898213158+902235791+906316375+905139206
640+902525670+905664117+914684451+923991926+929282793+931241576+933542102
630+938755660+944279612+942127313+928685626+909572916+894036334+888454734
620+890626087+892625655+893525850+900794188+916292847+927600863+917748146
610+887701366+856974265+838468889+831794735+830503003+831153069+838423295
600+857836840
##END=
