##TITLE=<SNM>
##JCAMP-DX=4.24
##DATA TYPE=INFRARED SPECTRUM
##DATE=29/4/2025
##SAMPLING PROCEDURE=Instrument type and / or accessory
##ORIGIN=Admin
##XUNITS=1/CM
##YUNITS=ABSORBANCE
##RESOLUTION=4
##FIRSTX=4497.3318
##LASTX=599.83466
##DELTAX=-1.4281778
##MAXY=2.0465322
##MINY=0.4269909
##XFACTOR=1
##YFACTOR=1.9059816e-09
##NPOINTS=2730
##FIRSTY=0.44621608
##XYDATA=(X++(Y..Y))
4497+234113528+234938823+235012266+234350182+233901189+233961623+233908725
4487+233374937+232763795+232566701+232847043+233352170+233638328+233284512
4477+232445817+231902475+232124118+232625821+232707020+232547359+233012067
4467+234396075+235845567+236268182+235498771+234229455+233174746+232851155
4457+233550609+234791499+235425359+234955100+234065306+233449943+232939890
4447+232181190+231398098+230926369+230635895+230487132+231077712+232762419
4437+234678949+235504807+234923531+233791923+233093203+233021246+232999496
4427+232504625+231597350+230508726+229343344+228449656+228362281+229075855
4417+229890345+230200427+230110472+230054150+230023175+229559640+228558187
4407+227620515+227460807+228284429+229714407+231116458+232153592+232915795
4397+233242123+232613750+231181708+229941194+229436880+229193440+228596871
4387+227595232+226538662+225831546+225603476+225659063+225826354+225961811
4377+225667256+224770676+224026768+224431120+225910274+227497067+228546085
4367+229071055+229352131+229761268+230462193+231015308+230831191+230014559
4357+229122873+228381420+227896057+228100375+229123796+230252980+230791992
4347+230922116+231128514+231374174+231351111+231223160+231567641+232540385
4337+233454384+233376625+231982689+229673268+227135121+225089264+224211572
4327+224859662+226735741+228935333+230508695+231066000+230839275+230252058
4317+229648375+229355775+229437755+229321140+228306022+226657497+225652183
4307+226251440+228074216+229827582+230590644+230596476+230714373+231319448
4297+231954465+232097458+231873595+231751179+231873876+232027877+232034335
4287+231893422+231592847+230974841+229928482+228722743+227993673+228235566
4277+229281393+230356867+230734638+230369861+229851771+229727838+229981958
4267+230194610+230033901+229492873+228865142+228609021+228986885+229759408
4257+230506709+231180614+231905258+232469663+232686725+232922894+233427177
4247+233609401+232891512+231805468+231349579+231647151+232044358+232220375
4237+232425037+232757025+232895671+232652512+232335457+232334222+232630028
4227+233017321+233497337+233988220+233953148+233035068+231812786+231140538
4217+231044094+231026394+231018060+231198267+231347358+231211558+231099243
4207+231465177+232227599+232891184+233105916+232935606+232725534+232685395
4197+232612969+232283201+232013852+232404178+233506844+234643314+235135214
4187+234881907+234104600+232973305+231704865+230695266+230327049+230694641
4177+231528191+232424943+233194839+233856375+234345945+234547965+234501885
4167+234223154+233602944+232888635+232740638+233366196+234143910+234489517
4157+234567338+234791389+235121047+235181669+234838173+234421218+234360111
4147+234655557+234819284+234369993+233325026+232152936+231450589+231734964
4137+233084822+234831527+236060486+236470718+236358544+236030996+235640748
4127+235179464+234414901+233246626+232070799+231453513+231606528+232290644
4117+233023216+233527827+234091825+235098500+236221195+236602125+235827866
4107+234424095+233479543+233843601+235401749+237079717+237771275+237230528
4097+236022099+234890929+234358892+234643955+235515377+236268385+236393819
4087+236279268+236686153+237647593+238463584+238614551+238117382+237184042
4077+236126674+235496238+235808462+236993139+238265895+238708978+238022033
4067+236741553+235780676+235625534+235897557+235937429+235786024+236077264
4057+236975220+237864170+238180631+238032540+237858713+237824297+237691202
4047+237226728+236637587+236383343+236638651+237162245+237563783+237572664
4037+237247634+236960850+237026460+237460521+238121260+238763392+239034039
4027+238897942+238861025+239216827+239487943+239291615+239167588+239755228
4017+240641785+240760840+239735964+238282907+237432298+237633082+238466977
4007+239140225+239300355+239249100+239316883+239389341+239267879+239111407
3997+239162366+239352815+239538088+239802356+240213338+240602398+240824197
3987+240932322+240937544+240656906+239980358+239180207+238778262+239059745
3977+239797211+240462579+240631528+240282544+239810283+239614283+239667697
3967+239693653+239651028+239778870+240292848+241148070+241856719+241704391
3957+240630449+239642303+239811034+241082195+242503338+243330212+243425859
3947+242921028+242176104+241827964+242183062+242651789+242492893+241926347
3937+241720715+242175994+243072434+244106910+244928921+245176817+244949639
3927+244873224+245312539+245796542+245624044+245026131+245016374+245928356
3917+246826875+246770960+246016591+245399883+245254936+245334821+245495061
3907+246220643+248206082+251260865+254046752+255560791+255951805+255325028
3897+253396036+250741853+248992145+249388101+251286993+252467558+252097699
3887+251728450+252458520+253425448+253925791+254564749+254906025+253406465
3878+250736661+249492520+250599657+252711764+254766268+256589121+257215727
3868+256102898+254790176+254687571+255013946+254356349+252955064+251916945
3858+251996689+254164149+259643342+266437242+268135209+263710507+257661890
3848+253098479+251097342+251601985+253708119+256180407+258521334+261031634
3838+263399565+264376390+263581571+261964365+260307318+258564021+256717870
3828+255344479+254962987+255795146+258209189+261777293+264046435+263755570
3818+263158017+263651371+263298774+260536513+257035097+255303810+256606055
3808+260106580+263087122+264277757+265362316+267363312+268476391+267422574
3798+265575687+263820992+261758029+259747369+258977427+259706809+261106312
3788+262690463+264649336+266698179+268125327+269273838+271247753+273878075
3778+275659915+276087065+276419741+278389121+282987761+289411302+295140283
3768+298789273+301608513+304983494+309059509+314042174+320435350+327535095
3758+333664707+338618539+344021161+351407674+360717158+369615442+375774732
3748+380365741+386528971+395278867+402860895+405556546+405503695+406992794
3738+412508216+421332196+430015826+435439495+436875055+435287667+432528565
3728+430636521+430681710+432191073+434167145+435997551+437012935+436935004
3718+436854009+438425322+442375372+448049251+453624622+457258133+458834856
3708+459355354+459646188+460495265+462372298+464594203+466063819+466903608
3698+467680634+468271151+468731700+470126731+473548590+478454919+482514078
3688+483867204+482857574+481022665+479862427+480067981+481200418+482920776
3678+485991007+489968983+491434909+489293562+486935935+486214918+485264518
3668+482991201+481286292+481330167+482205732+482734111+483034482+484131862
3658+486587810+489602940+491962913+494028330+497523804+503507749+509798571
3648+511550639+507542485+501492774+497450345+497096154+499170172+500815632
3638+500683663+500309019+501934591+506077185+511939511+518719527+524420332
3628+525692587+522969229+520435444+520851461+524458547+529851255+534936650
3618+538700848+541768422+544106973+544301049+542042993+539568157+539304281
3608+541345619+543825458+545330162+546333256+548141927+551092479+554276511
3598+556799195+558405471+559039300+558873619+558870366+560730137+565626459
3588+571907023+575060470+572925878+568444478+565602316+565871134+568088286
3578+570258153+571469021+572069827+572407068+572329325+571909337+571774553
3568+572472053+574149192+576628844+579052269+580176199+579503029+577637442
3558+575424231+573471081+572365226+572189350+572459606+573614934+576814728
3548+581390820+584483224+584464460+583167343+583271793+585254839+587543792
3538+588546386+588199012+587655435+587577879+587013787+584367203+579601600
3528+575145469+573671225+575000990+576508821+576861574+577121447+577658207
3518+577306705+576003083+575431799+576759063+579562009+582724588+585260906
3508+587048187+589215741+592394394+594802119+594063653+590754844+587859956
3498+587305622+588375263+589224997+589196915+588937604+588844412+588788434
3488+589139498+590691298+593261891+595309295+595473288+594032318+592206071
3478+590428110+588275754+585896549+584291837+584297403+585751258+587592452
3468+588708627+588558582+587066325+584669670+582606253+582150677+583409704
3458+585024737+585579509+585227632+585454482+587429585+590494595+592567518
3448+592610924+591823047+591689951+591983724+591158696+588258242+584220598
3438+580802523+578661489+577358742+576606516+576708526+577880742+579579334
3428+580797582+580845617+579780853+578342510+577432796+577505285+578421567
3418+579756524+581119375+582332995+583610160+585421209+587703532+589314124
3408+588719823+585269412+580111340+576040485+575239661+577047519+579096300
3398+580151432+580399109+580168131+579945034+580294909+580931678+581108367
3388+580846680+580424190+579337848+577150969+574853259+574047307+575103751
3378+576940255+578374721+579149526+579632184+580326870+581982556+585359915
3368+590183997+594787797+597525697+598248277+598261662+599236298+601700501
3358+604213677+604922498+603997022+602938826+602062386+600905932+600118743
3348+600511774+601160927+600422648+598110303+595584931+594436482+595448082
3338+598121123+600945460+602368730+601750287+599723834+597852181+597476599
3328+598646687+600165338+600432342+598814745+596807995+596921138+599617321
3318+602207364+602064450+600001659+598449984+597670675+596233333+594214511
3308+593391421+594725752+597525697+600703537+603563899+605577530+606447403
3298+606252389+605143531+603200389+600749007+598723868+598285679+599681554
3288+601837850+603651274+605100626+606621341+608313178+610195590+612538331
3278+615345218+617524468+617453980+615067081+612283211+610936058+611332592
3268+612605755+613304693+612217476+609993070+608842745+609525547+610040354
3258+608445648+605727075+604554547+605926405+608153063+609169855+608540028
3248+606901416+605329164+605299018+607456877+610428257+612161436+612093638
3238+611119565+610274897+609846277+608950948+606526147+603270939+601340681
3228+601855800+603666410+604777019+604595889+604178027+604092403+603444876
3218+601970132+601391342+603277819+606737174+609174420+608971900+606866704
3208+604490438+602284732+599840981+597653100+596767966+597015393+597168628
3198+596479634+595074627+593467913+592197941+591560734+591682759+592501033
3188+593195218+592579464+590682730+588835093+587842569+587406819+587396124
3178+588354373+590442933+592577900+593033039+591048617+587560867+584150298
3168+581858905+581184109+582123720+583605219+583919945+582535453+580682625
3158+579578646+578907415+577677909+575965744+574967404+575464948+576742113
3148+577189559+575867674+573211020+569963942+566287808+562629811+560253295
3138+560024944+561477297+563450211+564972052+565549028+565322053+564949161
3128+564954727+565065119+564359238+562363120+559810603+557951583+557322194
3118+557479995+557672758+557520086+557347462+557852762+559023038+559744430
3108+559129552+557779209+556910649+556741966+556499355+555642678+554365888
3098+552977768+551493642+550128914+549621488+550539208+552515124+554483347
3088+555477247+555084716+553494951+551285243+548931556+546604951+544594447
3078+543548573+543879560+545209826+546861635+548525264+549977305+550624206
3068+549954038+548211790+546166574+544463353+543351431+542633542+541816831
3058+540688960+539684553+539206335+538799731+537814275+536808679+537077372
3048+538582263+539665977+539124464+537514185+536260912+536342908+537784942
3038+539629889+540365228+539030522+536096169+533177639+531805781+532312394
3028+533680813+534405645+533529079+531042046+527849571+525395562+524678048
3018+525382615+526329857+526706064+526457198+525780463+524884571+524132188
3008+523819088+523856521+523983581+523987428+523419052+521728934+519200935
2998+516916672+515392424+514156288+513031106+512775861+513703401+514697738
2988+514558263+513565646+512845442+512833965+512971126+512502946+511381643
2978+510386211+510110357+510132028+509844135+509548798+509663818+509562652
2968+508517215+507089692+506285459+505997815+505419745+504465498+503751424
2958+503431914+502932618+501858599+500597695+499857414+499917332+500488304
2948+501058682+501174139+500608140+499622496+498942915+499008462+499305300
2938+498894756+497627754+496352496+495811577+495803759+495611152+494929195
2928+494083088+493483940+493186383+492898927+492185478+490804739+489123252
2918+487914573+487463094+487311548+487150432+487229176+487485954+487083697
2908+485485145+483544347+482775797+483659336+485169669+486084293+486249536
2898+486116722+485682755+484661148+483292229+482183435+481548542+481169458
2888+480855545+480548857+480256428+480137312+480357907+480648147+480282228
2878+478888010+477180755+476301688+476417146+476562781+476048663+475298907
2868+474902466+474660668+474067461+473098361+472103210+471396203+471168165
2858+471390605+471748424+471954040+472078817+472372872+472759962+472691225
2848+471671588+469871298+468036764+466738959+465908676+465200950+464536380
2838+464065449+463775491+463409760+462768832+461933452+461167653+460655411
2828+460372709+460203056+459991279+459455645+458463966+457517944+457336470
2818+457784916+457941278+457393824+456652542+456142990+455688758+455144117
2808+454758060+454691918+454690511+454384260+453669592+452784364+452112695
2798+451824895+451620279+451000679+449907708+448804417+448007596+447306094
2788+446404291+445411079+444713235+444547523+444740380+444834572+444526226
2778+443876166+443052357+442170100+441446019+441091108+440973524+440724658
2768+440169135+439442645+438788989+438382542+438229932+438088081+437588347
2758+436661120+435738021+435252767+435009655+434406880+433337770+432459703
2748+432402036+433020667+433611560+433647210+433093157+432155297+431053132
2738+430044753+429336089+428851398+428311542+427613761+426930302+426384411
2728+425925488+425594564+425578834+425888868+426273300+426530703+426571389
2718+426170570+425081821+423453185+421832242+420713440+420216647+420140842
2708+420192911+420200323+420193286+420268872+420307618+419928941+418980198
2698+417938451+417412856+417354095+417206208+416657221+415779498+414750729
2688+413843454+413363610+413319547+413386658+413313449+413159870+413094073
2678+413123188+413086005+412849836+412424343+411859469+411156215+410351733
2668+409552066+408797963+408055399+407440490+407244099+407551257+408032477
2658+408307017+408340635+408269647+408055212+407615584+407092240+406650924
2648+406176240+405452940+404551732+403807323+403456885+403410852+403332733
2638+402912682+402138940+401332550+400840916+400709447+400729868+400733589
2628+400701848+400649185+400559621+400439785+400296401+400058637+399623262
2618+398984304+398289650+397765868+397562535+397631866+397783037+397839765
2608+397721993+397434537+397060769+396739445+396570293+396523665+396443921
2598+396196556+395870197+395714429+395779132+395794424+395542681+395111966
2588+394633623+394076755+393483831+393110407+393081323+393122759+392905948
2578+392508413+392273619+392325907+392484521+392577587+392577931+392472137
2568+392204070+391762284+391237783+390765163+390408501+390147940+390014657
2558+390125079+390502725+390975126+391285536+391227432+390731952+389960336
2548+389261992+388920904+388946016+389123737+389243010+389239539+389131961
2538+388959369+388866302+389044148+389438775+389744056+389818172+389814138
2528+389810385+389689580+389444873+389201230+388928378+388529373+388157357
2518+388077112+388308058+388659936+388951770+389045650+388880688+388559739
2508+388272596+388173743+388322788+388612245+388861830+389046275+389191567
2498+389133619+388770359+388380141+388286606+388435024+388554610+388475804
2488+388218088+388009501+388112105+388440591+388578002+388286637+387753911
2478+387307623+387144068+387330702+387818082+388377233+388702341+388673320
2468+388423141+388136091+387945705+387999306+388342052+388686048+388588134
2458+387974444+387290454+387020855+387208614+387555550+387816550+387918373
2448+387874592+387787904+387785747+387860300+387935917+388008469+388008000
2438+387736962+387190038+386742468+386814457+387404536+388011283+388090465
2428+387662314+387266656+387253146+387485281+387802727+388277224+388853418
2418+389203638+389161170+389001774+389107538+389526651+390001491+390308649
2408+390431799+390486933+390601890+390823174+391092961+391351677+391600887
2398+391819575+391933157+391955235+392059497+392386044+392817728+393071879
2388+393046329+392914547+392797526+392548222+391986414+391155568+390255423
2378+389521147+389198509+389408191+390007401+390735861+391446808+392114130
2368+392787019+393607919+394626274+395565760+396074938+396225514+396518193
2358+397326929+398413082+399220223+399786723+400760358+402172902+403176090
2348+403228377+402896983+403356469+404963558+406738956+407698800+407856225
2338+407843779+408098305+408447243+408534055+408414438+408276777+407947666
2328+407206009+406180962+405126769+404204671+403528405+403104882+402821398
2318+402613061+402458075+402259182+401961688+401710070+401709820+401970507
2308+402289173+402511801+402717918+403036146+403387429+403598173+403657278
2298+403665722+403685830+403812952+404196227+404824615+405453597+405877213
2288+406154474+406434769+406656271+406600825+406245633+405885625+405817764
2278+406011684+406205792+406238660+406155819+406042457+405874774+405559485
2268+405105691+404751062+404821363+405376948+406112945+406717753+407186714
2258+407678879+408215358+408639318+408854535+409054021+409571361+410416216
2248+411178888+411564696+411741791+411948502+412053202+411752487+411025841
2238+410187271+409534678+409083636+408684757+408291694+407993668+407850252
2228+407829988+407893158+408038137+408283594+408673342+409260857+410031378
2218+410888555+411757553+412625800+413459241+414210592+414970168+415969603
2208+417372733+419173336+421293981+423651358+426099332+428428282+430547301
2198+432632577+434909990+437282722+439440925+441353827+443283679+445288022
2188+447170965+448956652+450861736+452730731+454060216+454687071+454992040
2178+455431980+456264827+457478916+458592433+458943622+458498428+457827728
2168+457206377+456409993+455340477+454176486+452979160+451667907+450273971
2158+448835221+447138942+444941711+442416495+439968929+437651017+435230689
2148+432666632+430066988+427674273+426258946+426682969+428779596+431548081
2138+434480870+437757625+441345321+444853023+448057695+450976537+453624059
2128+455983125+458162531+460478878+463199610+466232408+469339573+472476352
2118+475625234+478622633+481343614+483819169+486280090+489123377+492440380
2108+495740808+498647391+501544405+505155993+509951118+516110344+523460487
2098+531215233+538204617+543690111+547846903+551233768+553969979+555685459
2088+555991866+554707758+551891927+547821385+542866459+537532135+532496401
2078+528212018+524592580+521308789+518148774+515064689+512125645+509401849
2068+506881605+504545306+502289908+499840621+497095529+494285139+491557278
2058+488902938+486485299+484461943+482701462+481069824+479598394+478247520
2048+476944524+475772871+474872664+474368177+474361078+474779409+475480599
2038+476630705+478719608+482169299+486974994+492654439+498750246+505439572
2028+513191158+521836761+530489588+538259907+544723164+549966360+554325609
2018+557890226+560483710+562154658+563144993+563405930+562671028+560898883
2008+558284009+554977702+551011734+546363840+541068858+535453521+530208136
1998+525899861+522406889+519201560+516166072+513669658+511888193+510585948
1988+509566154+508862181+508510335+508454263+508680738+509266377+510193229
1978+511244513+512244793+513268057+514449560+515815008+517433199+519435134
1968+521725087+523917659+525696152+527086586+528346052+529775514+531662116
1958+534147835+537011637+539779934+542204985+544478176+546906729+549573703
1948+552357386+555199861+558280256+561669623+564829575+567074997+568617040
1938+570320948+572573938+575070978+577452497+579684347+581979804+584527881
1928+587215057+589786462+592250791+594688976+596883174+598731060+600576008
1918+602489879+603868993+604404877+604702590+605434803+606615274+607935345
1908+609291817+610676059+611932647+612920105+613671831+614259065+614707511
1898+615171093+615971542+617278666+618917716+620597107+621985415+622585595
1888+622246727+621720412+621849943+622458754+622659711+622058905+621161825
1878+620610617+620416728+620192130+620084052+620951549+623235060+625845056
1868+626628305+624531365+620702933+617002906+614348316+612446078+610655482
1858+608842808+607246414+605914584+604669004+603451381+602439406+601883445
1848+601996338+602801665+603639016+603087683+600565813+597366520+594939906
1838+593432013+591970528+589926938+587885725+587013162+587450851+587831999
1828+586995462+585264972+583190485+580797832+578451964+576835618+575932908
1818+575059907+573898200+572954774+572916684+573793062+574716224+574733173
1808+573806259+572666442+572071578+572593827+574407752+576693766+577952918
1798+577764658+577492588+578723846+581604536+584460958+585415955+584817901
1788+584447323+585167652+586574035+588126210+589914742+592053337+594077913
1778+595667865+597467530+600459737+604516770+607725007+608335882+607240972
1768+606225244+605888503+606436583+608302233+611128196+613452236+614546959
1758+615074899+615555682+616350939+618577910+623083139+628564130+632065890
1748+632504141+631633705+631315665+632180785+634094719+636511576+638533963
1738+639870421+641800617+645935393+651265525+653882526+652661901+650030203
1728+648119896+647884852+649361786+651856261+654742330+658523477+664411885
1718+672053675+677723363+678142226+675181229+672473413+671799368+673326900
1708+676853490+681945452+687238370+691724461+696579128+703198872+709604150
1698+712566649+712613995+711400375+709473307+707890985+708077994+710570718
1688+715110034+721754546+730289226+737239019+738525066+736107021+734047169
1678+734377281+737402512+742075548+746896316+751599437+756333768+759557516
1668+759705246+758673695+759550948+762855004+766365708+768081000+768859808
1658+770636143+774401342+780472318+787514303+790682511+789010062+787675606
1648+788579754+788698714+784718424+778835770+774934787+773957899+775192034
1638+778069659+781740289+783599497+781496052+776996327+772533316+769296683
1628+767814996+768245930+770282640+772719887+773648552+772774551+772061665
1618+772765044+773216555+770957249+767054201+764307420+763858286+765061210
1608+766446953+766897089+766401046+765782415+765781539+766490860+767544365
1598+768517062+769132441+769449480+769839635+770459267+770943051+771032177
1588+771210242+772254428+774321160+776747461+778658205+779808780+780996194
1578+783295154+786095161+786494822+783707449+780698856+779484485+778850969
1568+776287444+771647618+766954880+764322055+765709863+772922657+784407889
1558+790235566+785204147+777237375+771382178+767772966+765808433+765343663
1548+766388224+769061765+773361847+778630436+784078215+789198010+791899758
1538+790263398+786871342+785041343+785216218+785473590+784719487+784343092
1528+785947868+789761789+795338661+802769111+811578738+818715103+821475956
1518+821608051+821959991+823405339+826128791+830624951+837064066+845399353
1508+855387449+863563559+864477464+860842046+858908598+860504742+864526562
1498+869436893+873943811+877041094+879219717+882258083+886882147+891418898
1488+893906244+894843290+895742122+897403438+900376506+904896871+910547358
1478+917301261+926138032+937124657+946813226+949632934+945320718+940236012
1468+938959222+941208521+943863674+944341329+943448502+943552889+945416662
1458+947098430+944995673+939424868+935006514+934052893+935866630+938840136
1448+941562587+942819238+941926848+939613003+937583798+937422370+939833098
1438+944093651+947615863+948001515+946813226+947132329+949116314+950247562
1428+949207879+947619991+947016559+947254229+948251882+950901593+954873127
1418+957177904+956088624+953461616+950811591+947915328+944874899+942850198
1408+942537536+943301021+943905642+943644580+943102003+943905642+947376442
1398+953020049+958440809+961095337+960297890+957914182+956619504+957557676
1388+959653554+960766664+960420103+960693361+963301668+967253063+970220377
1378+971854798+974357655+979193746+984713264+988287639+989797971+990837591
1368+992018625+992930341+993599946+994710742+996545682+998309009+998611726
1358+997038160+995427506+996257413+999444760+1002198171+1002869840+1003220216
1348+1005627629+1009999700+1014751794+1019339019+1024170419+1028832260
1340+1032063389+1033537320+1034263215+1035146348+1036339641+1037839341
1331+1039891249+1042875513+1046607000+1049881347+1051492877+1051588445
1322+1051714786+1053592256+1057536959+1061714453+1063799697+1063906023
1314+1064187725+1065388586+1066329010+1066917307+1068898977+1072350326
1305+1073741823+1070507755+1065935978+1065083868+1067921276+1069999516
1297+1068968402+1067131585+1066578189+1065626256+1060908250+1051513642
1288+1040228929+1030566566+1023949824+1019730612+1016859367+1014681681
1280+1012509061+1009736512+1006590257+1003830904+1001606622+999458207+997137294
1270+994548939+991328068+987318882+983152083+979727316+977322405+975118262
1260+971347560+964841209+956786874+949697793+944520457+939711886+933513631
1250+926407038+920220166+915359995+910104791+902723313+893458047+883885874
1240+874981055+866647081+858994221+852965213+849174809+846853457+844649002
1230+842083539+839495809+837057937+834688676+832539886+830964132+830170500
1220+830159055+830707385+831205555+831144511+831121745+832480719+835649928
1210+839522140+842733567+845295591+848438844+852775202+857383192+861549741
1200+866055470+871284905+875806646+878617598+881081990+884622652+888396482
1190+890915663+892367954+894033272+896333733+898533623+900388202+903202281
1180+908396442+915646826+923568128+931721722+940702659+950805024+961366031
1170+970533476+976134741+978441394+980357580+983436099+986091877+986671355
1160+986289457+987702344+992340168+998802112+1003983138+1005655899+1004225812
1150+1001355505+997465216+992594726+988769609+988437246+990529621+991476237
1140+991196036+993890780+1001503423+1009711931+1012657543+1010613265+1008912734
1130+1010828106+1014994280+1018900892+1021976534+1024540622+1026064902
1121+1025538149+1023074384+1020638638+1020093309+1020892445+1021598451
1113+1022742396+1025947756+1030697973+1034345900+1035934601+1036759692
1104+1037142904+1035723262+1032780840+1030907248+1030578825+1029743413
1095+1027963450+1026836768+1026740699+1026528922+1025916295+1025798649
1087+1026807747+1028244151+1028416087+1026389947+1023228306+1020162422
1078+1017190729+1014949123+1014120966+1012033283+1004610525+993190653+984027085
1068+980689693+981450801+983010544+983557186+981452115+974911927+965872323
1058+960284506+961712342+967076749+970761202+971895453+973507420+975988136
1048+976243569+972450288+967307227+965316237+968179039+973956930+979646383
1038+983829631+986249240+986367888+983902433+979558570+974698649+970770646
1028+968358543+967080314+967156806+969812147+975097185+980748047+984395662
1018+985859211+986431121+986417736+985035120+981996442+977268554+970516777
1008+961997921+953100732+945254796+938947088+934145271+930909390+928778049
998+925719983+919165097+908946211+898185748+890549463+887489019+887987314
988+889644689+889728374+886521451+880754755+874878544+870434483+867299174
978+865181406+863623352+860975141+856126541+850734176+847288707+845924604
968+844672582+841904223+837817544+833769267+830450013+827546933+825365744
958+825365869+828237740+832596176+836518363+839671247+843101018+847503048
948+852232500+855842838+857780852+859383876+862532070+867637604+873541273
938+879087498+884586376+891521660+900826328+911588855+921792856+930301266
928+936973611+941406851+943300833+943422170+942457854+940128122+936614916
918+933261388+931237625+930654207+930895442+930826393+929126111+925319946
908+920532265+917138645+917190057+920202528+922746914+921993875+919591528
898+919955664+924905086+931434391+935372526+936567945+938180476+941811078
888+945735203+947906197+948638847+949392762+950958447+954087127+959462604
878+965076816+966799050+963411497+958834216+957805604+961111786+966166659
868+970033055+971128778+969322671+966019304+963680815+963970523+966642062
858+969762236+971074927+969940864+968326207+969113146+972384428+974529966
848+973106758+971183380+973730768+980895903+987625352+989639545+988160548
838+988128274+991908484+996671773+998266979+996577455+995163442+996004357
828+997570479+998171973+998670080+999798889+1000147139+999238237+999220037
818+1002198546+1007772416+1013758332+1018223907+1019590011+1017481250
810+1014088881+1012534830+1014075872+1016967569+1018144725+1017279605
801+1017806108+1020702121+1021382421+1016204335+1007620745+999922227+994920267
791+992296137+990519176+988053784+984830724+981598845+978405931+974705654
781+971088187+968316512+965022714+959662060+953281862+948447585+945789242
771+943506668+940797664+939483160+941302338+945992450+952225980+959397182
761+968535607+980121223+990907079+996139516+995786263+993420443+991442087
751+990826396+991717284+993211918+993740359+992800936+992263926+993917674
741+996182109+995471162+991524959+988786872+990227279+992630314+991809288
731+989350901+987979043+986472838+983228825+979234150+976220865+975560579
721+978328063+984642088+993357022+1001252806+1003256742+997119344+987329952
711+980193525+978091831+980411806+985122683+987887477+984602998+978338758
701+977387702+984301344+992447433+993322747+986034336+976092836+967092760
691+959920245+956760980+960151223+968849457+976493561+975872303+967707951
681+960748338+961624216+968433096+972032363+965691756+952426436+937358011
671+921788978+908772586+907855992+923821247+941764482+947629999+945037953
661+943309464+945416162+949026374+953942773+961413502+968074089+967151740
651+956665037+941919906+929300924+921251405+917303325+916417628+918214791
641+923035621+929825613+936296438+942057692+949584649+960620622+970344841
631+968099857+949079475+922571038+901628028+892558715+894844103+903233366
621+911487657+917707553+925776711+937193519+943818579+934681656+912514581
611+890961133+878952964+878591205+886419753+893703348+892355945+883869800
601+876085971+876013545
##END=
