##TITLE=<SNM>
##JCAMP-DX=4.24
##DATA TYPE=INFRARED SPECTRUM
##DATE=29/4/2025
##SAMPLING PROCEDURE=Instrument type and / or accessory
##ORIGIN=Admin
##XUNITS=1/CM
##YUNITS=ABSORBANCE
##RESOLUTION=4
##FIRSTX=4497.3318
##LASTX=599.83466
##DELTAX=-1.4281778
##MAXY=2.170212
##MINY=0.59873807
##XFACTOR=1
##YFACTOR=2.0211675e-09
##NPOINTS=2730
##FIRSTY=0.61629367
##XYDATA=(X++(Y..Y))
4497+304919648+303331600+301799377+300919743+301070379+302243146+303670649
4487+304453850+304814544+305716856+307248047+308362364+308163482+306670717
4477+304483871+302277443+300619445+299881718+300119763+301162861+302652293
4467+303931962+304313978+303663188+302573643+301971158+302423803+303586307
4457+304549840+304702924+303900967+302125362+299836686+298449968+299403534
4447+302614310+306145644+307509920+305834227+302813988+300904055+300977456
4437+302109939+302863413+302568924+302006870+302517198+303933289+304554116
4427+303771240+302906145+302802251+302830561+302615283+302860052+304176966
4417+305991263+307090333+307099328+306636007+306057557+305221362+304356503
4407+303838507+303232424+301933735+300478216+299831053+299791891+299375931
4397+298569138+298525021+299747655+301065956+301191348+300563826+300565655
4387+301463720+302106901+301565785+300384673+299824212+300365121+301444374
4377+302483609+303544077+304750492+305770322+306194981+305931751+305156188
4367+304255911+303742752+303784334+303903887+303575189+302966954+302717525
4357+303174476+304046266+304527044+304001264+302990634+302748549+303635880
4347+304730468+305025399+304200116+302526989+300843334+300059278+300080275
4337+300050254+299746623+299757210+300551263+301994131+303379993+303839539
4327+303235904+302562643+302824427+303641277+303460620+301371592+298403138
4317+296516885+296572297+297693132+298557725+298837234+299050684+299578470
4307+300392901+301349357+302163404+302444122+302278534+302378064+303102491
4297+303812349+303739361+302971112+302148128+301708312+301798345+302520914
4287+303774808+304988065+305330240+304335653+302321560+300172845+298684297
4277+298168809+298573473+299661839+301014849+302040696+302250607+301658680
4267+300843806+300442091+300578306+300854482+300890578+300779901+301035257
4257+302121794+303878968+305408654+305904679+305664039+305774156+306558477
4247+306895285+305783416+304158948+303885426+305098388+305939920+305005081
4237+302697678+300090331+297864853+296471854+296233779+297106601+298778312
4227+300843777+302815020+304217515+304768274+304599148+304252520+304104391
4217+303812644+302811924+301354016+300468956+300711189+301416359+301563515
4207+301124081+300998925+301781772+303205264+304666651+305673506+305794239
4197+304867302+303504648+302820328+303246462+304060332+304303361+303826092
4187+303177248+302699212+302232765+301635972+301172416+301263157+301980742
4177+302882140+303364069+303282115+303195591+303699284+304495667+304591510
4167+303622904+302488121+302304220+303132571+304045882+304230167+303782122
4157+303366133+303286598+303257314+303093054+303145576+303733345+304506372
4147+304878774+304858013+304772934+304426512+303443279+302283606+301849894
4137+302202685+302583610+302538402+302350343+302471105+302915169+303258081
4127+303252242+303261944+303673421+304113238+303889348+303041564+302310708
4117+302228932+302685912+303224197+303521841+303595685+303601671+303558527
4107+303346434+302892668+302369747+302209144+302696587+303511933+304038569
4097+304090265+303792443+303062649+301993688+301360327+301814476+302886740
4087+303558881+303415205+302708059+301839985+301222696+301187898+301727923
4077+302448280+302825283+302602101+302041698+301621138+301403560+300997745
4067+300257393+299724682+300105607+301335496+302385466+302265234+301208806
4057+300504226+300988249+302110971+302822628+302999393+303319008+303926270
4047+304046148+303087244+301542311+300597415+301001933+302347158+303433164
4037+303345018+302228725+301018182+300516406+300813667+301537180+302354442
4027+302953447+302980696+302511743+302141877+302195696+302371812+302366621
4017+302295609+302258717+301960659+301156609+300316787+300232002+300864479
4007+301337413+301334464+301528539+302248041+302903432+303051030+303024548
3997+303324257+304013767+304711181+304928436+304498144+303631633+302707086
3987+302250253+302703282+303769883+304436539+304060568+303079901+302397380
3977+302317815+302283754+301647119+300578984+299923800+300213954+301252010
3967+302560166+303769824+304648750+305073468+305096618+304926224+304626043
3957+303979116+302900630+301821289+301262921+301207981+301313733+301503443
3947+301889322+302326928+302496201+302414101+302546364+303147817+303747972
3937+303687635+303076952+302905437+304074104+306339512+308332697+308964082
3927+308556439+308136941+307992881+307496531+306305923+304999861+304339516
3917+304419494+304652024+304402389+303706067+303334578+303914444+305110892
3907+306155788+306958600+308034285+309463734+310684481+311357536+311546333
3897+311260366+310595421+309969609+309740176+309668367+309113450+308032103
3887+307126488+306878063+307134568+307813698+309167210+310708044+311227868
3878+310671801+310195888+310300932+310555875+310894717+311598206+312095499
3868+311650286+310626238+309664917+308756913+307759171+306789563+305675688
3858+304285874+303741838+306215477+311430436+314368486+312755520+309585824
3848+307386562+306627130+306777413+307133241+307388066+308136823+310110602
3838+312388662+312936472+311718467+310551658+310295653+310366901+310398633
3828+310645377+310817659+310380408+310012577+310959183+312728359+313650488
3818+313683635+313573578+313134764+312207916+311403305+311200855+311657658
3808+312660679+313642261+313958985+313963232+314564714+315634619+316063466
3798+315691653+315017035+314194229+313513860+313756299+315290852+317440629
3788+319510222+321802437+324685842+327549547+329666678+331111639+332243650
3778+333425736+335365867+338514182+342424436+346499482+350719235+355102630
3768+359087700+361889063+363025557+362902465+363049326+364840414+367825707
3758+370194715+371566393+373589509+377922328+384910652+392675246+398356711
3748+401874539+405201477+409542140+413634673+415675543+416640020+418708374
3738+423299616+430338781+438131892+444549639+448287936+449476863+449660469
3728+450560009+452785664+455708350+458075086+458597387+457102588+455097342
3718+454034250+453679601+453158096+452575959+452615741+453384698+454432043
3708+455367060+455926784+456118146+456509687+457607136+458849411+459288549
3698+459094651+459369942+461001311+464067496+467948525+471312503+472643513
3688+472060816+471211558+470806863+470441922+469795615+468812352+467652178
3678+467124421+468074832+469587473+470335109+471276348+473538807+475951813
3668+476799126+476299001+475305830+473956771+472164976+470447909+469464292
3658+469153466+468776492+467997567+467833336+469782963+473913067+477797841
3648+479076124+478542262+477800731+477160056+476151757+474477834+472551268
3638+471235651+471061099+471812214+472940804+474434277+476946400+480305895
3628+482283125+481550146+479736468+478533563+478248098+478670663+479774953
3618+481589456+483946490+486344929+487916078+488464921+489081000+490293874
3608+491097836+491205239+491914744+493784069+495739506+496836128+497887513
3598+500466550+504625259+508369748+509611227+508470546+506956518+506950738
3588+508817055+511157988+512330106+512036796+511068102+510482249+510897648
3578+512234970+514184686+516323787+517647426+517119256+515149369+513393228
3568+513053265+514023787+515514812+516646764+516459619+514554375+511837914
3558+509989055+509800790+510535450+511265037+511952631+512587496+512432260
3548+511265686+510228044+510319817+510974205+511025400+510276821+509468258
3538+509154423+509014640+508547220+508355829+509809165+512862109+515088973
3528+514076103+510355383+506432006+503741791+502183823+501421502+501156149
3518+501074992+501450638+502733875+504254567+504631628+503673905+502833257
3508+503444294+505169766+506369840+505778915+503819291+502085680+501813308
3498+503282923+505873992+508144325+508616109+506921012+504045009+501628936
3488+501007990+502360529+504504408+505803097+505573605+504583265+503789211
3478+502900494+501042906+498406364+495961154+493784334+491269823+488880585
3468+487994375+489014058+490908744+492648195+494125448+495568344+496802215
3458+497316052+496659777+494662966+491699465+488764453+486694712+485259099
3448+483696000+482315918+482478645+484442397+486455487+486758086+485807971
3438+485311621+485712541+486050410+485621917+484562659+483404637+482771070
3428+482765968+482550129+481537937+480446651+480061156+479925766+479388838
3418+479065507+479870501+481259667+481637702+480468238+479072437+478944892
3408+480133967+481480165+482075484+482167995+482523706+483396232+484383388
3398+484901206+484488727+482933413+480604925+478439047+477111280+476534451
3388+476463763+477061913+478365823+479693177+480381744+480673018+481148754
3378+481720304+481941716+482159325+483265591+485113948+486428179+486659412
3368+486634552+486978998+487507963+488391254+490151849+492178888+492816525
3358+491547473+489782926+488985039+489205803+489816988+490658550+491876642
3348+493240948+494212090+494558305+494629022+494806612+494763291+493717303
3338+491601971+489502740+488610809+489008337+489815454+490338020+490543656
3328+490651472+490729149+490823193+491163776+491876318+492775474+493391731
3318+492938437+490773532+487403981+484568940+483947168+485884115+489190999
3308+491960159+492927614+492311682+490999987+489390795+487727076+486768526
3298+487278530+489146675+491530074+493566313+494612950+494357889+493211222
3288+492226013+492249310+493305060+494774822+495977256+496681423+497164354
3278+497669109+498046760+498205654+498510110+499157361+499603784+499241114
3268+498098073+496622973+495346873+494560871+493911496+492982673+492271959
3258+492530411+493478550+494187348+494316456+493981358+492941032+491099340
3248+489346530+488787838+489378704+490098531+490397709+490681611+491208158
3238+491491884+491275072+491068965+491045844+490416730+488710544+486712966
3228+485356830+484555699+483826966+483447103+484083561+485335951+485756127
3218+484863193+483975420+484121544+484393945+483331501+481095407+479264861
3208+478946603+479775631+480569301+480676085+480370242+479907187+479089984
3198+478143761+477834999+478221055+478527488+478549606+478746423+478796262
3188+477703590+475609019+473947452+473430371+473099462+471908057+470360087
3178+469604076+469507053+468899791+467452942+465977577+465017965+464391299
3168+463961331+463837856+463898163+463720514+462977568+461763839+460594110
3158+459930404+459754848+459763371+459705629+459308455+458222183+456329355
3148+453881078+451462497+450045788+450350156+451843806+453129313+453389328
3138+452742461+451566067+450308133+449481670+449212719+449120061+448814926
3128+448235738+447571501+446980576+446318314+445411579+444663707+444730090
3118+445461742+445916835+445591086+444925521+444479128+444285142+444065911
3108+443644260+443031513+442253768+441282301+440194054+439259863+438801231
3098+438978792+439642115+440328146+440594885+440459878+440292964+440274945
3088+440247077+440037520+439630702+439077230+438487249+437975918+437419940
3078+436533759+435381311+434474871+434135202+434072034+433860206+433585564
3068+433652448+434046113+434200405+433687423+432794814+432212854+432225240
3058+432440607+432352313+431895716+431279017+430580423+429796072+429087334
3048+428736519+428890192+429382649+429741545+429491468+428657515+427804569
3038+427374956+427189492+426816087+426218969+425747421+425638986+425802951
3028+425992219+425976354+425539545+424505706+423045027+421845719+421547691
3018+422009184+422529332+422743755+422800406+422728184+422312933+421644360
3008+421144059+420897403+420496808+419702873+418766470+417946701+417220977
2998+416584785+416186785+416073424+416041457+415718303+414827611+413624617
2988+412847550+412925905+413502999+413899583+413759859+413253305+412870257
2978+412847579+412825697+412449314+412032588+412066914+412425869+412547369
2968+412102096+411201200+410134067+409077728+408091664+407354026+407109758
2958+407279445+407510147+407677268+407915490+408168398+408170344+407887975
2948+407558747+407247183+406749889+405999364+405211916+404603592+404218509
2938+403988544+403760408+403429941+403209855+403452707+404047053+404384568
2928+404122253+403574207+403129465+402674048+401867933+400785967+400031077
2918+400159654+401001069+401717150+401686215+401069250+400364228+399867524
2908+399728507+399958324+400243554+400228691+399973394+399795420+399852396
2898+400097076+400379209+400461191+400173249+399621074+399081816+398683787
2888+398261576+397562363+396582138+395594865+394855899+394376300+393979421
2878+393575346+393384604+393690889+394300333+394630712+394436047+393976325
2868+393497020+393022434+392537822+391996588+391346476+390756525+390575396
2858+390980975+391742471+392240914+391882254+390805597+389915995+389855923
2848+390260264+390377871+390128619+390061264+390465044+391020315+391280566
2838+391122823+390636883+389875711+388953730+388210635+387933221+387957580
2828+387887098+387654332+387467807+387319618+387026751+386645974+386398492
2818+386263692+386004296+385535933+385041647+384737869+384614157+384454202
2808+384184308+384106542+384507904+385064650+385047457+384233409+383183322
2798+382495050+382279919+382416016+382709532+382752794+382219405+381343575
2788+380658665+380382342+380325220+380173257+379732614+379092559+378563947
2778+378372349+378462854+378569550+378422128+377970427+377401059+376903795
2768+376555605+376427647+376564953+376834493+376962569+376705002+376032153
2758+375259392+374811170+374772686+374853902+374769855+374466961+374060202
2748+373706851+373466889+373238045+372849010+372219984+371519061+371119881
2738+371192339+371447694+371530120+371416022+371238550+371093724+371116166
2728+371325104+371412926+371074231+370405570+369699220+369050613+368430021
2718+367989201+367992592+368387112+368675261+368416426+367711344+367007502
2708+366623303+366632180+366953800+367320865+367345961+366865565+366121586
2698+365431958+364843009+364320089+364064438+364245301+364542091+364429202
2688+363910293+363538657+363657591+363966619+363943322+363468795+362889312
2678+362590753+362659289+362875245+362897157+362521982+361877651+361318575
2668+361110227+361263665+361611059+361941674+362111243+362073171+361806756
2658+361324621+360812288+360544369+360513847+360376039+359938994+359460928
2648+359261693+359304070+359377707+359437100+359508201+359451963+359048449
2638+358257581+357314218+356613708+356462748+356850367+357494551+358121985
2628+358588991+358765461+358549652+358091492+357753416+357681873+357622509
2618+357323537+356913535+356657118+356536945+356349623+356102672+356033813
2608+356215059+356375280+356280911+356135436+356318334+356830667+357327577
2598+357600421+357670047+357505551+357037335+356420783+355990315+355933045
2588+356159883+356463102+356692801+356808048+356817662+356701618+356435174
2578+356108954+355939414+356047555+356282445+356369883+356216504+355976631
2568+355857255+355942894+356149267+356279083+356149562+355720214+355146747
2558+354722796+354707166+355130203+355734487+356136763+356124171+355793792
2548+355375739+355016725+354796404+354798379+355014218+355247574+355252823
2538+355003867+354770128+354835626+355150935+355393226+355368189+355175235
2528+354998765+354925866+354947482+355024068+355140023+355283729+355396293
2518+355414695+355336015+355180661+355005666+354994607+355308796+355812960
2508+356194151+356334937+356323377+356169025+355794382+355301748+354994696
2498+355062730+355390808+355727498+355901608+355864657+355690812+355544835
2488+355535664+355644601+355820038+355994030+356017504+355794971+355476035
2478+355328171+355429322+355624547+355787923+355974508+356201169+356238887
2468+355901726+355428261+355219146+355283316+355293608+355108292+354908496
2458+354868153+354960605+355096968+355268542+355497976+355756723+355948379
2448+355904439+355488716+354848719+354431875+354551871+355036808+355462941
2438+355609861+355516672+355264826+354975733+354925836+355345275+356049649
2428+356520195+356452220+356024848+355586535+355346219+355420269+355860469
2418+356508782+357042201+357280098+357319998+357354502+357501216+357795263
2408+358171764+358460060+358555550+358564544+358647441+358818189+359020197
2398+359275464+359657569+360211867+360974100+362067833+363811530+366686943
2388+371156656+377592333+386364932+397841694+412320560+430095162+451352823
2378+475645440+501648281+527906479+553782483+579340406+604246477+626655908
2368+643711451+654433087+661154731+666542945+670479239+670423326+663772340
2358+650003953+630871179+607615380+579940001+550566399+526517726+513504052
2348+513142443+523959451+541564750+559446903+573265483+582732311+588527903
2338+591135781+591766576+592089730+593125662+594628365+595289181+593472938
2328+588736340+582872035+577869258+573056928+566215259+557251416+548230126
2318+540207433+532368170+523663074+513894856+503647540+493868617+485177942
2308+477242039+469100973+460282458+451302837+443003645+435791815+429618011
2298+424295294+419596826+415285358+411270414+407626279+404379644+401401634
2288+398563143+395915424+393645444+391870753+390542573+389527580+388686725
2278+387902345+387145774+386472483+385862596+385183082+384396991+383667315
2268+383173885+382954242+382934513+382964062+382848903+382536248+382217636
2258+382061220+381926833+381560653+380985417+380471462+380192219+380111416
2248+380137161+380209942+380285113+380356243+380462379+380600186+380678247
2238+380626963+380480663+380266298+379918579+379413147+378860117+378357073
2228+377865589+377340870+376889581+376665751+376639386+376599840+376409835
2218+376105319+375711153+375196018+374648768+374231658+373970935+373826198
2208+373826050+373924577+373967102+373984324+374224020+374752514+375323120
2198+375725750+375994259+376224518+376445872+376732074+377217807+377919910
2188+378694028+379402560+379982779+380357069+380455330+380350729+380246156
2178+380324453+380657840+381182264+381703710+382023118+382127720+382177057
2168+382248512+382253496+382201593+382313331+382697500+383124076+383280669
2158+383104023+382800067+382663351+382853268+383267399+383707363+384152636
2148+384720794+385414610+386094359+386670627+387184022+387735666+388463632
2138+389525486+390967468+392645432+394380842+396138487+397945765+399749327
2128+401505764+403349963+405501421+407945363+410312070+412240494+413804654
2118+415324462+416859338+418206952+419264412+420055015+420522995+420537091
2108+420000429+418933001+417572559+416304775+415362917+414642766+413811614
2098+412572111+410919008+409170416+407664911+406476781+405503191+404703918
2088+404102259+403609094+403049724+402438067+402027092+401926088+401873359
2078+401620953+401344187+401392905+401773447+402121991+402147677+401951656
2068+401894474+402203502+402740224+403220826+403660938+404369912+405381013
2058+406193881+406375924+406171763+406180286+406646585+407354969+408050820
2048+408694179+409305835+409784756+410045921+410258723+410718357+411505627
2038+412477300+413513468+414580247+415653248+416749517+417966076+419364620
2028+420824267+422103228+423122881+424106114+425328483+426847170+428540556
2018+430216396+431655548+432778594+433775363+434938132+436428626+438198599
2008+440003871+441562724+442805854+443896313+445034045+446356091+447895067
1998+449508388+451006962+452394476+453760994+454986253+455902867+456748233
1988+458018966+459806073+461634643+463075328+464222733+465435075+466885580
1978+468532726+470336731+472293111+474302220+476255651+478312563+480755473
1968+483425103+485702160+487291918+488608331+490222507+492394520+495131182
1958+498259916+501440257+504344748+506803877+508782316+510403157+511984363
1948+513888958+516327385+519312620+522649967+525873247+528406043+530046642
1938+531246303+532811113+535279620+538510980+541882654+544850312+547302246
1928+549505165+551851287+554578188+557536822+560233466+562301024+563904465
1918+565492749+567201117+568760913+570063377+571427653+573157195+575116229
1908+576871014+577997304+578291439+578125469+578448327+579884146+581978423
1898+583815250+585107452+586169276+587161327+587951664+588527549+589106029
1888+589883980+590842766+591761563+592400675+592703126+592783634+592793012
1878+592903954+593255773+593750618+594072179+594067166+593949382+593972738
1868+593989725+593592610+592669566+591488484+590429254+589791558+589552393
1858+589251828+588451169+587273979+586170574+585347148+584705146+584051584
1848+583200025+582190163+581385375+580944437+580370027+579165706+577489129
1838+575825999+574466914+573390285+572536544+571963372+571601409+571056430
1828+570008820+568672324+567432320+566279076+564897990+563189505+561466510
1818+560188523+559541330+559233217+558765089+557914769+556904021+556113625
1808+555723587+555710376+556095931+556995382+558340666+559658584+560380563
1798+560434353+560324118+560691036+561811781+563144621+563665182+563277268
1788+562939605+563368864+564560328+566224578+568061287+569633469+570626581
1778+571300137+572172811+573511667+575490460+578273096+581449487+584018084
1768+585252190+585280500+585139655+585992984+588033706+590346682+592110314
1758+593274174+593880552+594087278+594677142+596402142+598932755+601004324
1748+601990300+602555863+603609902+605570942+608315949+611181807+613203951
1738+614187449+615249332+617524089+620396966+621873717+621788609+621600225
1728+622065286+623091781+624398374+625666276+626686047+627826905+629931031
1718+633337150+636831386+638557801+638279945+637194351+636592397+637114728
1708+638504306+639966843+640993398+641986510+643880666+647109371+650727938
1698+653316706+654582190+654658451+653978820+653593973+654152576+655480402
1688+657321889+660042360+663964735+667744258+669341035+669228441+669173590
1678+670236004+672541607+675185168+676877611+677603896+678615587+680651473
1668+682932422+684619557+686194334+688310846+690509459+691765801+692038231
1658+692262180+693492157+696530474+700933952+703780582+704043989+704544968
1648+706734262+709342435+710160670+709284988+708482383+708808839+710470259
1638+713251244+716566297+719343154+720748480+721143236+721571257+723220349
1628+726967080+732567270+738929487+745073948+750182950+753932099+757375434
1618+762417905+769437459+775544350+778377356+779234636+780194543+781720897
1608+783103810+783865719+784010339+783879226+784465786+786863045+790744428
1598+794150193+795456314+795130506+794985886+796089764+798122583+800584248
1588+803416782+806081045+807498581+807789708+808496293+810326927+812578976
1578+814684577+816222491+816184921+814950756+814941319+817800748+822515583
1568+826369128+828574228+830276875+831824226+833316843+836494177+843270908
1558+850190313+851718083+849875358+847873976+846208428+844727253+843678404
1548+843310838+843605504+844465144+846065813+849418791+855354697+860305690
1538+858867099+853086723+847970232+845532394+844703838+843843667+843223016
1528+843909194+845775571+847640944+849026748+850414262+852005200+853672399
1518+855839870+859165245+863381283+867055467+869114827+870395056+872941771
1508+877683030+882848180+885783636+887024583+888106756+889030802+890064788
1498+892640462+897042524+900777400+902116137+902398241+903294153+904718943
1488+906066115+908043138+911264117+914286745+915131876+914515825+915327573
1478+918391959+920889897+920387797+919073655+920978545+926020368+930770001
1468+933337419+933923094+933570332+933545973+933993635+933808318+931990306
1458+928465519+925044537+923870473+923832725+922446685+919487874+917309786
1448+917981868+920686002+922797324+922901660+921354191+919259620+917604983
1438+916391579+915117190+914399811+915655386+918933104+922839672+925968288
1428+927646693+927485795+925395175+922537574+920760789+920988277+922979632
1418+925445957+926226622+924247239+921142216+919885815+921813708+925513254
1408+928737595+930056869+928850543+926132194+924447655+925160610+927066149
1398+928107507+927927853+927975214+929268301+930827743+930988877+929602366
1388+927585826+925382082+923427353+923618744+927481961+933798586+939853515
1378+943939914+945896825+946514586+947086932+948166215+948821074+948488838
1368+948518387+950424929+953843905+957429501+961127868+965997881+971577133
1358+975440409+975985565+974363249+973360347+974908995+978626118+982205344
1348+983731167+983973636+985419482+989218469+993959963+997203414+997999768
1338+997932766+998937792+1001125729+1004134910+1008344932+1013839311+1019163945
1328+1021853334+1021603375+1021360021+1023951267+1029284984+1034965977
1320+1039091421+1042153684+1045975378+1051928625+1059764173+1066906229
1311+1069933222+1068152367+1064886150+1063556850+1064512096+1066183955
1302+1067656342+1069718061+1072484243+1073741823+1071492664+1067486832
1294+1065396802+1066021523+1067350116+1067593705+1066576411+1064650818
1285+1060989904+1053754895+1043022583+1032695821+1026904888+1025726695
1277+1026129413+1025765504+1024746559+1023904908+1022719638+1020266289
1268+1017107652+1014310093+1011521735+1007725638+1003675924+1001372857
1260+1001174801+1000993141+998082104+991797387+984770166+980174589+978246225
1250+976747061+974205595+970280213+963730084+953212520+939583739+925724168
1240+914576752+907332129+902362911+896722438+889431869+881959641+875656935
1230+870234217+864676315+858634303+852705828+847750058+844044083+841301729
1220+839495159+839012523+839754673+840834546+841710641+842894024+844831471
1210+846782189+847568929+847136131+846684695+847549760+850346553+854643570
1200+859223222+863015663+865926700+868592851+871465315+874389918+876981222
1190+879288241+881777745+884267544+885691213+885873640+886657253+889992360
1180+895791550+902291427+907521928+910478911+912128829+915074370+921031274
1170+928651956+935411937+941178039+947585906+955331037+963355499+969594742
1160+972946186+974872309+977706613+981540930+984560314+986235417+987886396
1150+990384689+993531294+996622457+997894075+995380801+989937145+985043305
1140+983312465+985017884+989197649+994394177+998330176+998234038+993363435
1130+986553380+982252646+983570918+989717974+996829832+1002700624+1008511139
1120+1014223392+1016617760+1015034018+1014591665+1020016448+1028856668
1111+1034400473+1034954181+1032693462+1028181932+1022581152+1018822920
1103+1018882962+1021586742+1024459442+1027257473+1031349062+1035989169
1094+1038288461+1037524547+1036928019+1037871234+1035245780+1025847723
1085+1014331680+1006575991+1005316642+1009890691+1016491542+1020779300
1077+1021588630+1019990260+1015677023+1007358426+995613538+983883868+977747251
1067+981425092+992340125+1000711687+999655938+993163728+987639681+983959127
1057+981648097+983209898+989927472+996557697+995940761+988993400+982955752
1047+982107849+985340330+989617589+993653501+997974406+1002509882+1005871529
1037+1006398460+1003236520+996365774+987441507+980083996+976844202+976857472
1027+977701718+978444930+979522030+980201249+978977228+976647266+975681226
1017+976284065+976313673+975441234+975457867+976389875+976587932+975829620
1007+974206244+969670650+961019108+951060619+943147218+937425410+931912098
997+925150760+917394718+909910281+903872279+899537868+895955044+892096073
987+888425781+886500837+886802050+888021942+888421004+886974214+883431320
977+878068939+871728780+866044425+862763109+862126238+862312263+861206026
967+858280067+854075707+849296642+844793665+841148085+838566395+837570157
957+838714613+841398516+844292508+847195996+850940131+855312054+858664206
947+859934113+860048358+861127110+864829547+871270208+879076796+886525078
937+892836513+898301933+903106831+906693194+908666089+910266935+914182704
927+921843257+931184103+938112827+940372779+939212103+937164598+934913080
917+931559277+927483495+924685818+924014267+924122496+923716711+923205056
907+923726383+925333423+926531551+925796065+923828007+923399573+926108130
897+930770886+935425266+938542794+939017940+937763545+937870771+941024572
887+945248041+947503452+947270479+945258598+941676600+938059036+937317122
877+940766709+946831252+952980786+957378719+958761456+956795934+953280052
867+950388420+948912494+949088727+950966251+954260189+958846270+964638736
857+970411503+973416850+971993652+969278902+970255618+974602061+975962798
847+970914134+964959472+964855607+969946029+973900489+973419740+971771296
837+973589898+979994522+987626883+991880786+992869415+995582278+1002421175
827+1008444609+1007328699+1001207240+996212897+994126170+992787079+991381929
817+992640453+998370518+1005750973+1009796794+1010913293+1014746430+1020579003
807+1020690830+1013922120+1008552189+1010297773+1016456744+1019933875
798+1017754077+1013597491+1011726987+1012856108+1015950928+1018855123
790+1016437044+1006148029+993208199+984726816+982969612+986424626+993178827
780+999083946+996984715+985441481+971661475+962045957+956807848+952124331
770+946010245+941569845+943538081+952087881+960933823+963343467+959782820
760+956318251+957449201+964067865+974573279+984319556+987539474+983597223
750+977684260+974415270+974378820+976633877+980893738+987459319+996529858
740+1005965898+1011428900+1011356944+1007929002+1002606846+994732253+986596613
730+983709698+987684683+993712128+996265508+995320287+993726991+991119349
720+985917394+981483719+983004057+989862830+995270744+994941043+993574231
710+996692880+1002019401+1004962641+1007484880+1013424561+1020068586+1021691845
700+1017129121+1007390157+992620518+977645686+971329946+975845781+982147897
690+981168881+975410565+970878628+968607469+968007697+969099189+970402184
680+970537544+970282277+969789024+967617719+963940585+960847239+957476686
670+950850472+945258952+951241689+963318695+968451820+965483748+959088090
660+953186627+950661735+954000203+961013800+963783225+957968110+948659232
650+943517261+946829719+956246885+961980784+958218246+953999083+960082145
640+970281510+966664123+948717210+932255128+927034123+932968909+943680047
630+949277524+945711627+940756683+939478046+935644260+927714403+921909020
620+917875350+911047895+902846669+900091104+907078808+921221072+935077164
610+938270717+929295255+920475737+915468949+909656606+901816045+894847568
600+891050291
##END=
