##TITLE=<SNM>
##JCAMP-DX=4.24
##DATA TYPE=INFRARED SPECTRUM
##DATE=29/4/2025
##SAMPLING PROCEDURE=Instrument type and / or accessory
##ORIGIN=Admin
##XUNITS=1/CM
##YUNITS=ABSORBANCE
##RESOLUTION=4
##FIRSTX=4497.3318
##LASTX=599.83466
##DELTAX=-1.4281778
##MAXY=2.0673292
##MINY=0.53662694
##XFACTOR=1
##YFACTOR=1.9253503e-09
##NPOINTS=2730
##FIRSTY=0.55340767
##XYDATA=(X++(Y..Y))
4497+287432194+287298580+286322078+285046523+284481605+284660727+284784403
4487+284426655+283934828+283936097+284728772+285848888+286338052+285828301
4477+285110977+285265952+286546584+288330436+289936713+291295173+292653385
4467+293718396+293856839+293235547+292681000+292326533+291316812+288969064
4457+285957612+284087883+284413188+285716388+285810283+284448975+283546276
4447+284546647+287097974+289935815+291895662+292443615+291936743+291129703
4437+290361980+289497762+288393249+287196110+286325050+286092433+286331025
4427+286509528+286158064+285244839+284366751+284485258+286001045+288085281
4417+289349629+289200381+288232083+287321985+286715366+286145618+285494576
4407+284956745+284724562+284948263+285807033+287056459+287761338+287100172
4397+285197504+282807468+280774375+280020707+281099959+283375915+285403560
4387+286372446+286556057+286289882+285395634+283829664+282170635+281198745
4377+281236482+281809295+281924118+281132309+280244749+280237598+280676456
4367+280325765+279204690+278716516+279712367+281565471+283195246+284225800
4357+285039960+286083579+287177071+287542126+286651500+284851396+282967055
4347+281673019+281255676+281532904+282008106+282352512+282763972+283591475
4337+284691839+285530022+285793319+285588904+285149984+284650325+284318488
4327+284380001+284578472+284225057+283253291+282660635+283243044+284511170
4317+285545873+286206048+286771462+287110852+286843160+286036957+285421236
4307+285694099+286519806+286645185+285523924+284321522+284443000+285677196
4297+286627291+286567604+286192365+286499250+287368700+287662768+286772731
4287+285402228+284525596+284325082+284363748+284170014+283622030+283209022
4277+283565501+284430246+284813937+284518661+284455972+285104074+285745241
4267+285606519+284907677+284476775+284793350+285520271+285948758+285904798
4257+285901052+286307930+286842200+287032281+286839848+286693231+286973492
4247+287495441+287614041+287031291+286316908+286270502+286932907+287544850
4237+287380619+286401206+285182676+284469903+284694780+285658002+286575096
4227+286636826+285758429+284646765+284035131+284200817+285189486+286717905
4217+287785454+287402877+285928914+284697814+284477178+285086552+285980087
4207+286619706+286787931+286783907+286941915+287198927+287453060+287749543
4197+287794865+286918449+285012965+283218835+283085655+284890774+287147321
4187+288057047+287199237+285588687+284465228+284229732+284391549+284497053
4177+284729515+285241248+285615466+285615404+285724902+286413558+287445971
4167+288149023+287986246+286999033+285924703+285590916+286135000+287005689
4157+287536089+287443153+287015316+286847123+287206512+287693262+287790253
4147+287506369+287168960+286875387+286502036+286115125+286006277+286341396
4137+286985071+287606487+287851270+287600017+287243692+287482129+288525036
4127+289614659+289741431+288785639+287542311+286749636+286562713+286844987
4117+287442132+288118870+288573981+288629550+288355047+288061195+288092401
4107+288486308+288962873+289340775+289686450+289950953+289923060+289706108
4097+289752359+290209916+290652024+290674066+290303161+289669454+288795453
4087+287799942+286911360+286335328+286352974+287208834+288563857+289565900
4077+289887954+290049771+290363869+290408758+289862847+289068315+288565498
4067+288622275+289144750+289748396+290077416+290037759+289613792+288860867
4057+288176266+288043426+288451140+288877801+288809910+288300159+288089398
4047+288862105+290383837+291759912+292408416+292408973+292200906+292318607
4037+293003982+293843961+294105183+293466616+292294708+291253287+290685644
4027+290439468+290324924+290461138+290996213+291799073+292521536+292749571
4017+292326099+291573453+290890245+290344025+289896932+289660012+289694251
4007+289866129+290056024+290399161+291238892+292650135+294026457+294533423
3997+293974634+292847119+291780003+291292356+291660196+292588064+293374764
3987+293663817+293588961+293110323+291999959+290705334+290320528+291240842
3977+292536674+293060852+292648958+291981229+291728087+292053237+292767217
3967+293749973+294948412+296049922+296696786+297024227+297497324+298247587
3957+298821235+298548373+297330090+296210593+296629979+298663195+300421847
3947+300061405+298168180+296884855+297080260+297502525+296935656+295944263
3937+295652424+296293839+297468533+298692079+299277677+298702976+297547507
3927+297196414+298333433+300021501+300722881+300322751+300174618+301115550
3917+302340767+302430855+301093353+299316777+298037724+297351110+297161432
3907+298200438+301579112+307087437+312464717+315256245+314697054+311254638
3897+306260584+301993916+300597626+302538557+305758634+307366676+307481035
3887+308508339+310737797+311907321+311588239+311867788+312620218+311215352
3878+307886861+305934692+306946579+309797732+313125976+316013412+316867383
3868+315375092+313536415+312677892+312061027+310650744+308786959+307623441
3858+308432306+312776369+321503223+330154974+329869388+321497094+312442706
3848+306969611+306205758+309174334+313474406+317184081+320350911+323281224
3838+324334192+322301068+319177424+317140586+315949236+314578021+313322527
3828+312923078+313178357+314072233+316682936+320796642+323245158+322550341
3818+321593868+321821625+320871498+317458337+313860574+312678759+314863050
3808+318996940+321855369+322579131+323853789+326792800+328421429+326743051
3798+323589502+320495268+317527837+315204112+314466759+315272127+316733336
3788+318303764+319785622+320655041+320886884+321872333+324648971+327765526
3778+328915330+328376261+328407003+330615471+335165682+340780440+345477639
3768+348685147+351345941+353851264+356393272+360432865+367118980+374732034
3758+380241039+383818648+388553368+396819013+408234305+418745228+424373173
3748+426927936+430717885+436828865+441181597+441310319+441322981+445661688
3738+454991570+465509860+471640436+471691733+468389835+464720559+462470607
3728+462840986+465873521+469474225+471070720+470463018+469384540+469157743
3718+470247861+473252720+478843732+486550279+493581418+496227909+494358429
3708+491310260+490050246+492240326+497556959+502939007+505433247+505921359
3698+507413743+511391915+517047878+522743249+527515397+530814881+531117463
3688+527291634+521425747+517156942+516699138+520079701+525525305+531486728
3678+538225192+545107487+547943470+545328030+542328156+542074611+541943660
3668+539343203+536287109+535100867+535137088+534738289+534358685+536162782
3658+540743858+545662498+548773511+551828738+557791524+566755731+574954971
3648+578412341+576680313+571362007+564819691+559827619+558077141+559238678
3638+562104691+565879378+570028530+573952557+577569421+581044065+582842590
3628+580473636+575734489+572496487+572177560+574822100+580199969+587405091
3618+594567864+600096496+603575784+605204722+605991732+607359943+608679923
3608+607123735+602308433+597692436+595849765+596269305+597733610+600765928
3598+606515290+613677567+618376840+618674097+617462099+618293130+620740841
3588+621819350+620815945+620182857+621266443+622723318+622567229+620391265
3578+618006523+617496152+619141746+621950858+625543575+630623939+637529204
3568+643835869+644928494+639995923+633285135+628490636+626228424+625717310
3558+626475405+628344638+631108305+634533911+638876921+644983784+652732898
3548+659271437+660536187+655880441+649839456+647865152+650751907+654032569
3538+653079192+648250701+642962053+639030163+637116598+638016294+641663992
3528+646408216+649606468+649474092+646789987+643795128+641834941+640959949
3518+641401470+643718600+647385121+650526286+651609686+650962173+649721817
3508+648734634+649544243+653607828+659513589+662991823+661858458+659196085
3498+659513341+664478418+672066860+677158368+675260530+667508569+659697602
3488+656452356+657897343+661054545+662742799+661906876+660350750+660687757
3478+663814744+668597541+673067045+675328266+673931449+668776849+661604294
3468+655047490+651487093+651987867+655617671+660285243+664204317+666529745
3458+667430431+667558411+666574819+663273911+659002227+657297814+658121601
3448+657239985+652457621+646551674+642899457+642073378+643034804+644678417
3438+646179809+647472360+649374036+652451058+655682868+656827069+654627764
3428+650411557+646757358+644811969+644420600+645471184+647019633+646917348
3418+644274850+641060438+639580407+639684425+639689626+638708821+637395466
3408+637138454+638773832+641657491+644158882+645667952+647039507+648434714
3398+648610121+647180427+646157829+647767450+651076159+652380226+649559783
3388+644897722+642587835+644217393+646980378+646954683+644089847+641993878
3378+643079507+645842369+647219434+646708940+646426914+647492296+648468025
3368+648134300+647750670+648625415+649666154+649073003+646782619+644105202
3358+642150153+641568828+642543318+644217702+645282775+645458368+645591796
3348+646260918+646990718+646971524+646153495+645497375+646057464+647696308
3338+649276891+650450378+652238749+654965823+656309455+653735869+648755995
3328+645678478+646256089+648096345+648696370+648640955+649649004+651936291
3318+654829795+658032505+661158254+663193606+663052315+660899137+658655933
3308+658319050+659920870+661847313+662721376+661994424+659912573+657991640
3298+657780880+658649742+658233916+655378120+651727388+650148539+652031270
3288+655941923+659145624+660170761+659399788+658316636+658936411+662445046
3278+667588131+671429810+672256755+670888172+668922660+667222519+666323318
3268+666257130+666179921+665729237+665742116+666626085+667509931+667729546
3258+667734871+667934177+668135836+668660262+670254156+672410554+673422689
3248+672180166+668836907+664460710+660504920+658139866+657667017+658755122
3238+661290753+665372294+669706388+670980426+667363934+661771466+658623428
3228+658882421+660198499+660674816+660633828+660860811+661190202+660886816
3218+659855363+658977585+658685777+658080985+656668627+655976286+657716549
3208+661207415+664226669+665776293+666507579+666802916+666064077+663851027
3198+660710727+657957649+656518791+656143025+655849545+654642562+652110646
3188+649252620+648023223+649082290+650675875+650858835+650166371+650328590
3178+651283515+651511674+650471615+648751784+646652225+643983290+640819772
3168+637911966+636294420+636621087+638551988+640457504+640491186+638688512
3158+637238448+637795255+639200183+639044775+636755196+633804916+631761391
3148+631111462+631398256+631692355+631154246+629887948+628959337+628893521
3138+628874451+628302598+628123909+629505990+631936179+633468715+632644803
3128+629984350+627569702+626832225+627236349+627636447+627783621+627641648
3118+626635086+624643941+622567105+621020700+619500733+617408356+615327867
3108+614643389+615790748+617510764+618319568+618064352+617321798+616278581
3098+615032096+613965165+613388050+613465692+614290780+615511447+615948757
3088+614456714+611546617+609370406+609518137+611269359+612472565+611911052
3078+610268121+609059032+609203482+610309357+611086708+610585067+608865979
3068+606629525+604777814+604069313+604455048+605038912+605076619+604496841
3058+603487306+602236487+601007523+599928086+598886046+597938860+597376295
3048+597146093+596646929+595342923+593446014+591774849+590924686+590779679
3038+590880787+591027837+591189003+591034524+590318779+589632073+589730209
3028+590142505+589635850+588135324+586942272+587068332+588444098+590336611
3018+591543718+590821844+588257979+585559820+584101644+583480321+582702723
3008+581741544+581074403+580758138+580747303+581074279+581056510+579678825
2998+577327888+575733746+575889712+577102082+577975464+577642543+576252661
2988+574663720+573615179+573265913+573409805+573666383+573516733+572714492
2978+571661369+570906741+570362998+569502804+568301889+567387828+567157750
2968+567315201+567319102+566743906+565442191+563998566+563344056+563424051
2958+563269881+562660817+562427271+562855542+563144564+562663417+561588129
2948+560247160+558704594+557105932+555866629+555193791+554723480+554022409
2938+553253789+552791650+552518107+552139803+551802300+551829605+552163888
2928+552453839+552552656+552579899+552367714+551296016+549165004+546763606
2918+545020805+544156153+543969230+544295711+544820755+544975668+544403134
2908+543245807+541806516+540276395+539080557+538945085+539939822+540834069
2898+540336577+538593343+536496941+534468090+532834569+532202658+532440972
2888+532488151+531916298+531438248+531543752+531824601+531823363+531651547
2878+531554959+531323023+530467906+529134367+528313861+528539729+528997719
2868+528715384+527970848+527633594+527881504+528323520+528576755+528226312
2858+526956361+525115733+523644555+523151583+523331881+523444877+523126755
2848+522456270+521438749+519980140+518315074+516916245+516045030+515740932
2838+515940548+516205454+515752603+514326871+512742079+512067941+512492652
2828+513264801+513521720+512947360+511812756+510606113+509542310+508478073
2818+507385138+506549524+506069740+505609243+504974298+504456621+504298272
2808+504320004+504307002+504143576+503502811+502107851+500345237+498935511
2798+497955789+496968854+496135934+496269981+497512132+498768060+498865082
2788+497650762+495644757+493391956+491453471+490323170+490069378+490293203
2778+490389234+489910936+489030960+488526378+488886139+489606249+489742773
2768+488963503+487779676+486959634+486875862+487200083+487156773+486265653
2758+484811904+483475827+482668075+482262497+481780917+480886639+479862523
2748+479394813+479704793+480175507+480013659+479053069+477809989+476913791
2738+476485490+476061306+475255845+474311291+473694457+473489392+473487194
2728+473444596+473063939+472156999+470925930+469773339+468861848+468052456
2718+467206998+466481935+466297891+466867948+467799190+468408131+468349713
2708+467764487+467058556+466646569+466601092+466531715+466064779+465266810
2698+464362222+463376928+462346064+461539210+461131186+460832814+460177376
2688+459169637+458379315+458261180+458593697+458778578+458531286+457993085
2678+457299444+456465626+455625648+454974140+454484233+453946093+453223290
2668+452337339+451440615+450772081+450464329+450395634+450381641+450398575
2658+450432721+450266664+449702395+448916655+448311956+448019374+447755892
2648+447227937+446517084+445893810+445359137+444703079+444054977+443929939
2638+444477459+445072499+444997767+444249764+443394678+442905111+442834496
2628+442951207+443055535+443103860+442993712+442493063+441672557+441082748
2618+441052688+441161815+440867560+440272954+439795089+439444677+438908240
2608+438151012+437564950+437488546+437697851+437527676+436649558+435601945
2598+435280108+435945329+436935082+437351372+436950499+436298156+436058202
2588+436283760+436507214+436328649+435720730+434930594+434269087+433879421
2578+433659156+433482047+433372054+433372239+433387006+433197235+432636341
2568+431869702+431352520+431265219+431248409+430962266+430532355+430201787
2558+429991243+429890290+429984804+430244509+430417099+430237389+429746800
2548+429373387+429503441+429952236+430142936+429866545+429546163+429643556
2538+430038640+430131420+429538454+428575047+427896142+427769772+427982236
2528+428351129+428867598+429327662+429389114+429094921+428824381+428635012
2518+428145476+427185134+426141700+425543193+425594026+426170089+426988118
2508+427668726+427870973+427582601+427152659+426873388+426735317+426727268
2498+426982484+427399331+427559352+427294972+426912519+426673649+426490100
2488+426261229+426135695+426257111+426470101+426472175+426186899+425862120
2478+425830079+426209715+426781908+427165878+427180769+426943570+426610123
2468+426271599+426111517+426319863+426768163+427025670+426766120+426044245
2458+425232284+424775687+424911592+425512947+426204885+426639378+426669253
2448+426362492+425952393+425706062+425705226+425794478+425816117+425753830
2438+425593128+425305004+425018489+424916514+424972919+425040531+425068517
2428+425060375+425031708+425089197+425346518+425775160+426245378+426585171
2418+426602508+426250517+425744202+425435645+425594985+426155136+426651638
2408+426734574+426683493+426966324+427464961+427691727+427591207+427595634
2398+427975301+428512264+428853543+428997683+429272496+429877535+430610988
2388+431053158+430922764+430240794+429209992+428027310+426856795+425806242
2378+424720025+423198541+421129785+418995429+417403051+416568707+416301139
2368+416148331+415678391+414906303+414268727+414182943+414805505+415991282
2358+417463667+419308536+422022175+425821318+430102041+433666401+435431151
2348+434976071+432849640+430540837+429446386+429545110+429873944+429948552
2338+429970842+430140429+430327259+430277201+429875182+429266892+428818902
2328+428853729+429351469+430026938+430703366+431467869+432476444+433755528
2318+435122316+436188813+436607858+436432791+436120984+436156740+436712526
2308+437571636+438308835+438648164+438687418+438728933+438963314+439427372
2298+440131353+440984024+441700542+442060118+442178810+442311557+442507613
2288+442651721+442735648+442907433+443263943+443661689+443785799+443504052
2278+443103241+442964798+443036279+442911953+442485509+442182896+442360006
2268+442758681+442857436+442576153+442274593+442173175+442169306+442170761
2258+442260724+442527612+442967677+443530831+444118069+444565843+444748928
2248+444752488+444900559+445459688+446249391+446773507+446843874+446760133
2238+446747905+446611753+446083303+445183885+444158191+443278184+442689521
2228+442320039+442040335+441918300+442119742+442587174+443054606+443377992
2218+443634075+443881335+444035722+444048786+444039622+444168035+444491359
2208+444977397+445550550+446121257+446619895+446976219+447157167+447339942
2198+447887122+448946189+450174316+451071722+451546800+451971944+452669238
2188+453504697+454074197+454174097+453964327+453753505+453778766+454113049
2178+454614658+455012342+455158339+455134564+455053238+454932688+454889749
2168+455221339+456028316+456923152+457431169+457609270+457956771+458734153
2158+459637007+460190130+460251427+460002804+459630846+459264089+459106111
2148+459300341+459713194+460100260+460385474+460625738+460903863+461318790
2138+461815756+462085244+461940547+461666849+461712450+462210809+462984816
2128+463807520+464536608+465147591+465709104+466263806+466772412+467220434
2118+467694181+468254735+468764053+468984225+468931937+468984844+469472398
2108+470262380+470940635+471331725+471612389+471927663+472172663+472259902
2098+472355252+472627805+472926734+472978743+472812747+472710184+472807825
2088+473020845+473307298+473715725+474142261+474304728+474091460+473769808
2078+473694611+473925309+474249623+474468464+474514003+474408282+474301354
2068+474461994+475011805+475691576+476074029+476023599+475816553+475833147
2058+476254792+477011370+477868902+478580034+479065143+479431188+479756400
2048+479975953+480070003+480203740+480529262+480991617+481494650+482102445
2038+482877722+483676093+484334844+484948800+485726058+486687422+487730700
2028+488839609+490004119+491127671+492239830+493583400+495262273+496987800
2018+498379013+499395173+500322390+501419195+502695926+504011479+505303751
2008+506654812+508110820+509589768+511030328+512386033+513409343+513777741
1998+513603418+513554040+514264089+515712419+517269381+518379250+519101557
1988+519858971+520897111+522158085+523419244+524500167+525592978+527204766
1978+529469826+531884288+533965273+535707083+537317385+539030777+541056780
1968+543258190+545210576+546880193+548680019+550710975+552646582+554404677
1958+556293908+558418172+560457983+562217191+564003705+566222885+568844270
1948+571548187+574255634+577163502+580223621+582935587+584947907+586591210
1938+588360573+590283611+592270917+594539692+597103061+599390287+601075816
1928+602834158+605646986+609571756+613509652+616301304+617931171+619134502
1918+620071038+620333312+620196727+620658493+622172454+624117286+625460794
1908+625773901+625590755+625805107+626836435+628380550+629813896+630824607
1898+631699909+632867018+634246127+635509887+636758726+638053444+638608765
1888+637708264+636087436+635134988+635267611+635796433+635931904+635452925
1878+634504130+633270213+632249286+632561712+635248541+639839090+643672969
1868+643743614+640249839+636195355+633517937+631967260+630631183+628974568
1858+626763685+624119577+621596391+619703011+618631499+618407798+618889935
1848+619918911+621460858+622771488+622015189+618622398+614534975+611482720
1838+609435789+607650452+606102870+605831061+607690449+610554976+611562715
1828+609619493+606677819+604302735+602083864+599526501+597204850+595731135
1818+594941586+594342924+593900661+594045977+594883076+595738441+595833791
1808+595203489+594595168+594829333+596347071+598760543+600778188+601299022
1798+600793109+600929943+602915949+606320318+608908206+608657448+606551697
1788+605093088+605328368+606768835+608854401+611460183+614074447+615876006
1778+617079646+619111531+623193691+628955436+633737986+634684985+632457075
1768+629749566+628126014+628174680+630062426+632725355+634228915+634352313
1758+634556572+635261606+636011961+637585547+641496015+647449946+652515512
1748+654278560+653609561+652768066+653030093+654434897+656332982+658058138
1738+660142961+664266790+670588067+675260345+674666698+671579274+669535625
1728+668886254+669136641+670072310+671368018+673513890+678433583+687428625
1718+697932860+703339395+700904253+695331908+691340640+690482489+692538893
1708+696554680+700966664+704359393+707532446+713045662+721270844+727908324
1698+729659670+728627970+726419315+723342356+721338704+722168621+725519000
1688+730525684+737931475+748129042+756284879+756744231+752623436+749591489
1678+750363763+755279617+762221350+768152497+772891458+777641873+780765517
1668+780083516+777963463+777765580+779228956+779722115+778305423+776993554
1658+777985195+782763596+792812132+806736526+815027277+813707236+811731755
1648+813039290+813363294+807964313+799730462+793737709+791895471+794544532
1638+801238789+808860480+810533812+803495861+794022769+787702297+785642488
1628+786569365+788632889+790675733+791763529+791132114+790233284+791778079
1618+795552828+796795599+792189633+785992187+783005439+783432037+784945751
1608+785586516+785269260+785176511+786161588+787909838+789694433+791480389
1598+793481379+795283186+796517350+797785073+799790025+802289807+804644892
1588+806692689+808770640+811310295+814560185+818289797+821937681+825359944
1578+828632371+830659984+829553428+826415482+824707477+825570086+826373379
1568+823886909+819035633+815107334+814374253+818306948+827634848+837926713
1558+837138527+825470587+815032664+809866794+808381686+808207270+807907969
1548+807866362+810000656+815975081+825657510+837144037+846340738+846751610
1538+838849813+831290719+828426440+828563149+827999407+826164352+825652000
1528+827731375+831344276+835445010+840552617+846918968+852840951+856799527
1518+858984344+858986264+856491064+853963172+854771976+860082171+869168662
1508+880060179+886775363+883281031+875077828+869959324+870072568+874682001
1498+881379787+886369073+887521880+887198371+889166236+894643355+901220838
1488+904803896+904282505+902382190+902042459+904179663+908047471+912950198
1478+919047712+926188071+933379448+940100267+946300870+951474850+956126695
1468+961533478+967020999+970002732+970213989+971268350+975871096+983493902
1458+990714070+992198435+987296017+980779954+974965580+970091458+966692599
1448+964999206+964295287+963993572+964266373+965260366+967145945+970516323
1438+975119626+978244013+977376823+974494588+972814941+973152629+974904717
1428+977483937+980414218+982887748+984190081+985264813+988544174+994327838
1418+997797590+994557111+987607329+982317752+981123400+983481890+986857283
1408+988390438+987083832+984464801+983214477+985090273+989426348+993168839
1398+993933931+993520396+995336010+999351301+1002530421+1003116267+1001472283
1388+998032993+993200726+988901118+987999503+991544916+997681808+1003976275
1378+1010153165+1016788973+1022321135+1024093656+1022407755+1020369245
1370+1019647680+1019514437+1019851878+1022387633+1027821101+1033358031
1361+1034665070+1031094766+1026657149+1025332464+1027994774+1033209309
1352+1039086527+1043521544+1044372760+1041871616+1039573308+1041244411
1344+1047529096+1055674097+1061654776+1063394110+1062979895+1063762261
1335+1065743190+1066832905+1066900021+1067195854+1067446365+1066645424
1327+1065098896+1063669387+1062374608+1060902006+1059714588+1059571068
1318+1060683568+1062710438+1064594407+1065010604+1063912097+1062532245
1310+1061695517+1062136975+1064611124+1068317766+1071660095+1073741823
1301+1073414537+1069747645+1064920083+1062857550+1064123848+1065017291
1293+1062626480+1057407735+1050571630+1043134448+1036915827+1033595106
1284+1032874655+1032503100+1030301999+1026465334+1023274945+1021436237
1275+1018202012+1011528744+1004139113+1000037698+999126733+997710970+993324990
1265+986901429+980642130+976258750+974376577+973710612+971832030+967740583
1255+962337019+956168427+948637504+939727534+930736517+922898060+916527498
1245+911434689+907129881+902657838+897062213+890379101+883448574+876867623
1235+870901866+865933198+861993259+858309774+854515336+851548648+850036421
1225+848989489+847201180+844937792+843303652+842771673+843044845+843478440
1215+843539922+843538932+844417019+846532429+849462586+852894818+856688946
1205+860316583+863346858+866171016+869252495+872344005+875522506+880162588
1195+887258367+895293159+901584717+905512768+908400823+910964069+913135450
1185+915308751+917732686+919649408+920558515+921530467+924270358+929477710
1175+936592374+945059647+954949246+965714517+975190458+981002355+983045261
1165+983602750+985358553+989513030+994747440+998023458+997195399+993089773
1155+989444118+989871522+994545533+1000317247+1003726322+1004448630+1005091871
1145+1007463178+1009723346+1008277740+1003268084+999556242+1001299910
1137+1007912500+1015997877+1022917507+1027146035+1028475364+1029405708
1128+1032954465+1038500186+1042432448+1042871801+1041175932+1039546684
1120+1039711256+1042517644+1046495971+1048179334+1046059466+1042676396
1111+1041451828+1042683702+1043179646+1040607794+1037211846+1036665935
1103+1039497771+1044009811+1048918235+1053090358+1055294059+1055632986
1094+1054687534+1051943185+1047399197+1042201627+1037322984+1032904127
1085+1029028208+1026255812+1024985179+1024143312+1020898004+1013627127
1077+1004795419+998555190+996951884+999200289+1002145739+1001731895+996928356
1067+991061169+987427897+986274285+986502568+987130331+987239055+986907187
1057+987792828+990364742+991852389+989912262+986290507+984601263+986294718
1047+989462631+990796232+988775120+984936288+982350630+982594763+983973191
1037+983665037+982133863+982977649+987108289+990565410+989854681+986214289
1027+983227665+982290633+981681136+979654389+977043036+976410939+979253671
1017+983951830+986794067+985855426+982714570+979489818+976409762+972663990
1007+968099446+963555272+959936241+957132329+952959525+944298642+931281623
997+917871625+907656659+901333339+897702606+895278671+893102708+891243381
987+890188587+889519217+887928294+884628934+879952446+874357873+868047555
977+861991711+858054310+857136039+857711607+857008678+853625360+848320305
967+842529831+837426187+833929749+832395603+832507733+833803379+835765176
957+837453863+838015128+837842198+838474047+841132952+845802629+851566356
947+857378748+862448029+866637736+871009847+876975914+884405171+891725023
937+898069828+904006423+909996575+915747361+921361933+927441801+933708468
927+938726854+941296600+941697566+941703696+943020518+945195923+945786660
917+943425136+939602651+936428546+934228683+932492754+931354931+930862082
907+930833725+931366818+932205342+932705992+933143178+934403223+935764315
897+935991297+936524329+939810687+945162799+949122303+949554475+947534044
887+945441357+944977237+946651560+949902007+953347426+955742571+957458996
877+960067935+963955061+967038583+967422522+966019452+964393733+962948498
867+962415590+964687709+970831226+978677608+983540834+982302707+976316394
857+970039634+967286927+969144334+974905832+982910657+990320410+994191252
847+994153483+992702305+992375143+993337435+993664164+992509871+992669551
837+997291554+1004625770+1008991937+1007421571+1004198057+1005745515+1012950451
827+1019757332+1020230430+1015702477+1010412777+1006184868+1004252357
818+1007226227+1015739813+1025084863+1029625447+1029634610+1029807293
810+1032361684+1034687917+1034392207+1033470469+1034023933+1033727172
801+1030562540+1027813981+1028064615+1028822896+1027717640+1026455923
793+1026820421+1027392088+1025386516+1019057190+1009885442+1001821178+996623298
783+992576988+987675065+981147237+973316024+966038955+961468715+960176845
773+961287921+963324450+965275536+968128794+973441341+980125444+983876169
763+981401401+974760516+969924100+971281166+978981738+989779082+998860062
753+1002801364+1001729295+997515936+991414769+984793759+980123896+979503191
743+982869916+988767814+995500087+1000972810+1003820124+1005416247+1007774118
733+1008686445+1003853992+995064634+988835549+986925204+985768992+984754257
723+987778773+995410371+1001848668+1001944018+996638096+989779825+983554022
713+977605477+971883606+969484870+973066256+979334409+982241101+981995729
703+984371680+991636737+999435197+1000813810+994584602+987660081+986763047
693+991909413+997886872+1000398542+998853995+994516928+988454273+980421524
683+968589818+952767834+938254623+933036993+939921268+953192575+962749997
673+961734828+950629020+935364463+927339764+936081942+952212946+961744177
663+962657681+958339313+951550697+943746912+936559064+931904803+928823015
653+924713426+919516166+914911748+912755102+915547002+924054025+935645994
643+948245702+961479736+971211635+970966264+960586664+945343592+928939106
633+914527251+907327206+908685387+911898995+908277673+898501318+892141653
623+895857892+908017008+920004556+921653989+911254886+896844084+884788800
613+875595814+870985824+876225620+891755733+909047284+920236616+926102875
603+928519752+924453442+913338224
##END=
