##TITLE=<SNM>
##JCAMP-DX=4.24
##DATA TYPE=INFRARED SPECTRUM
##DATE=29/4/2025
##SAMPLING PROCEDURE=Instrument type and / or accessory
##ORIGIN=Admin
##XUNITS=1/CM
##YUNITS=ABSORBANCE
##RESOLUTION=4
##FIRSTX=4497.3318
##LASTX=599.83466
##DELTAX=-1.4281778
##MAXY=2.108629
##MINY=0.38254535
##XFACTOR=1
##YFACTOR=1.9638138e-09
##NPOINTS=2730
##FIRSTY=0.39189175
##XYDATA=(X++(Y..Y))
4497+199556471+200203504+200831643+200721194+199866709+198966271+198618034
4487+198816745+199262775+199742237+200128551+200378450+200521223+200426375
4477+199732297+198282696+196660030+196014105+196959159+198700165+199811970
4467+199941737+200072977+201070145+202775973+204505962+205520748+205160491
4457+203440185+201454243+200533637+200932000+201660830+201665519+200988863
4447+200547872+200929997+201787836+202296466+202022058+201349317+200911315
4437+200738904+200446907+199979525+199519731+199002526+198390565+197938146
4427+197697565+197499870+197595098+198402766+199605094+200267318+199812895
4417+198520985+197249835+196723237+196872824+197114103+197299596+197767919
4407+198466474+198812663+198522002+198021976+197958557+198566285+199450620
4397+199907744+199608994+198895234+198293045+198013402+198021005+198192536
4387+198270009+198004312+197429364+196772178+196154131+195574570+195082618
4377+194857198+195066183+195507326+195570822+195054649+194797162+195746420
4367+197544942+198806380+198784845+198114837+197806329+197990138+197936173
4357+197278350+196774682+197366339+198810857+199896104+199868924+199010402
4347+197954854+197113435+196705557+196809056+197262097+197767980+198125566
4337+198233344+197981700+197417663+196975169+197115165+197664497+197943594
4327+197671402+197332952+197480081+198018167+198407288+198397986+198272649
4317+198306704+198341532+198154794+197969939+198186466+198785088+199431362
4307+199968401+200386675+200561682+200439426+200281917+200364822+200522574
4297+200328476+199798782+199608600+200331238+201620068+202504419+202443534
4287+201686204+200729707+199997099+199903343+200545094+201339939+201570671
4277+201356040+201520272+202423046+203394370+203518112+202687059+201588593
4267+200881495+200763185+201091375+201451359+201391961+201051145+201114670
4257+201825153+202640651+203104877+203369254+203703029+204160365+204674822
4247+204984225+204764890+204218776+204041068+204469024+204860740+204596136
4237+203975054+203721847+203846986+203626953+202829741+202267131+202793304
4227+204320196+205972530+206769454+206272858+205052288+204330773+204721731
4217+205575609+205979890+205873508+205689108+205524057+205245051+204940641
4207+204857538+205106420+205537168+205855115+205944015+206015675+206292738
4197+206704380+207058718+207279631+207332974+207192250+206979061+206950060
4187+207200171+207458872+207426214+207259827+207404361+207987322+208683038
4177+209075984+208953060+208465115+208152798+208471549+209196615+209646864
4167+209596435+209541560+209788697+209812174+209118309+208321233+208483902
4157+209646333+210795895+211132175+210734100+210144234+209796194+209760075
4147+209849673+209955023+210076323+210060236+209706748+209164458+208873736
4137+209089824+209629291+210051662+210068871+209862132+209957087+210688269
4127+211816676+212781883+213241177+213206182+212853619+212482846+212408621
4117+212597620+212750773+212893167+213341170+214004046+214417889+214598935
4107+215184370+216540428+218155855+219099649+218980171+218272602+217611805
4097+217050636+216302032+215432887+214904741+215084589+215936707+217015216
4087+217731025+217885560+217852052+218003612+218223417+218249565+218217347
4077+218423236+218664106+218325823+217276740+216255397+216099011+216865447
4067+217936292+218732108+219031343+218799382+218116550+217261002+216583208
4057+216242938+216226017+216555042+217193258+217848895+218324093+218906037
4047+219841424+220674784+220763198+220182438+219560385+219331049+219480621
4037+219689105+219717195+219864901+220663357+221899907+222596200+222304370
4027+221715673+221652815+222144782+222676586+222800298+222375256+221632055
4017+221077594+221023341+221279067+221544643+221865351+222420389+223049560
4007+223327655+223150251+222989327+223394034+224400534+225539413+226289261
3997+226372500+225759840+224655441+223433020+222471258+222044258+222239934
3987+222824230+223313314+223379268+223160100+223078925+223411243+224120405
3977+225035958+226014884+226916277+227525188+227528648+226688580+225210812
3967+223769360+222960023+222931083+223585142+224719149+225859332+226460064
3957+226478654+226440108+226863405+227869844+229302692+230783374+231569477
3947+231092382+229917567+229289019+229532529+229752941+229295893+228545999
3937+228106100+228258692+229194671+230878541+232561044+233157542+232530496
3927+231780920+231930098+232672480+232850097+232223824+231885572+232647834
3917+233743265+233652362+232086089+230266336+229348948+229421700+230113289
3907+231710626+235100173+240339141+245503611+248096341+247508781+244675153
3897+240677332+236947181+235288595+236502881+238997014+239973527+239316827
3887+239529652+241595692+243599587+244116564+244162289+243859366+241734383
3878+238549269+237200055+238852860+242202205+245898575+249065736+250014432
3868+248501108+246983853+246915820+246839440+245251284+243124572+242070935
3858+242943449+246912830+255144970+263674766+263711006+255696244+246712344
3848+240975763+239500332+241584538+245724767+250531227+255371726+259639750
3838+261751849+260672823+257700048+254675008+252154727+249961666+248332551
3828+247694244+247878903+248877451+251796064+256785558+260465098+260146680
3818+258118231+256383674+253552276+249001467+245106811+244317324+247223872
3808+251999904+255398314+256868569+259206756+263244838+265411478+263466312
3798+259842012+256654622+253901819+251604364+250553232+251001235+252195596
3788+253443072+254695222+255904880+256944448+258203731+259899680+261043020
3778+260681655+259591157+259340211+261012820+265005587+270337249+274515342
3768+276178208+276605891+277392115+279076835+281983990+286245246+290907870
3758+294622496+297706873+302083222+309605593+320186208+329695021+333404821
3748+333086101+333850290+337581822+341091575+341859164+342372043+345814720
3738+353121959+362658393+371189646+376082182+377004867+376037535+376058235
3728+378649978+383207494+387732292+390912156+393107205+395278519+397863524
3718+400655009+403773684+408816369+417902144+430039395+439477763+442335081
3708+441496561+441439804+444453554+450661068+457776941+462113104+462634603
3698+462085363+463308467+466882019+472050389+478285918+484690595+488653678
3688+488285545+484980634+480724507+476612611+473794507+473607845+477063846
3678+484321157+492705388+496431911+494754234+493691962+496303828+498815231
3668+496691508+491693166+488345368+488595403+491212581+494264695+497257927
3658+500319996+502940694+505225675+508818743+515152064+524093001+533259936
3648+538134201+536247310+530188670+524301637+520813585+519503919+519853568
3638+522170478+526397892+531415112+536436460+542437372+550408823+556703658
3628+554877956+547561794+542838679+544195633+550725449+559112837+564750744
3618+565419509+564289220+565365119+568792286+572184671+574282200+575074070
3608+574095053+571460909+569151830+569261095+571571449+573488206+573297052
3598+572826179+574690185+578270141+581089490+583505892+588041192+594306586
3588+597696481+595675134+592283781+591388231+591906088+591312413+589440334
3578+587502878+585778246+584615421+585332990+588604576+593740956+599818596
3568+605796622+609626371+610236557+609358975+608871105+608574511+607530845
3558+606002345+605039232+605198334+606233684+607483922+608751096+610587967
3548+613322149+616369194+618632200+619158131+618122599+617446368+619207907
3538+623165557+626524191+626404424+622231825+616181804+612204729+612795187
3528+616134578+618236660+617628841+616352319+616626029+618218935+619684911
3518+620676372+621593047+621959390+620991845+619237105+618169037+618541571
3508+619779183+620678679+620631634+620332004+620823820+622098946+623669149
3498+625598410+627572409+628356934+627234719+625049777+623409037+623243743
3488+624240364+625542988+626867163+628136704+628460069+627379071+626703082
3478+628883168+633703407+637924933+638693311+636848245+635629876+636578178
3468+638427614+639830278+641000509+641790376+640692502+637362763+633551043
3458+630731694+628852028+627504179+626628054+625932641+625336477+625744219
3448+627330690+628268733+627249227+625382611+624106817+623708242+624471096
3438+626700533+629322233+630436435+629434897+627597480+626121488+624739706
3428+623379960+623468769+625765343+628448232+629337044+628712775+627803141
3418+626642015+624963882+623038628+621408693+620769915+621481779+623047308
3408+624383319+624704377+624218754+624009632+624940694+626565469+628007528
3398+629563709+631562596+632392042+630378039+627176808+626543373+630161269
3388+635775078+639616482+640338604+639201274+637498009+635417598+632803486
3378+630295483+629316830+630686167+633732727+637097249+639486699+639485545
3368+637249613+636158963+639155321+644054414+645821234+643327192+640135978
3358+639519357+641833596+645324077+647432351+646338666+643215135+641503251
3348+642851949+645897659+648621946+650184258+650582895+649778277+647855875
3338+645208134+642262888+639580667+638090531+638857149+641913603+645194233
3328+646593739+646822286+647377900+646781069+642641188+636849216+634369501
3318+637192431+642275817+645421019+645582186+644536274+644294433+645745355
3308+647969936+648952717+648699403+649908363+653953122+658254291+659000148
3298+655441559+650226508+646702519+646740337+649556286+652020705+651544854
3288+648949317+647103766+647400421+649025257+650990697+653369342+656339477
3278+659120400+660651632+660694549+659706548+658371751+657294152+656631458
3268+656072141+655432453+654916539+654429883+653435812+651853225+650131143
3258+648653998+648013885+648561851+648811947+646651225+643076671+641612577
3248+643519014+646282880+647338868+647118820+647317440+648718646+651424905
3238+655217140+659007493+660963463+659910267+656371285+652132884+649105992
3228+648362563+649270982+649743494+648394250+646376059+646193525+648738557
3218+652089481+653695620+653281566+652545482+652527271+652648373+651938149
3208+650081245+647360782+644164407+641024912+638739628+637854882+638255522
3198+639217238+639474315+637820706+634543961+631558408+630582244+631801887
3188+634572856+638200282+641231727+641689002+639253964+635543496+631930092
3178+628868478+626927744+626663079+627515227+627966007+626910504+624730237
3168+623045001+623075292+624083143+624272779+623234880+622297566+622619838
3158+623933328+624940026+624557962+622889116+620490075+617244956+613334957
3148+610435117+610309462+612872704+616386434+618679670+618198599+615093218
3138+611342140+609145665+608983466+609243882+608037957+605540456+603906090
3128+604657835+606922601+608544827+608377105+607109870+606066143+605414619
3118+604172879+602073528+600471335+600855463+602948440+604609698+603602818
3108+599855989+595722300+593533109+593506157+594305554+594862200+595001028
3098+594878226+594614289+594296327+593829825+592924258+591434851+589579890
3088+587860600+586803580+586427464+586046978+585019520+583599375+582578533
3078+582156830+582029050+582105779+582311744+582387744+582411418+582923265
3068+584142970+585326070+585374997+584305350+583382483+583227751+582629281
3058+580238192+576799248+574297194+573515461+573628308+573658174+573443528
3048+573234771+572985828+572609713+572505121+573105291+573991676+574300897
3038+573952219+573599292+573599049+573505810+572515198+570404981+568018202
3028+566523817+566341829+567017757+567676869+567478128+566167126+564259900
3018+562457448+561212977+560842082+561270098+561714990+561433875+560699247
3008+560419650+560900963+561313319+560423595+557911950+554775125+552217528
2998+550573692+549492208+548555137+547568410+546774294+546663572+547179669
2988+547618976+547592267+547482941+547858631+548800559+549739026+549669704
2978+548031149+545612015+543723425+542576685+541453620+540236769+539600723
2968+539677209+539638055+538838598+537629759+536837768+536961359+537870264
2958+538859965+539023742+537919069+535913140+533698940+531697563+530210584
2948+529588804+529741047+530007472+529878053+529488401+529066273+528436904
2938+527586031+526889161+526324806+525308578+523716400+522338990+521989462
2928+522683782+523784691+524543903+524357241+522806038+520009817+517010485
2918+515184479+514939057+515457278+515901260+516260682+516812229+517372153
2908+517356006+516395564+514813827+513337956+512318329+511508491+510628662
2898+509812086+509351472+509183264+508887277+508276392+507682202+507398901
2888+507128348+506350773+505088759+504018991+503818975+504355862+504616551
2878+503798609+502345653+501378868+501353282+501783180+501828889+500838642
2868+498926742+497108901+496324953+496429574+496637634+496643916+496620971
2858+496470943+495840695+494820187+494080188+494141923+494696626+494786588
2848+493684253+491568421+489342080+487831608+487169127+486947106+486863093
2838+486863579+486618126+485576949+483855505+482303755+481425899+480941945
2828+480483000+480045271+479755597+479684059+479777662+479797543+479585689
2818+479367948+479413718+479495485+479089048+478034790+476675802+475454368
2808+474655973+474390792+474454469+474291724+473502465+472294719+471100449
2798+470041031+469104232+468469613+468249899+468193961+468007118+467742726
2788+467533726+467127744+466161748+464851687+463924359+463785197+464091929
2778+464156396+463527422+462288080+460856189+459399743+457835155+456614449
2768+456629685+457776698+458597098+458038449+456587891+455190297+454144719
2758+453332696+452698441+452218766+451783222+451270556+450668504+450092524
2748+449634793+449219221+448731655+448268825+448077550+448154734+448037972
2738+447248409+445976500+444919085+444336700+443768217+442838552+441764049
2728+440832410+440009916+439252464+438623703+437989023+437133597+436229427
2718+435712390+435662067+435669017+435343346+434699439+434033073+433590245
2708+433375599+433198984+432855314+432259454+431501183+430810869+430403370
2698+430296321+430272525+430027740+429405414+428478601+427389287+426258634
2688+425270997+424638047+424413173+424433751+424435269+424191486+423668074
2678+423035094+422433832+421822705+421098974+420272594+419508678+419014404
2668+418780728+418483496+417851670+417088664+416677401+416741443+416804392
2658+416363264+415576584+415021425+414846145+414662154+414251924+413816714
2648+413478599+413044482+412355230+411566608+410974572+410668507+410455410
2638+410120572+409698201+409415659+409369980+409319809+408899168+408068054
2628+407197604+406624204+406322540+406127471+406030468+406150083+406563258
2618+407138358+407474864+407194781+406366277+405425381+404706415+404294789
2608+404214054+404415648+404612508+404446030+403883648+403224687+402727530
2598+402473093+402512884+402810207+403085616+403059726+402804228+402598536
2588+402518620+402349289+401877840+401216269+400786158+400895090+401368178
2578+401721651+401613782+401004780+400097878+399311714+399054242+399295870
2568+399534645+399357362+398917843+398733518+399074608+399657265+399942114
2558+399649556+398965677+398365962+398265984+398677489+399154250+399201052
2548+398747146+398113802+397609421+397296740+397077087+396902566+396848297
2538+396976229+397211665+397385002+397377293+397255492+397261259+397564258
2528+398035708+398395099+398568012+398743140+399020552+399136647+398711058
2518+397803701+397037690+396991313+397572483+398145489+398223796+397905318
2508+397647360+397778782+398264284+398779106+398943368+398635756+398123879
2498+397773653+397704512+397841944+398124759+398481419+398758498+398843239
2488+398804571+398834042+398994753+399058461+398763020+398230443+397882159
2478+397908019+398097442+398224919+398316732+398451766+398519996+398373853
2468+398149981+398185887+398544641+398839415+398666563+398102208+397654948
2458+397708428+398070642+398233599+398079049+398013430+398337462+398859963
2448+399263000+399478677+399560748+399514492+399385104+399289830+399290741
2438+399338514+399296963+399012782+398526339+398157994+398153927+398385023
2428+398634148+398925036+399308588+399619569+399677297+399520289+399340639
2418+399319636+399509332+399802558+400059878+400219011+400274463+400323329
2408+400601136+401231809+401984586+402496737+402658996+402618507+402538470
2398+402509363+402614592+402914130+403332647+403639288+403618436+403306454
2388+402988643+402813121+402485780+401588378+400095996+398203946+395789547
2378+392601974+388913511+385377928+382251575+379338956+376652517+374486514
2368+372837518+371388296+370049037+368960209+368203789+368095799+369325549
2358+372136339+375813845+379643958+383891556+388922647+393759245+396496099
2348+395871283+392288140+387863866+384882987+383711390+383256633+382971967
2338+383199937+384129906+385253882+385893661+386001651+386217389+387072846
2328+388364696+389488914+390227882+390956590+392060777+393436943+394761148
2318+395906096+396854003+397579737+398173776+398773248+399388169+400039239
2308+400925927+402210371+403734531+405100711+406048740+406755929+407654818
2298+408870000+410018591+410698555+410992327+411340489+412012653+412809561
2288+413327752+413458202+413438808+413443907+413374463+413063998+412533727
2278+412048559+411880927+411947003+411878742+411566516+411315237+411350019
2268+411508090+411516345+411332992+411147848+411128211+411214136+411266037
2258+411388930+411856221+412688610+413586650+414291957+414762800+415021061
2248+415048073+414818647+414340368+413723019+413220308+413010275+412896306
2238+412473479+411681306+410932717+410566071+410445697+410270053+410025420
2228+409913575+410001685+410178604+410371093+410584403+410751245+410764448
2218+410703169+410819961+411237931+411829117+412425524+412988574+413548468
2208+414102109+414581541+414905543+415144561+415585143+416443877+417547882
2198+418476576+418966358+419049126+418955158+419040537+419621828+420669076
2188+421746158+422415773+422685294+422913173+423280061+423583546+423679153
2178+423825052+424289551+424885351+425236821+425299648+425325022+425500939
2168+425836232+426240605+426607099+426920933+427293224+427787316+428286051
2158+428674277+429075675+429711478+430540680+431278737+431858784+432605400
2148+433745584+434995731+435930252+436603023+437465582+438755004+440312095
2138+441987375+443875176+446034926+448264546+450352727+452384424+454603694
2128+457099830+459812584+462712030+465730787+468632601+471237607+473620805
2118+475777945+477397378+478411907+479436876+481149185+483550533+486271452
2108+489316524+493181966+498454807+505426814+513811743+522712070+531040332
2098+538041082+543363578+546738237+547847097+546632978+543511814+539022345
2088+533320153+526189985+517599971+508159175+498929322+490743529+483783481
2078+477885309+473018177+469206638+466226275+463713112+461490413+459600366
2068+458093840+456912622+455932390+455058511+454291590+453746356+453602156
2058+453907370+454380914+454570732+454306098+453878203+453753063+454216834
2048+455275767+456788120+458664782+460952828+463745740+467168658+471547435
2038+477378439+484914589+493904726+503881924+514521299+525536821+536404713
2028+546401760+554853857+561297900+565612969+568156605+569551862+570077732
2018+569394884+567136128+563570011+559291060+554576202+549479703+544154173
2008+538661466+532902638+527055366+521577046+516624839+512037213+507901370
1998+504578611+502230530+500739848+499888975+499312813+498635580+497908662
1988+497533457+497692438+498216092+498922007+499774246+500800156+502032032
1978+503437214+504885495+506278112+507629117+509011050+510599889+512648796
1968+515111332+517466607+519279500+520711301+522132357+523558937+524840862
1958+526193870+528140128+530850696+533769051+536107268+537732590+539342311
1948+541728544+545068663+548870489+552292739+554610559+555851631+556911565
1938+558697386+561312469+564100312+566305043+567796818+569242338+571417264
1928+574355954+577484342+580405368+582958351+584906795+586340234+587760137
1918+589129474+589804066+589892692+590402961+591825960+593580700+594734420
1908+594807385+594123020+593616211+594061103+595456664+597187669+598598163
1898+599420324+599838992+600195743+600775517+601827439+603187731+603941540
1888+603461987+602504034+602117417+602312577+602525765+602429976+601902103
1878+601013898+600142628+599631934+599775497+601141799+603900930+606531432
1868+606414821+602925433+598303086+594797491+592781424+591287464+589476088
1858+587523881+586155637+585524690+584897689+583619346+582057216+581235116
1848+581866002+583810985+585712444+585398185+582321881+578521512+575884272
1838+574477603+573327100+571942526+571072046+571728488+573403161+573946999
1828+572303891+569794674+567536888+565125585+562245169+559635550+558079612
1818+557588768+557625675+557720675+557839471+558145778+558508417+558549999
1808+558203203+557903634+558284909+559786397+562241649+564734962+566240031
1798+566658820+567048473+568801392+572326230+575813129+576500165+574586079
1788+572904668+573148937+574846556+576963146+579322670+582026925+584606983
1778+586787676+589479427+594098314+600698789+606530764+608151957+605834562
1768+602297219+599435439+598430744+599944737+603034699+605516600+606709352
1758+607751500+609091943+610545900+612992411+617606867+623589871+627981547
1748+628954555+627848790+627038588+627846787+630278183+633381500+635862551
1738+637759761+641078998+647075721+652802619+653786068+651378710+649126267
1728+647929751+647742239+648846669+651014735+653830442+658118195+665151967
1718+673681278+678845095+677898797+673951466+670725287+669819113+671824921
1708+676930160+684069070+690756896+696139730+702509655+711049224+718023326
1698+720106712+719263426+716946152+713529486+711538551+713236898+718005418
1688+723893119+730994818+740405414+748618887+749810061+745995548+742910746
1678+743599239+748021327+753540743+757585684+761063477+765894886+770380895
1668+770939847+768910548+768937196+772508047+776580426+777678421+776734612
1658+777301699+782373612+793972307+809921521+818138698+814007437+808776603
1648+808238775+810098895+809436019+805401034+800801328+798172101+799454390
1638+805375720+812973666+814856611+808179043+799577314+794418413+793086044
1628+793864741+795336424+796784432+796692406+793712438+789986066+789268982
1618+792020950+793850780+790415843+784147535+779571443+777768869+777191766
1608+776188832+774514037+772624233+770725991+768973740+767536112+766282960
1598+765165419+764628865+764941061+765413876+765110300+764176203+763659985
1588+763949963+764099414+763116269+761459382+760736046+762273105+766270030
1578+771518468+774958626+773898388+770713850+769433322+770154898+769829469
1568+766855449+763377777+761457015+761640216+765262665+774688801+788337556
1558+794875385+789442774+781402426+775794080+772586961+770803509+769464462
1548+768826778+770930803+777423347+787469443+798336485+805901833+804787023
1538+796694531+790316775+789791695+793257408+796066316+796746068+798558900
1528+803701047+810516896+816680795+823122713+831148857+837763901+839606175
1518+838748381+838487358+839579829+841867056+845966083+853013210+863759878
1508+876591875+884166328+880589468+873311184+870014346+871357460+875119646
1498+878321848+878795817+877564640+878092816+882490259+889793674+896685098
1488+900261958+900960892+901404691+903459304+907004721+910901243+915084222
1478+920544331+927529116+935531950+943534238+948209944+946657223+942342943
1468+940640589+942043556+942706675+940338896+937911749+938939450+943853293
1458+950484483+954244485+952505163+948569851+946373012+947524972+951249947
1448+954715115+955411742+953967679+952966930+953722682+955699352+958724544
1438+963543327+968583007+970173485+969058736+969135404+971413282+974164461
1428+976299262+977958881+979029863+980132654+983445032+989877784+996355456
1418+998146983+995411829+992278768+990800226+989978794+988517492+987045263
1408+987374273+990203698+994025677+996807876+998472290+1000539104+1003417395
1398+1005334212+1004433744+1000603874+995276826+991003642+989873717+991466502
1388+993338823+993775581+993363529+993337366+994171971+996008478+999095284
1378+1003813482+1009703307+1014179603+1014184459+1010590723+1007777748
1370+1008110401+1010876938+1015497525+1021899076+1028077665+1030760371
1361+1029836593+1029189621+1031754685+1036914800+1042342979+1046927509
1352+1050843456+1053511108+1053701715+1052320966+1051887547+1052752321
1344+1053363114+1053432073+1053863914+1054525940+1054384745+1053585773
1335+1053757562+1056327604+1060965188+1065087161+1065301199+1060778829
1327+1054976113+1052800398+1056349335+1063121356+1068176455+1068794775
1318+1066590044+1064401824+1062816627+1060897200+1058927389+1058450993
1310+1060298183+1063817012+1067651982+1070951066+1073212615+1073741823
1301+1072618211+1070975954+1069344016+1066898779+1062972513+1058228334
1293+1053230175+1047385816+1040949725+1035988352+1033549914+1032068398
1284+1029810005+1026605618+1022678744+1017404386+1010200160+1002172195
1275+995265960+990452884+987478803+985260353+982100097+976472023+968093984
1265+957997384+947745566+938741437+931337862+925047033+919854442+916133776
1255+913488403+910677977+906710068+901356797+894734773+887357300+880358857
1245+874518930+869015358+862004956+852870922+843134291+834822843+828652388
1235+823797791+819007721+814014721+809823001+807258969+805763734+804385412
1225+803193631+802631158+802383975+802019090+801848029+802206905+802925082
1215+804228192+806881882+810808574+814828869+818273640+821560280+824897607
1205+827853598+830412349+833285844+836931845+841030873+845022759+848789256
1195+852595756+856319093+859426598+862282733+866084012+870620222+874364198
1185+877404870+881412418+886368631+890280208+892446878+894677287+899228187
1175+907150468+917725590+928185740+935290717+938428088+939946633+942308706
1165+946302232+950932774+954228823+955511659+956648139+959150072+961902587
1155+963669892+965602856+969819708+976443735+982808622+985144229+981405291
1145+973571818+966383496+963349806+965014341+969786868+975148335+979644359
1135+983657917+987123813+988191699+985897370+982482283+981652898+985090021
1125+990806903+995070011+995901641+994123652+991613403+989908682+989749640
1115+991256287+995186621+1002662189+1011749118+1016511628+1012696933+1002622186
1105+992440541+986706358+985573702+986022236+986077294+987282065+991484652
1095+997045224+1000739484+1002310901+1003960140+1005899417+1006196679
1087+1005251474+1006770565+1011875015+1014885760+1009527632+997781429+986789461
1077+979982596+975296328+969746076+963348167+957838888+953596845+950270809
1067+948020550+946688242+945553097+944623249+944709326+945553522+945739637
1057+944919358+944036373+943915271+945328860+948852059+952885892+954234469
1047+952267814+949478271+948066563+948076458+948680999+949298590+949752163
1037+950544822+951910881+952824036+951993983+949446220+946251666+943032407
1027+939538163+936071903+934735710+937673975+943862884+949153450+950639397
1017+949761086+949718958+951498405+953279247+952943378+950179694+945480375
1007+938468698+928921399+918518492+909462340+901766359+894086829+886575628
997+880460777+875734689+871296757+866792537+862975414+860355232+858272817
987+855669025+852244529+848386189+844524570+840844940+837553504+835141958
977+833894452+833103310+831381532+828220062+824674220+821786641+818990117
967+815067978+810131007+805493423+802163442+800406880+799947845+800179244
957+801023562+803452954+808218318+814189667+818851715+820907723+821810983
947+824043092+828640854+834986012+841883628+848188479+853351204+858066002
937+863764674+871235204+880000224+888842519+896899258+904494047+912037116
927+917414609+916983557+910969959+904222401+900714135+900470837+901472618
917+902367986+902669437+901618244+898722896+894948386+892111434+891268756
907+891981712+893079342+894027947+895098747+896299937+896992194+896785015
897+896616382+898453253+903598435+911331445+919226288+924947906+927951548
887+929282582+929911646+929705985+928301076+926703860+927090538+930756814
877+936581080+941307654+942091572+939823042+938257331+939567240+942372687
867+944161421+944425843+943896574+943088800+942860678+944169130+946856329
857+949758476+951738363+952344422+952191632+952342054+952744090+952294524
847+951073180+951049931+953640551+957967093+961943561+963620298+962898479
837+962399683+963961266+966422710+968127674+969772481+973466013+979275892
827+983594118+982953156+979924200+980856840+987809695+996086664+1000282998
817+999719371+995869408+990176321+986350760+988596163+996082779+1002133831
807+1001116692+994652071+988216526+985171484+985928511+989894356+995136177
797+997694321+995018777+987936321+978305009+968519997+961711979+959353791
787+959573536+959714610+958633611+954799795+946193877+933888297+922449372
777+916103546+915912514+919841938+924586905+927709768+928487252+927401458
767+925655156+924802461+926201057+930667277+937786337+945117007+949494661
757+950385234+950845484+954617565+962658824+972016669+977888526+977259705
747+971128707+963680030+958196550+955382361+955113265+956952990+959995786
737+963703947+967779907+970640473+971536023+972525967+974595331+973817604
727+967123647+958750707+954216076+953361924+953157052+954286430+960294990
717+970734502+978721978+978202543+971583250+965945403+966087387+971452253
707+975915863+973446831+965913716+959985223+958241956+957682700+954442680
697+949047948+945153186+944635754+947170831+951404011+954460830+953422627
687+947861873+941082446+937500851+937506010+937679014+933996105+925302107
677+914403985+906637407+904980216+906027100+904702015+902951342+908264428
667+919697465+925112957+920612562+912083190+905430572+903267301+907133350
657+918034386+931998917+938134104+929315058+912444555+898737039+893537225
647+897308760+907843575+918501131+920893070+915639897+911431422+913532109
637+919631177+924958104+928365846+931763086+935121477+934126981+924979046
627+910898451+898995391+893141320+892700981+893142473+887228489+872925235
617+858952630+855380200+860187874+861186620+854124620+848440214+851994008
607+861188198+865310232+863211609+865768478+879828981+901254269
##END=
