##TITLE=<SNM>
##JCAMP-DX=4.24
##DATA TYPE=INFRARED SPECTRUM
##DATE=29/4/2025
##SAMPLING PROCEDURE=Instrument type and / or accessory
##ORIGIN=Admin
##XUNITS=1/CM
##YUNITS=ABSORBANCE
##RESOLUTION=4
##FIRSTX=4497.3318
##LASTX=599.83466
##DELTAX=-1.4281778
##MAXY=2.1241288
##MINY=0.381951
##XFACTOR=1
##YFACTOR=1.9782491e-09
##NPOINTS=2730
##FIRSTY=0.40059429
##XYDATA=(X++(Y..Y))
4497+202499417+202312491+202163694+202060438+202044545+201992887+201661291
4487+200996593+200293675+199935249+199995042+200227344+200418594+200512208
4477+200385542+199847179+199067701+198661654+198958178+199407687+199130070
4467+197981635+196696123+196038732+196264405+197315957+199020969+200875772
4457+201995267+201802586+200762302+200067550+200445771+201480270+202202832
4447+202120261+201577379+201292696+201530060+201701213+201100858+200011252
4437+199463202+199921404+200866748+201558789+201665856+201227750+200341974
4427+199060921+197718359+197090675+197750462+199259915+200462855+200551859
4417+199531446+197973997+196705539+196341463+196787673+197418384+197741077
4407+197642175+197269467+196979903+197035417+197245634+197308003+197312944
4397+197433510+197463836+197215353+196992542+197169691+197622500+197945584
4387+197991427+197899545+197677924+197060967+195972973+194938972+194545670
4377+194579837+194325796+193656940+193136234+193075281+193220236+193461125
4367+194196433+195654981+197235450+197920847+197337290+196125175+195263110
4357+195248603+195886952+196667801+197229108+197493574+197495969+197321712
4347+197232000+197502613+198044139+198396826+198148449+197342607+196556305
4337+196485198+197265610+198282227+198825666+198801110+198542083+198189833
4327+197723300+197369709+197368790+197439249+197111691+196612271+196750975
4317+197824612+199201493+199972745+199623192+198329214+197038822+196921496
4307+198246583+199964430+200700189+200123486+199139802+198808357+199308801
4297+199968572+200157744+199948973+199805177+199848324+199745897+199353634
4287+199127463+199590290+200608006+201513021+201842146+201617030+201012185
4277+200137888+199198902+198674820+199031319+200135176+201270219+202008132
4267+202639356+203354943+203637156+203033833+201973739+201268802+201256404
4257+201816521+202813070+204010647+204838168+204859620+204385841+204045131
4247+203911203+203607312+203045629+202526399+202315308+202471622+202861806
4237+203191081+203263619+203165426+203002784+202729339+202414179+202319963
4227+202623990+203368818+204474770+205476050+205708563+205104171+204292107
4217+203775769+203652432+204021314+204875770+205731598+206080307+206064323
4207+206227236+206821761+207606964+208079192+207841677+206965421+206045793
4197+205690757+205841181+205850476+205403798+204966567+204983515+205141577
4187+204967441+204736509+205086304+205945129+206570688+206648348+206692669
4177+207210860+208081587+208998985+209939267+210855174+211427252+211392708
4167+210842504+210125184+209588433+209375791+209378909+209392061+209314009
4157+209211311+209202498+209290644+209425701+209768249+210618744+211875813
4147+212859045+212982472+212354789+211521333+210850956+210384257+210143488
4137+210245358+210607551+210911592+211075183+211390509+212063733+212911803
4127+213439680+213022771+211423622+209393116+208183547+208244952+208980757
4117+209847943+210984311+212565006+214145566+214976491+214803424+214199483
4107+214084507+214777256+215628308+215884443+215663003+215545707+215585102
4097+215431077+215115616+214939461+214845064+214648872+214650213+215326134
4087+216557939+217642920+218003772+217665126+217169925+217099029+217528231
4077+218028389+218215406+218018868+217476859+216728565+216134778+215953321
4067+216065118+216302271+216672750+217079776+217295612+217325426+217412411
4057+217670715+217994809+218299287+218647786+219134054+219671242+219978749
4047+219900230+219640615+219476391+219328031+218945576+218454306+218270453
4037+218438714+218578382+218641896+219106455+220099751+220976157+221216595
4027+221190698+221508404+222070343+222333182+222232548+222204557+222390218
4017+222390158+221901871+221106138+220252706+219437900+218986251+219421088
4007+220704354+222041117+222826275+223254753+223663859+223863470+223488758
3997+222620894+221721905+221156937+221042323+221434329+222358958+223607033
3987+224710891+225285350+225301906+224945995+224352028+223651249+223184671
3977+223370980+224226175+225169153+225540370+225293515+224903874+224718183
3967+224773652+225074485+225577385+226025207+226171277+226082996+226081384
3957+226470378+227312677+228343921+229254766+230112567+231060819+231555327
3947+230851762+229492296+229020641+229915457+230894260+230770079+229947681
3937+229435320+229622412+230462949+231789558+232932057+232990540+232195484
3927+231957442+233022251+234403350+234805074+234529309+234723843+235407282
3917+235300049+233509182+230773996+228622609+227787480+227874872+228528332
3907+230423795+234441977+240058179+245273471+248423818+249052029+247050478
3897+242908582+238520057+236222976+236999999+239239833+240029721+239361664
3887+240006430+242855689+245386338+245823599+245659828+245578160+244198523
3878+242026255+241540921+243490438+246637411+250178906+253324026+253809541
3868+251255149+248629169+247694085+246996259+244920302+242466891+241620660
3858+243590514+249434710+259548733+268634886+267199312+257223390+247274389
3848+241781765+241528824+245134119+250006140+254181074+257762838+261533788
3838+264452722+264527866+261906918+258290715+254717267+251601659+249605758
3828+249140295+249753621+251364898+255027606+260160975+262652906+260928687
3818+258868850+258341966+256529074+251959152+247408874+245841406+248207982
3808+253072259+257224445+259688687+262883401+267277861+269062069+266461097
3798+262343531+258548959+254777858+251352499+249439696+249373697+250593826
3788+252654492+255135019+257143214+258421841+260144283+262870596+264819735
3778+264197732+262144372+261137940+262571224+266493336+271528391+275454721
3768+277635651+279226455+280639612+281816520+284058825+288616108+294116279
3758+298019771+300698870+304877268+312253936+321955434+330204244+333928282
3748+335453312+338387612+342311653+343203260+340792107+339917584+344161334
3738+353872534+365927185+374702608+376778504+373972829+370522733+369759390
3728+373027199+379289840+385655314+390095783+392906400+394772321+395958117
3718+397501888+401130022+408056155+418215690+429219166+436610326+438546841
3708+437665749+437542005+440717165+447708982+455753993+460600856+461332924
3698+460470965+460231793+461387821+464231069+468982569+474894136+479448767
3688+480220909+477745368+474280056+471956973+472446194+476078727+482091258
3678+490183875+499030374+503670575+502029755+499298983+499110279+499205761
3668+496908680+494055309+493288681+494530670+496109060+497586665+500313611
3658+504952636+509546738+511920681+513843336+519270412+529910339+541255067
3648+544591905+538771150+530357830+524821744+523673008+525357696+527448779
3638+529111533+531508193+535822508+541957036+549478328+557719545+563065873
3628+561028181+555117278+552316212+554897811+561350692+568589063+573021307
3618+572862220+570154136+567776337+566525459+566365529+567881912+570715699
3608+572106138+570032591+566779154+565926837+568203459+571587420+574469595
3598+577557197+581953164+586832416+590480737+592931090+595535647+598312790
3588+598973842+595894255+591205605+588204295+587860994+589024615+590446931
3578+591904621+593326938+593948459+593564543+593801123+596932293+603366374
3568+609821425+610953168+605863849+599437000+596260816+597020273+599504190
3558+601748333+603771201+606582088+610446321+614397629+617462574+619696592
3548+621242804+621353501+619648083+617331990+615977225+616176324+617634556
3538+619625787+621397612+622284157+621441240+618658915+615501111+613823231
3528+613723862+614174909+614425711+614491816+614994686+616225014+617256243
3518+616874737+615606807+615478694+617382850+619702317+620072555+618293619
3508+616580970+617186221+620232967+623440185+624656593+624387472+624433390
3498+625180011+625584717+624990494+623811085+623123097+624216996+627318096
3488+630457763+631529246+631333883+632234830+634723869+637319750+638462641
3478+637221586+633747898+629918134+627736481+627158407+627399206+628766626
3468+631342560+633638225+634423775+634468307+634902721+635536174+635900627
3458+636373005+636872982+635555939+630802269+624390786+620762953+623055304
3448+630146158+637379769+640851347+640270200+637318484+633511077+630216120
3438+628636465+628643274+628646829+627285194+624920230+622934362+621982134
3428+621301196+619998736+619135632+621076426+626034076+630697899+631913283
3418+630555384+629259915+628440981+626746108+623634342+620361742+618832464
3408+619608071+621321262+622339596+622377500+622169482+622088854+622118562
3398+622763826+624336793+626069810+627068560+627846818+629035386+629008329
3388+626037029+622189368+621355068+624169692+627572755+628789224+628009279
3378+627076454+627113694+628053148+629542293+631419151+633386399+635165816
3368+637045988+639120198+640347754+639776851+638256552+637426470+638010630
3358+640082671+642937247+644946677+645217425+644290445+642790213+640941617
3348+639777152+641028391+644867797+648663996+649081778+645755125+641539094
3338+639128574+638853909+639446928+640234526+641331438+642360679+643318452
3328+644769874+646004240+645272744+642677044+640263872+638714045+636882262
3318+634758459+633985504+634967621+635987522+635877306+635823855+637443283
3308+640227174+642048834+641673956+639550032+636838031+635016251+635263076
3298+637222369+639793784+642850653+646272096+648391259+647999629+646547544
3288+645952235+646056244+645672569+644683521+644540283+646723262+650687767
3278+654295052+655633426+654073717+650693010+647815053+647645963+650441364
3268+654048347+655833128+654933506+652426088+650147898+649569944+650796115
3258+652585054+654116802+655554666+656739137+656996869+656517742+656562816
3248+657514562+658199297+657813994+657013079+656799216+657398743+657872085
3238+656722083+653622731+649878476+646850953+645148909+645034054+646296923
3228+647885557+648554142+647864828+646291379+644907448+644531184+645068643
3218+646207617+647920508+650202795+652621210+654144100+653575005+650947729
3208+647928402+646027380+645263464+644880993+644655018+644670385+644516541
3198+643774801+642674513+641566874+640592711+640446279+641882215+643849222
3188+644057902+641910236+638918086+636581324+635540151+635720027+636261885
3178+635864953+634007318+631825604+631312611+633211042+635826266+636906667
3168+636258631+634997510+633548920+631604028+628723721+624673285+620361140
3158+617912475+618206423+619768422+620916436+621404481+621421716+620741561
3148+619692977+618992454+618391301+617259678+616129743+615881291+616008620
3138+615230543+613453295+611786082+610766482+609985031+609098184+608118538
3128+607246877+606951301+607511478+608258461+608106787+606971308+605642756
3118+604254305+602115195+599329496+597314824+596979296+597411662+597210694
3108+596252440+595167278+594172325+593597143+594242287+595969338+597284513
3098+597383400+597132477+597315908+597574123+597521335+597271075+596626112
3088+595225610+593401539+591861836+590769202+589710675+588495532+587470630
3078+587023440+587149685+587544147+587941260+588334879+588874145+589574306
3068+590175701+590310744+589711217+588183084+585903147+583866901+583235919
3058+583913844+584537836+584238464+583489191+582967641+582623496+582073202
3048+581037694+579343304+577159843+575132636+573828489+573260237+573242099
3038+573750272+574512139+574725881+573764614+571861482+569718757+567956634
3028+567106185+567270695+567590796+566951618+565398115+563974593+563199228
3018+562678039+562301294+562816216+564730856+567144751+568120722+566513829
3008+563255089+560461978+559352832+559216886+558663036+557640725+557350875
2998+558344442+559837986+560610398+559807434+557274766+553949740+551622740
2988+551329455+552173697+552357611+551213153+549687309+548812214+548409074
2978+547725605+546759336+546274062+546583136+546907034+546213260+544411848
2968+542499979+541679177+542367527+543709578+544111452+542837555+540731950
2958+538922403+537772281+537371069+537720517+538058937+537410299+536159904
2948+535714582+536611914+538066590+538993028+538780912+537437476+535396711
2938+533126596+530959948+529279839+528422640+528418844+528965704+529408554
2928+528919785+527211535+524916593+522939945+521738421+521284603+521320457
2918+521558906+521756318+521692623+521339620+520986978+520886585+520829760
2908+520305980+519139648+517834055+517117142+517154503+517486294+517695397
2898+517589942+516881585+515456255+513877865+512946427+512805478+512862966
2888+512449583+511459451+510525361+510367178+510808763+510894031+510169586
2878+509190481+508537082+508011554+507036307+505437970+503719416+502670409
2868+502617893+503074995+503290274+503025009+502609125+502425694+502491528
2858+502341661+501463432+500086762+499174305+499343063+500137863+500512680
2848+499692481+497661146+495231222+493467834+492758062+492621151+492454803
2838+492120179+491686820+490910189+489303265+486921218+484809557+484123015
2828+484812510+485611376+485404172+484297829+483219356+482760024+482666229
2818+482437964+482145071+482220787+482543299+482373215+481345089+479912649
2808+478601331+477424152+476301628+475521472+475401193+475793787+476198162
2798+476225821+475874566+475414963+475070276+474716067+473946848+472647854
2788+471306587+470444326+469962066+469354042+468343753+467041263+465764444
2778+464986096+465047260+465566008+465575891+464625862+463260069+462153063
2768+461444827+461131113+461271549+461498097+461133614+460109013+459043165
2758+458316881+457798856+457414819+457217889+456966454+456319353+455376374
2748+454496066+453701206+452745663+451650257+450692967+449984641+449431484
2738+448963113+448512519+447930468+447157242+446303026+445434408+444557354
2728+443853999+443587680+443670990+443608229+443001260+441900340+440604238
2718+439409041+438554554+438163015+438219388+438578779+438886557+438697642
2708+437915376+436862755+435770271+434656365+433749874+433372707+433359419
2698+433181773+432605988+431829478+431141670+430692523+430410687+430070218
2688+429521159+428789391+428039245+427575514+427604951+427851746+427796246
2678+427386508+427043087+426939409+426768874+426258532+425536165+424885025
2668+424339944+423703749+422949595+422397041+422310417+422453474+422293062
2658+421643761+420875596+420387310+420089294+419636108+419007506+418449197
2648+417938765+417229113+416444498+416067782+416164590+416129489+415475336
2638+414476587+413777722+413679980+413963774+414145820+413835752+413070450
2628+412306022+411947626+411983450+412127532+412131358+411865823+411306459
2618+410599218+410031538+409808004+409861937+409888963+409575370+408904496
2608+408228168+407892067+407863384+407908759+407974292+408075800+408002735
2598+407567838+407014622+406711936+406556947+406128950+405372717+404711032
2588+404475115+404564239+404682680+404649688+404438235+404097405+403723763
2578+403436292+403316887+403374436+403567900+403836509+404078513+404141334
2568+403950762+403663714+403535360+403564405+403453708+403027760+402477435
2558+402066251+401852901+401852117+402161884+402674727+402923420+402557732
2548+401817317+401228577+401002331+401023422+401239815+401678086+402187796
2538+402510428+402512657+402166705+401560489+401042765+400974943+401283293
2528+401622015+401877155+402138473+402378579+402486233+402431608+402245886
2518+401979537+401672663+401340811+401115740+401259641+401801740+402348690
2508+402491175+402222023+401803427+401436625+401209083+401214717+401504749
2498+401882187+401995446+401798817+401644642+401728584+401744945+401324812
2488+400645381+400345919+400781568+401557868+402007437+401974475+401850460
2478+401975409+402274329+402423051+402267640+402057182+402115152+402339530
2468+402378428+402228562+402187042+402294094+402310063+402203313+402249833
2458+402615913+403122428+403483235+403590769+403505501+403324058+403104290
2448+402809378+402347274+401725210+401063224+400493043+400208556+400440256
2438+401129570+401840608+402221511+402319765+402310756+402222084+402052361
2428+401906924+401886074+401999724+402261403+402697927+403189407+403464494
2418+403397003+403173920+403055660+403115197+403261297+403354459+403286516
2408+403094317+402988772+403143881+403499867+403901500+404356222+404955959
2398+405608756+406109215+406436517+406731942+407051350+407356416+407595166
2388+407582391+407026222+405888573+404478700+403004891+401282208+399083532
2378+396567074+394130160+391955588+389896534+387777340+385652211+383761373
2368+382304226+381258203+380448097+379749262+379154044+378785253+379018489
2358+380409350+383253923+387370103+392330947+397420235+401418517+403157680
2348+402333745+399690109+396605701+394184334+392659937+391928471+391952093
2338+392476746+393102215+393614274+393924432+393982915+394002469+394376864
2328+395084347+395604692+395717589+395881557+396522181+397483960+398459088
2318+399376516+400169779+400712872+401089196+401574500+402379151+403525417
2308+404824954+405970888+406827544+407553677+408292676+408905369+409215919
2298+409401882+409905294+410946888+412301924+413547529+414309396+414371735
2288+413931234+413636050+413932319+414482372+414632721+414296108+413953018
2278+413933916+414092912+414105506+413812793+413301668+412778099+412335519
2268+411874711+411355330+410988347+410999917+411351835+411846901+412389723
2258+413021097+413763018+414517775+415141074+415583172+415873715+416029005
2248+416122890+416309485+416570532+416626272+416256336+415493023+414491863
2238+413448009+412569147+411934579+411459489+411081358+410863608+410882349
2228+411110795+411425985+411679047+411771275+411729484+411733582+411947897
2218+412276555+412485536+412611329+412960054+413648374+414423739+414953153
2208+415112752+415074939+415192175+415685222+416440189+417183135+417811104
2198+418511536+419557801+420924437+422174169+422909341+423209346+423439177
2188+423847288+424475529+425188465+425737192+426019058+426224304+426588847
2178+427125281+427669881+428062595+428267389+428388060+428492551+428460944
2168+428232529+428142711+428658175+429731587+430760827+431310459+431578706
2158+432015019+432745671+433530799+434128638+434566789+435099577+435951895
2148+437108646+438344066+439388492+440089527+440575494+441257004+442468532
2138+444113569+445817300+447341607+448698210+450022604+451527929+453397737
2128+455542692+457619643+459470438+461404573+463793370+466446738+468677985
2118+470043537+470754213+471291913+471931302+472713447+473611773+474591841
2108+475626626+476748667+478070350+479684414+481549672+483520867+485432133
2098+487021129+487867722+487687213+486679364+485363708+484050522+482559780
2088+480455230+477553560+474190118+470918814+467980295+465203303+462431886
2078+459893011+458021728+456934969+456220225+455353144+454227939+453123765
2068+452258130+451614764+451126959+450767328+450470999+450178136+449977078
2058+450080123+450604445+451413827+452231164+452907070+453463300+453850139
2048+453930194+453860262+454205311+455394422+457230634+459178599+461013667
2038+462963017+465326023+468221064+471701651+475876072+480671653+485522945
2028+489659161+492845378+495475305+497849911+499864011+501439087+502671976
2018+503499286+503730353+503423569+502857366+502206558+501471175+500555766
2008+499313867+497692361+495893329+494259801+492973160+491948559+491037940
1998+490275078+489931084+490320364+491385489+492502469+493060597+493208083
1988+493537946+494279566+495306758+496532356+497780280+498714371+499321340
1978+500033824+501175058+502694755+504467302+506494630+508833802+511454630
1968+514070336+516236803+517858520+519364357+521149138+523143925+525152330
1958+527288728+529726124+532201003+534181267+535546156+536793658+538481661
1948+540750631+543570136+547056177+550971390+554218018+555891920+556702296
1938+558115875+560515248+563134750+565381303+567429359+569602817+571782361
1928+573674645+575444482+577597391+580157958+582645431+584982555+587340830
1918+589089274+589379064+588705478+588377844+589019613+590484654+592312159
1908+593761533+594149848+593547369+592776402+592714154+593727727+595587049
1898+597759844+599700457+600998819+601750080+602618969+603836763+604541625
1888+603998200+602779381+601687350+600667329+599510758+598534787+598113932
1878+598224750+598544610+598730873+598924007+599935350+602223121+604529994
1868+604426649+601250645+597073482+594014082+592335600+590921840+588769715
1858+585966902+583399826+581693926+580660768+579832615+579159691+579029108
1848+580067930+582716236+585901158+586573358+583161498+578045363+574010655
1838+571569764+569927618+568787439+568953214+571123478+574065733+574904552
1828+572703917+569591850+567082563+564613892+561744552+559165544+557396009
1818+556261615+555621172+555704632+556665357+558128349+559297694+559644973
1808+559366451+559029477+559262081+560681324+563258644+565733643+566635072
1798+566115029+565925631+567809178+572056966+576354046+577172437+574567699
1788+572123252+572221536+574446938+577368764+580464381+583718481+586590653
1778+588691196+590833560+594554735+600398328+606129174+608163733+606271207
1768+603054649+600409054+599470746+601063839+604451777+607386559+609068115
1758+610622280+612306788+613819736+616450627+621757725+628487442+632845264
1748+633330899+632404824+632566079+634276198+636910162+639626984+641513604
1738+642885725+646039191+652441695+658621599+658945436+654783519+650717656
1728+648341002+647654339+648670263+651110250+654719704+660334971+669187467
1718+680082052+687821907+688647228+684953049+680701345+678385975+679379722
1708+683727240+689615546+694643218+699138072+706202472+716948397+726524494
1698+729597091+727368375+722464597+717130804+714450439+715792489+719756091
1688+724736760+731866543+742430964+751387829+751683766+746418549+742263562
1678+742405775+747278941+754677242+760961034+765324400+769097580+771005111
1668+768943254+765627629+765467518+768929455+772267196+772231341+770801010
1658+772403745+780035132+794905793+813107265+820781557+815418357+810978641
1648+812494541+814898915+811570515+804171189+798279509+796453028+799263254
1638+806431241+814632265+816193722+808773125+799942082+795219988+794561166
1628+795715687+797138607+798370803+797926144+794031059+788440076+784955240
1618+784725047+785110048+782932011+778851565+775275616+773257388+772494918
1608+771977044+770916649+769352058+767683820+766051739+764450510+763096408
1598+762314956+762183951+762398597+762484527+762226916+761888677+761901331
1588+762343278+762872722+763202465+763372700+763547634+764157948+766290067
1578+770708210+775108575+774513628+769411234+765737965+766285306+768714206
1568+769165975+767117798+764403748+763119246+766451021+777842089+794687049
1558+800958367+790669033+778141461+770622881+767431753+766300371+765794730
1548+766316401+769592797+776663344+786692234+797867933+806985934+807660304
1538+799570640+791904544+789876614+791750760+793150720+793526441+796424646
1528+803160931+810944413+817332696+824045660+832648980+839876866+842617249
1518+843152358+843759719+844105189+844775521+847788341+854121787+863411709
1508+873874472+879596581+875479317+867572602+863161811+863915001+868858430
1498+875315108+879498237+880491382+881789985+886307616+893230466+898899003
1488+900480587+899168125+898157082+899423567+902557026+905723629+908626775
1478+913647638+922947745+935498938+947029629+952713472+952034161+949680285
1468+949296429+950287465+949640514+946239801+943129421+943857844+949604358
1458+958562067+964457845+961793268+954166763+948073633+946807510+949913732
1448+954212560+957222246+959194616+960981506+962501022+964214455+967800648
1438+974000257+979996729+981625135+980124058+980062894+982418398+983901517
1428+982064671+979099337+978465402+981008374+985904318+993124731+1002085393
1418+1008485788+1008030886+1002815322+997955836+996003050+995661798+994508361
1408+992372506+990519812+989364748+988641026+988376725+988689475+989455922
1398+990604899+992282658+994075996+995231963+996790166+1000700136+1006363311
1388+1009572939+1006717579+1000484285+996970163+998430443+1002637254+1006604592
1378+1009237351+1011074076+1012469577+1012840899+1012020519+1011052382
1370+1010911434+1012531524+1017417646+1026148597+1035244000+1037923159
1361+1032499639+1025287240+1021793004+1021956067+1023219840+1024215456
1352+1025759317+1029801799+1037073493+1045181476+1050018787+1049336041
1344+1044239733+1037880977+1033824756+1034346367+1038555407+1043421523
1335+1047197535+1050167268+1052895238+1055524502+1057683980+1058248134
1327+1056602433+1054194805+1053781783+1056938925+1061846258+1064684504
1318+1064950010+1065800037+1068893304+1072541323+1073741823+1070579137
1310+1063593919+1055594765+1049430168+1045974377+1044375800+1044102581
1301+1045717549+1048961947+1051108409+1049271925+1044171036+1039012660
1293+1036161036+1036044494+1037000940+1036224309+1031753861+1024131574
1284+1015776405+1008542734+1002576633+997022408+991357426+985912574+981162700
1274+976969327+972563959+967520077+962289750+957411040+952777348+947848562
1264+942560868+937425812+932644121+927685928+921864029+915033136+907590906
1254+900215624+893771661+888602739+883924755+878603737+872258841+865241444
1244+857838805+849942515+841327444+832203237+823555204+816621930+811924602
1234+808795783+805892878+802606056+799992520+799473862+800514070+800808621
1224+799376723+797845577+797774892+798636730+799212093+799533218+800522567
1214+802462758+804743057+807083495+810187849+814630156+819807996+824650912
1204+828884237+832981977+837307259+841707444+845554924+848317363+850328541
1194+852450355+855074196+858049172+861170640+864280598+867424061+870974460
1184+874976628+878759148+881739547+884117105+886876170+891660874+899731797
1174+910264823+920365724+927593308+932096357+935216861+936997966+936666476
1164+935109900+935220537+939227526+946267882+953074430+957113175+957887818
1154+956258929+954436125+954887773+958108731+962070163+965038992+966831968
1144+967115732+966084684+965282744+965303594+964781441+963099162+961909931
1134+962524824+963757804+963909599+963880614+966447329+971991188+976829042
1124+978036893+978003449+980703760+986130233+990975378+993241636+994054181
1114+994969832+995175620+992643736+987662283+983419015+983066916+986547533
1104+990427012+991271797+989391022+987733510+987823418+988291578+986883121
1094+983697356+981918661+984465550+990015315+993997537+994075935+991717359
1084+989021327+986836540+984182509+978818345+969634661+958034671+946827938
1074+938679280+934878863+934349900+934451740+933895239+933647209+934438543
1064+936042303+939122854+944774760+951537378+955483805+954757612+951881523
1054+950341337+950990579+951625598+949335176+944089483+938877837+935932087
1044+934737553+934311876+935296223+938570451+943268682+946918208+947372809
1034+944893592+942350440+942155077+943725693+945020862+945092691+944430615
1024+942975035+939926903+936717034+937058346+942711397+950332841+953760912
1014+950302650+943352985+937646122+933986593+929725307+923968368+918869348
1004+914266569+906617767+894956192+883091540+874280986+868118799+863052078
994+858630862+854702693+850767474+847169229+845318585+845559444+845980962
984+844580520+841571196+838298656+835111987+831631852+828090613+824873452
974+821492745+817431462+813277680+810027557+808069168+807237700+806691564
964+804832242+800788133+796029461+793313965+794046124+797364099+801597485
954+806028824+810808828+815709473+820023486+823672470+827303918+831154412
944+834862209+838475339+842742229+848407452+855545188+863133248+869661033
934+874790063+879599895+885149299+891703357+898640307+904409479+907647791
924+907807601+904330418+897772684+891207478+888246602+889999023+894522983
914+898531176+899414468+896607075+891804353+887729813+886147204+886761856
904+887891731+888489752+888927781+889932014+891469066+893120974+895168006
894+898136473+901809441+905243297+907381984+907940956+907925168+909053657
884+911861050+914782153+916339513+917291319+918955459+920392299+919652788
874+916859677+914245478+913621907+914793422+916776518+919312982+922532553
864+925761344+928407903+931157627+934336221+936398078+936512391+936544991
854+938078428+939965590+940375599+939448800+939140992+941597853+947314116
844+953536925+956337026+955336590+953683236+953224055+952823688+952450558
834+953840877+956184207+957010070+956766319+957063099+957156080+957128180
824+960050368+966432143+971191357+970758690+968921785+970366759+973565661
814+974986652+975977869+979911702+986055088+990447138+991288187+990262442
804+989101834+987980335+986336864+983839509+981208437+979525436+978412735
794+975304283+968553355+960752397+955292118+952670808+951593841+950779669
784+948863943+944262851+936993386+928947652+921357483+914739128+910397455
774+909718144+912180247+915813744+919822842+924000065+926334176+924911076
764+921608044+920486003+923227351+928843040+936062128+944309251+952371497
754+956936493+955282657+949758382+945834492+944783799+942503078+937772427
744+935095136+937988038+944919565+951562868+954725795+954489274+953894146
734+956299665+963126521+973168970+981629474+982581521+976141174+969436285
724+968388906+970131745+967246497+958120361+948345888+944306961+947781191
714+955302724+960712324+959728941+953859015+948222837+946308377+948316421
704+952520821+956281889+957491367+954029008+945293056+934922069+927290924
694+925393939+929979062+936651591+937565434+931166425+924422307+923548778
684+926884651+927455735+921779363+913670175+909974430+913765688+921395748
674+925328738+920004405+905501209+887946869+879498237+888244011+902262536
664+907182403+905818719+906444098+911354504+916069608+914824878+906037885
654+895144986+889176233+888746399+891793627+898226924+906154307+910174011
644+907197890+898873152+888784604+881265602+879821230+884901389+893868318
634+903177102+910266510+914118751+914117003+910012514+904115471+897766899
624+889840359+879028389+869108208+864464693+863984722+866250076+871494624
614+878798136+884273540+880712897+865727923+848887604+839260526+838247375
604+846507153+859213154+866726733+868341279
##END=
