##TITLE=<SNM>
##JCAMP-DX=4.24
##DATA TYPE=INFRARED SPECTRUM
##DATE=29/4/2025
##SAMPLING PROCEDURE=Instrument type and / or accessory
##ORIGIN=Admin
##XUNITS=1/CM
##YUNITS=ABSORBANCE
##RESOLUTION=4
##FIRSTX=4497.3318
##LASTX=599.83466
##DELTAX=-1.4281778
##MAXY=2.1167018
##MINY=0.3852675
##XFACTOR=1
##YFACTOR=1.9713322e-09
##NPOINTS=2730
##FIRSTY=0.38945574
##XYDATA=(X++(Y..Y))
4497+197559667+197052554+197461991+198449081+199525972+200253277+200589453
4487+200768100+200882860+200900351+200902241+201015685+201310076+201826426
4477+202432244+202716974+202362702+201569301+200884508+200616181+200495102
4467+200067539+199464593+199427101+200333749+201679949+202809933+203537042
4457+203781452+203397746+202627295+201913853+201243754+200421372+199746330
4447+199590102+199559261+198893924+197582692+196431542+196188719+197100704
4437+198971403+201136386+202630500+202883059+202190147+201201166+200266097
4427+199600291+199545973+200176962+200940111+201099892+200469402+199556706
4417+198993445+198842735+198715035+198497262+198379252+198302635+197983285
4407+197384860+196768444+196452057+196687170+197447614+198358147+199016137
4397+199219714+198973883+198524776+198136958+197767629+197348456+197138136
4387+197252397+197283494+196885970+196257974+195762290+195515052+195435094
4377+195456078+195675922+196310403+197440085+198862464+200122537+200671406
4367+200369140+199768054+199402519+199113420+198582285+198032388+197854435
4357+197987019+198060401+197863793+197528570+197299943+197141447+196839347
4347+196598323+197024979+198230643+199456490+199871248+199351255+198364799
4337+197420719+196766191+196468445+196545259+196891080+197227165+197336497
4327+197326883+197487721+197943434+198590116+199290874+199978358+200555165
4317+200776687+200351679+199314654+198254348+197849915+198154359+198647564
4307+198948999+199125953+199331314+199542450+199786316+200300369+201143295
4297+201805805+201714493+201084351+200694234+200901107+201439152+201965934
4287+202227004+202000115+201307097+200448660+199749398+199439634+199574878
4277+199890055+200023304+199973672+200121615+200818156+202001113+203184221
4267+203945799+204368554+204737581+204973405+204813896+204406742+204183603
4257+204214987+204166489+203866430+203542424+203528364+204007238+204848547
4247+205458477+205228866+204444068+204133880+204762919+205756812+206436481
4237+206599678+206232496+205546024+205192780+205626134+206316929+206278847
4227+205400333+204656656+204882849+205901309+207044355+207924985+208354166
4217+208106763+207268704+206403237+205974797+205882895+205750538+205399048
4207+205005485+205026393+205814925+207054590+207827052+207518073+206403433
4197+205200717+204457584+204410900+205010262+205934432+206770147+207285591
4187+207524906+207668375+207803362+207915280+208151632+208740216+209513086
4177+210016375+210214706+210537079+211174222+211821296+212144183+212144078
4167+212007745+211806269+211423455+210746945+209944081+209478376+209657296
4157+210160342+210380186+210338249+210650856+211390906+211810139+211463351
4147+210799858+210455095+210594920+210978309+211193331+210951581+210453372
4137+210248283+210594361+211225259+211836656+212451348+213117290+213602800
4127+213702185+213558323+213358722+213090788+212876462+213082745+213761205
4117+214329999+214224038+213678843+213452029+213792998+214166454+214181088
4107+214239126+214816129+215635487+216114859+216136069+215882679+215461843
4097+215078862+215036850+215270194+215338285+215117413+215096414+215758183
4087+216994113+218226461+218856770+218614506+217759954+216935955+216661264
4077+217018332+217748842+218420529+218606342+218161605+217288126+216370260
4067+215898008+216228349+217120922+217834077+217902969+217512293+217118488
4057+217075342+217457839+218004803+218455103+218867352+219266872+219360678
4047+219140547+219259540+220132384+221067953+220991306+219823572+218554020
4037+218076386+218407845+219016293+219548956+220034935+220526326+220855260
4027+220925558+221038776+221577606+222453974+223222853+223680863+223989449
4017+224183940+223890563+222777798+221193991+220041390+219920523+220652318
4007+221681300+222628812+223369466+223904895+224329404+224714214+224935177
3997+224792963+224325610+223791919+223406353+223326198+223708484+224434700
3987+225035832+225276281+225391616+225455912+225182475+224644022+224458209
3977+224939244+225613924+225787250+225321045+224731842+224583339+224863896
3967+225080036+224943144+224704267+224705567+224865665+224972548+225358371
3957+226597643+228364890+229303014+228585430+227124561+226554375+227343633
3947+228535087+229297390+229849267+230423882+230410503+229419013+228203069
3937+227694111+228110064+229325071+231089023+232513669+232447634+231038680
3927+229906247+230288834+231585871+232237284+231937255+231827621+232627597
3917+233751731+234219069+233694737+232582667+231576543+231117142+231303590
3907+232490146+235341041+239653622+243703409+245789871+245646704+243596209
3897+240081322+236374559+234235654+234548064+236124978+236489409+235304426
3887+234813625+236259754+238146916+238943204+239437135+240159662+239820040
3878+238255371+237423164+238597806+241165620+244073132+246434481+247027222
3868+246026782+245530372+246386376+246696035+244733344+241719886+239921208
3858+240497274+244129098+251249081+258356077+258086404+250973769+243284358
3848+238543064+237497241+239612985+243673703+248149814+252014044+254940922
3838+256405117+255798437+253687531+251445280+249825628+248637486+247639934
3828+246905024+246501891+247018000+249861397+255023012+258711528+257971418
3818+255419765+254094927+253297823+251228671+248427695+246727510+247566869
3808+250872767+254476864+256785180+258916012+261436582+262052907+259800891
3798+257099118+255308316+253427020+250927871+249074392+248991531+250287025
3788+251896941+253186752+253921737+254344855+255507298+258154102+261095161
3778+262286297+261737700+261345694+262655112+265987360+270400989+274097820
3768+276088781+276957756+277576499+278685183+281363886+286129821+291579477
3758+295688209+298823622+303269936+310463920+319383427+326284366+328507417
3748+328771829+331265429+336337350+339647012+338889335+337579856+339545662
3738+346189296+356180779+365725621+371091342+371558635+369546327+368338834
3728+369906707+373967726+378571508+382355296+385538150+388395637+390734611
3718+392892232+396054525+401677704+410609063+421475296+430023871+433271520
3708+432861826+432298383+434166255+439253293+446160250+452429989+457077642
3698+460636961+463565713+466307579+469897254+475712792+484036504+491630386
3688+493207088+488661208+483025089+479968137+479493920+479659098+479852001
3678+481887410+486795634+491171498+491324370+489814550+490266936+491531122
3668+490523184+487932981+486973783+489264683+493897490+499348869+505000137
3658+509910689+512172019+511603224+511396714+514830645+522040897+528885598
3648+530162755+526179562+521577262+519877470+521554888+524868843+528140408
3638+531356461+535275735+539766828+544243408+549357961+556167286+562360468
3628+562466233+556558657+550354409+547921159+550314558+556202420+561968311
3618+564380759+564771706+566771920+570696335+573551252+573805111+573020555
3608+572720253+572742265+572741056+573055265+574080256+575701979+577399352
3598+578660907+579246270+579558545+580773960+584112165+589725124+596022558
3588+600024437+599891944+596862930+593783603+592680484+593134745+592764418
3578+590353240+587599008+586828602+588492353+591573917+595200752+598899426
3568+601733481+602552748+601919733+601914411+603591768+605830723+606870227
3558+606188532+604537360+603298421+603780499+606283896+610128065+614470337
3548+618354962+620446669+619823934+617113967+614087614+612318703+612599472
3538+614960821+618587898+622037310+624041575+624632562+625023087+625545681
3528+624434579+620612300+616757246+616599537+620343989+624935282+627926804
3518+628831336+627834888+626028545+625411072+626534328+627655046+627445875
3508+626502883+625419900+623824120+622174882+622375405+625017886+627915617
3498+628721217+627952384+627789292+628943087+630636046+632243921+633321522
3488+633180986+631725015+630176221+629614864+629339901+628279474+627674941
3478+629373100+632524871+634797629+635456587+634958000+632913763+629447177
3468+626729228+626339127+626908768+626288996+624912968+625171726+627900439
3458+631332858+633642927+634597046+634484508+633192778+631238885+630050863
3448+630165275+630771864+630953037+630266444+628848631+627564036+627462384
3438+629039902+631777021+633860080+632960991+628797472+624297732+622391551
3428+622748817+623527447+624895734+628184473+632420860+634752094+634465157
3418+633832082+634660238+636030098+636008449+634146050+631358135+628609224
3408+626526467+625558924+625976600+627723076+630262574+632390382+632419651
3398+629585778+625540480+623190923+623764132+626111754+628954214+632316728
3388+636098309+638512511+637357022+633059015+629109686+628501525+630561242
3378+632191250+631959161+631427556+632305541+634009686+634479550+632550934
3368+629565459+628459739+630937375+636053258+641165453+643800617+643328637
3358+641746946+641958415+644479288+646839669+646587806+644049457+641389197
3348+640277369+641111815+643292717+645857673+647876512+648611422+648112653
3338+647405258+647698726+649445020+651778855+652821080+651159325+647195544
3328+642626685+638749982+636262187+636277426+639609825+644856025+648926297
3318+650148182+649462013+648274656+646948518+645499804+644367657+644302892
3308+645676380+647480243+647961535+646943075+645970392+645824656+645841649
3298+646112198+647878387+650540340+651477768+650026937+648562621+648967115
3288+650798915+652676554+653664475+653540872+652617896+651926768+652996085
3278+656607923+661791655+666365775+668802895+668999427+667267585+663706060
3268+658824261+653956976+650778899+650477449+652734243+655569265+657078572
3258+657322211+657549463+658065889+657978205+656804576+655406657+654731192
3248+654427988+653895234+653864817+655313290+657432692+658299127+657440856
3238+656411209+656847994+658963164+661479622+662185505+659635183+655084949
3228+651427153+650262534+650758279+650979302+650031110+648857299+648795255
3218+650051609+651747229+652614570+652128078+651086397+650385170+649621718
3208+648191085+647459622+649456389+653424948+655816291+654131557+649677049
3198+645601637+643399570+642617312+642942285+644678178+647170871+648520775
3188+647521847+644926716+642725132+642361578+643051920+642290343+639032988
3178+635182772+632981007+632767543+633803721+635314237+636060333+634843104
3168+632143417+629790413+628868465+629033552+629592067+629891219+628835629
3158+625876278+622023341+618775843+617136402+617284980+618181530+618336700
3148+617576453+616995504+616986191+616812336+616140135+615358119+614724801
3138+614412466+614785696+615738484+616252673+615344815+613076652+610582568
3128+609029360+608384855+607870304+607299151+607006771+607040031+607362948
3118+608058370+608606604+608010537+606274462+604637319+603940083+603763991
3108+603323940+602386149+601150476+599938084+599275559+599445725+599842176
3098+599576707+598604931+597479618+596333200+594946711+593593118+592983204
3088+593197756+593340953+592726321+591839447+591592119+592094455+592696811
3078+592953573+592872238+592571333+592348495+592499130+592791146+592752868
3068+592349342+591902760+591639710+591602762+591557166+590991516+589792731
3058+588496163+587561939+586837915+585764486+583920470+581560875+579531998
3048+578408922+578165525+578711521+579906497+581141868+581747127+581556702
3038+580610869+579074471+577632711+576804434+575976035+574267717+572157385
3028+571029593+571206230+571528906+570944147+569819680+569340868+569789808
3018+570200711+569949573+569581302+569547861+569190052+567800237+566006231
3008+564980091+564566950+563613074+561966436+560777629+560726470+560946888
2998+560202424+558458307+556782462+556129492+556538641+557297981+557670788
2988+557350047+556406330+555185472+554134358+553579048+553769110+554738467
2978+555828344+556001595+554972975+553276752+551325096+549487490+548593965
2968+548924320+549297973+548531981+547216425+546733138+547063251+546838781
2958+545449389+543790356+542487075+540845276+538452240+536398025+535762833
2948+536039792+535961300+535126129+534123029+533653529+534091040+535296780
2938+536383209+536213043+534716254+533174837+532707695+533145266+533682616
2928+533715814+532725292+530488635+527777580+525867469+525187286+525200287
2918+525358964+525404681+525138546+524507526+523646171+522663450+521624974
2908+520617218+519618169+518578302+517700317+517244786+517028238+516604091
2898+515958377+515497766+515350760+515147818+514539717+513688824+513236558
2888+513674613+514576907+514785957+513710472+512064077+510901030+510307563
2878+509535525+508178485+506609523+505287769+504206207+503203893+502469770
2868+502431794+503135318+503909746+503928462+503188231+502566373+502673075
2858+503001918+502505387+500873929+498982322+498003108+498254820+499019995
2848+499302548+498492231+496576738+494305612+492881056+492853723+493410423
2838+493260907+492172059+491023192+490410435+489884848+488796150+487407393
2828+486649747+486869863+487302113+487026242+486169180+485628898+485687495
2818+485631468+484927460+483965662+483257541+482714417+482132107+481633943
2808+481240002+480702441+480060295+479687096+479621212+479400491+478670420
2798+477617733+476699656+476124693+475667076+474997959+474092672+473141819
2788+472263260+471553234+471112458+470760816+470177509+469547759+469423884
2778+469731986+469628912+468587594+466946943+465235783+463645173+462273590
2768+461362104+461111843+461435274+461901177+462000259+461655481+461319804
2758+461334196+461379792+460817498+459438961+457715979+456390022+455843420
2748+455802753+455653842+455042174+454111790+453216390+452474284+451630799
2738+450498562+449461023+449115036+449395472+449525667+448936433+447814718
2728+446702104+445946000+445500265+445002585+444118553+442935974+441894051
2718+441310411+441167003+441240929+441184691+440671258+439746952+438849495
2708+438277829+437869616+437297163+436429066+435371572+434367474+433648166
2698+433299457+433286154+433479723+433584429+433351614+432945609+432701395
2688+432519225+431970356+431022405+430153219+429639303+429188095+428463254
2678+427635945+427099654+426843708+426503708+425946131+425382295+424931964
2668+424502315+424104806+423930315+424057396+424321505+424477945+424316758
2658+423720207+422809326+421902224+421199395+420694580+420399872+420341457
2648+420323345+420023316+419328076+418402652+417557563+417129607+417267966
2638+417718055+417960696+417672580+417010720+416398749+416075983+415931245
2628+415742634+415389995+414815123+414054574+413376115+413087666+413100698
2618+412898390+412093516+410936999+410130099+410090974+410499972+410682263
2608+410340479+409695702+409072151+408684680+408669955+408934972+409100693
2598+408907245+408528362+408276014+408193289+408073616+407706857+407064469
2588+406369078+405933260+405855615+405970359+406086223+406142068+406142461
2578+406062246+405871640+405612943+405373597+405205547+405174586+405419041
2568+405925399+406287199+406009333+405105013+404155823+403705099+403739568
2558+403827373+403668182+403405403+403381517+403672354+403986715+404055078
2548+403948315+403879257+403898003+403974893+404116487+404177532+403894556
2538+403325309+402897957+402852210+402939108+402760656+402217683+401617172
2528+401399868+401714652+402295843+402777044+402997705+403011704+402952381
2518+402891124+402766583+402481762+402026261+401472464+400979894+400788713
2508+401022798+401531544+402058492+402483486+402820886+403104527+403328332
2498+403435155+403419009+403462790+403774732+404212818+404340080+403998658
2488+403563717+403432373+403490940+403347925+402920845+402485542+402255206
2478+402218258+402360426+402753370+403340215+403863262+404146390+404262072
2468+404302255+404240241+404159482+404304281+404712281+405080522+405164184
2458+405069365+405020746+405038978+405000821+404897112+404849854+404869689
2448+404785452+404484909+404071163+403756047+403727232+404019793+404367262
2438+404357223+403885637+403283734+402934119+402944369+403215734+403656027
2428+404206982+404679203+404761596+404388850+403909100+403659867+403606108
2418+403588390+403630659+403788278+403977977+404136654+404324871+404591278
2408+404922994+405332507+405815855+406280487+406666567+407051468+407503008
2398+407921047+408136900+408146726+408183493+408446574+408754797+408736232
2388+408382021+407953611+407338253+406081324+404013987+401217728+397530482
2378+392801525+387482609+382308310+377519365+372903550+368446866+364505549
2368+361372192+358967696+357055408+355665956+355151767+355714333+357107413
2358+359169852+362307201+367073106+373689890+381610469+388912395+392938553
2348+392114902+387219921+381187018+376959037+375205698+374974636+375382184
2338+375777788+375744408+375528706+375772073+376760630+378246232+379865506
2328+381484598+383130903+384757675+386207236+387415183+388551895+389829475
2318+391219350+392518005+393644920+394730473+395965995+397497646+399372321
2308+401416528+403249175+404601286+405623193+406762293+408303529+410059982
2298+411525840+412341328+412619768+412813579+413248218+413857619+414426745
2288+414919830+415420684+415897471+416209625+416268222+416079460+415690236
2278+415147958+414514762+413919118+413509787+413288219+413102149+412889622
2268+412792021+412934310+413215835+413423675+413509001+413657398+414047408
2258+414611607+415154187+415653923+416243307+416898334+417422803+417792072
2248+418208901+418715894+419034608+418894768+418328272+417607210+417017039
2238+416627664+416212104+415531045+414718974+414172463+414034770+414017354
2228+413811993+413499416+413389086+413597198+413997277+414460942+414891559
2218+415148684+415234221+415420321+415908961+416505239+416868612+416974195
2208+417123167+417511333+417963175+418233301+418443258+418913726+419629315
2198+420271763+420763759+421378451+422296407+423367991+424310469+424964196
2188+425405849+425868546+426455270+426963502+427161032+427171917+427375948
2178+427944651+428648267+429147791+429355843+429449392+429621524+429925605
2168+430312047+430714062+431107942+431528370+431991279+432437467+432859104
2158+433383815+434077301+434817562+435521480+436298327+437228407+438170038
2148+438884720+439271768+439533881+440130462+441368070+443040589+444681996
2138+446067487+447266787+448435488+449764711+451393297+453249770+455206112
2128+457331350+459673953+461901902+463571065+464776412+466172758+468165322
2118+470343836+472036159+473184149+474192933+475154459+475822518+476209565
2108+476673199+477472662+478556915+479705782+480762248+481861407+483381084
2098+485402161+487269095+488051656+487511314+486247067+484810145+483119455
2088+480898913+478219817+475319728+472266162+469110128+466093268+463434067
2078+461129743+459150936+457599511+456483420+455544208+454574246+453788903
2068+453584480+453944950+454342096+454269258+453667235+452798472+451991390
2058+451565369+451696682+452225898+452812229+453333553+453884660+454392862
2048+454639343+454741238+455207896+456353467+457950245+459631684+461403648
2038+463559636+466295787+469616243+473415694+477445329+481413586+485276773
2028+489128410+492719265+495515736+497331996+498521287+499511175+500442767
2018+501209273+501642944+501695373+501474954+501120924+500693119+500134302
2008+499287581+498049096+496574319+495215072+494211488+493512590+492869506
1998+492120295+491457589+491310341+491801308+492460235+492750438+492771512
1988+493096365+494049153+495431016+496838035+498063609+499233580+500625361
1978+502332530+504131555+505711734+506980062+508160525+509680777+511851157
1968+514480395+516916547+518696100+520018067+521389317+523077014+525094160
1958+527364741+529615004+531501653+533237848+535636992+539049818+542668308
1948+545450901+547493324+549798314+552730574+555418348+557039284+558054056
1938+559477009+561600645+563957821+566087625+568034382+570193092+572667099
1928+574969428+576797903+578708921+581280469+584123171+586513062+588335792
1918+589711034+590526491+590821229+590933706+591191919+591855653+593054802
1908+594535747+595806917+596605564+596991916+597132270+597234104+597592820
1898+598449821+599711739+600966945+602003425+603064941+604223936+604878237
1888+604499021+603508317+602731925+602501105+602571494+602457566+601880608
1878+601138805+600732739+600605205+600428507+600579202+601783067+603535167
1868+603877314+601760149+598385782+595331068+593046154+591251967+589809602
1858+588861531+588264376+587344726+585581560+583330209+581491151+580721169
1848+581261965+582941377+584610752+584244355+581243944+577511768+574961627
1838+573785760+572918116+571545112+570206395+569992205+570799560+571068778
1828+569815750+567768731+565678294+563362601+560747816+558377094+556658012
1818+555576117+555179546+555697060+557044485+558604225+559631392+559814802
1808+559467757+559303516+560069448+562075225+564762696+566853012+567363935
1798+566673412+566316510+567754944+571100103+574379045+575158280+573808195
1788+572739846+573406846+575701435+578850182+582100824+584757516+586397683
1778+587494816+589303940+592865224+597983224+602671090+604689325+604189347
1768+602655912+601060131+600428084+601733602+604341916+606230439+607004050
1758+608274374+610563822+612927530+615429052+619384004+624909824+629765075
1748+631844386+631619069+630883313+630959749+632264662+634365561+636373454
1738+638295599+641600908+647085244+652064704+652728317+650330020+648163873
1728+647365105+647959419+649934960+652988284+656808143+661801996+668472963
1718+675672329+680312484+680897121+679264332+677521364+676799214+678008522
1708+681837089+687678630+693355991+697751841+702687399+709966648+717255693
1698+720329880+718928273+715233891+711887946+711279362+714085236+719273806
1688+725700166+733677135+742955993+749006402+748285704+744885455+743066595
1678+743812934+746991917+751860472+756826508+760989422+764588984+767063415
1668+767364200+766675370+767320297+769687754+771755817+771936445+771532193
1658+772694636+776529311+783690580+793083064+798228760+796631165+795228349
1648+797904210+802130740+802822352+800280314+798441741+798515879+799703417
1638+801803590+804480720+804861691+800651367+794763565+791209538+791318084
1628+793437669+794675338+793996546+792183491+789835204+787572242+786316371
1618+785834111+784171449+780293174+776084544+773391509+772295766+771995405
1608+771840840+771696857+771508610+771077085+770322402+769254355+767879477
1598+766505687+765545461+764785395+763681187+762537249+762425679+763636257
1588+764932946+764836373+763360144+761810745+761029454+761070998+762625718
1578+766788149+771999335+773201084+769366469+765376504+764238794+764739800
1568+764409021+763177460+762448174+763247667+767008446+775563703+787038460
1558+791332839+784698034+775832136+769675478+766449025+765009261+764220713
1548+764153227+766169889+771472992+779867758+789654878+797270227+797800864
1538+792158637+787047531+785938727+788173570+791159045+793515133+796317077
1528+800453988+805465377+811112502+817936945+824930648+829013498+829628977
1518+829958667+831954043+835015712+838326644+842242472+847882884+856331167
1508+866952370+874510997+873636338+868946053+866713145+868184415+872316670
1498+877291595+880872169+882093813+882640051+884905251+889444781+894309164
1488+897169161+898491550+900725123+905147097+910723410+915532219+919249277
1478+923436199+929426499+937059929+944790054+949974451+950571002+947561822
1468+943688869+940992810+940060583+940316377+941663438+945440122+952586999
1458+960897165+964339441+961079184+956831791+955510914+957071621+959187033
1448+959230209+957253337+955968622+957476719+961660496+967282223+973276333
1438+978743374+982452692+983916524+984539259+985762052+987564584+989015596
1428+989471793+989333979+989671349+991111657+993297942+995532119+996702483
1418+995913452+995035407+996837093+1000559775+1002440074+1000549253+997386113
1408+996386762+998280727+1001341792+1003582742+1004342082+1003764096+1001748583
1398+998790139+996901072+997450878+999303058+1000680174+1001461102+1002266581
1388+1003089960+1003578388+1003770203+1003799472+1003530676+1003624104
1380+1004970199+1007669039+1010808051+1013355228+1015430185+1017633522
1371+1020241534+1022679622+1023700017+1023348798+1024022813+1027808083
1362+1033869256+1039489834+1042743318+1043973065+1044690619+1045712950
1354+1046315729+1045409867+1043958794+1044543916+1047712740+1050884467
1345+1051838464+1051203756+1050918936+1052045639+1054009872+1055088199
1337+1054612652+1054526661+1056536006+1058280365+1055836594+1050497691
1328+1047993086+1050626738+1054743391+1056051751+1054250428+1051608915
1320+1050291242+1051612180+1055539074+1060643468+1065185478+1067913828
1311+1068340877+1066866463+1064238374+1061376866+1059372721+1058653353
1302+1058494313+1058339990+1059071574+1062065031+1067240539+1072206332
1294+1073741823+1070385658+1063407980+1054988905+1046349835+1037804979
1285+1029440086+1021309581+1013309512+1005456087+998305642+992297079+986873396
1275+981580815+977326407+974677154+972078031+967991916+963006711+957845534
1265+951435683+943358211+936140038+931747574+928238538+922596311+915315611
1255+909166754+904699850+899995414+893895418+886939571+879753568+872504011
1245+865227967+857759079+850023875+842371397+835184850+828709206+823419951
1235+819493057+815844997+811264285+806395911+803035272+801760413+801491799
1225+801166402+800763662+800578438+800565558+800783376+801617882+803076271
1215+804538410+805526272+806320987+807725013+810381765+814352320+819089350
1205+823798018+828004351+831862187+835908996+840346208+844546010+847661680
1195+849825227+852143762+855276969+858717854+861826932+864838712+868424789
1185+872677806+876961663+880662575+883589816+886117159+889588643+895897144
1175+905734939+917185871+927091213+934167036+939378586+943462524+946516150
1165+949154035+951373035+952039611+951303734+951559287+954707127+959630167
1155+963268371+964383948+965166085+967695666+970699947+971371846+968781491
1145+964734743+962247492+963201489+966695952+969768264+970491986+970056773
1135+970863825+973033903+974383081+973950831+973398848+974480077+976866583
1125+978855367+979756392+980809320+983384315+986971843+989833291+992052291
1115+995611337+1000908997+1006111416+1009455788+1010228855+1007802923
1107+1002860108+998691812+997911549+999532002+1000743910+1000719661+1000828994
1097+1001671724+1001978979+1000886442+999751272+1000001563+1001050440
1088+1001090896+998932730+994804769+989449539+983267907+977576275+974766893
1078+975057156+975555441+973949985+970427161+965546693+959319042+952204880
1068+945182755+940031193+939319505+943493546+948461819+949075664+945411216
1058+941559911+939872395+939834843+940157881+940100494+939498984+939137668
1048+940408475+942800483+943558009+941305327+938254422+938016648+942295970
1038+949062663+953201388+950936491+944240671+938418057+936448563+937790243
1028+940561709+942574501+941373659+936341347+931096236+930423673+934292212
1018+937954665+939167843+940713493+944011484+945684245+942510522+936100429
1008+929602955+923779374+918252224+912696230+906318005+898821119+891540842
998+885735161+880592731+874629582+868193909+862774399+858600176+854822284
988+851336710+848542325+845835442+842218706+837982198+834218940+831415424
978+829591182+828750568+828390461+827621748+826206535+824320431+821478757
968+817217638+812382644+808329244+805456850+803383769+801736043+800343809
958+799361813+799258891+800451932+803095864+806959626+811144975+814807972
948+818429062+822998828+828202939+833226785+838592234+845064250+851819938
938+857624833+862794052+868656818+875962675+884456795+893089697+900249878
928+904404326+905152781+903786187+901816511+899606159+897763534+898095946
918+901238828+904851633+905995571+904212692+900949593+897500605+894437787
908+891815685+889773383+889075785+890380456+892950250+894549961+893483124
898+891625321+893180344+899591949+907234994+911072148+910935362+911140904
888+914061070+917688449+919401786+919908114+921622842+925059131+929198099
878+933419247+936925501+938072524+936120566+932771598+930655279+930837298
868+932536545+934319304+935226617+934147988+931131068+929174998+930779910
858+934899406+938867421+941473558+943376957+945750038+948303988+948529607
848+945532099+942371740+940924780+939189673+936880329+937559786+942826546
838+949740124+955336635+960009021+964810211+968297478+968512817+966337417
828+963412897+959734843+956046207+955912021+961218812+968586773+973164642
818+974913174+977388330+981847494+986613792+990408919+993421182+995557820
808+995510954+993787095+993626846+995026518+993966937+988937165+983218139
798+979879330+978122514+975772533+972154830+967617779+962374663+957445697
788+953942405+951182791+947707982+943284557+939133193+936262432+934142606
778+931027541+925528148+918334647+911664769+907453175+906343645+907571941
768+909809323+912199820+914707389+917979801+922525801+928434344+935911033
758+944191689+950322283+952118526+951746688+953373067+957929166+962118990
748+962874762+961019378+959087678+957586172+954753751+949645366+945225267
738+946745035+955245625+964106626+964893178+957301836+948486914+943622471
728+943188468+945809360+950335345+955800572+961012968+964631518+964683644
718+958489978+947910984+941060962+943720616+953192983+960898979+960843829
708+955284327+949877939+947274583+947281053+948508926+948868126+948234265
698+949007513+951094926+950215914+943715779+934804345+929025755+929074072
688+933783829+939995394+945046876+947615219+946564467+941940216+935990371
678+930696944+926289181+922302662+917655734+911634775+904273103+896681761
668+893938232+900447317+910585172+918190544+923159542+927479138+930867957
658+931010609+927756097+923379477+918941599+913360569+906733807+900665740
648+896285915+894828009+896503189+898245915+894676830+886770009+884929440
638+894262359+906829049+910971584+907380367+906198997+910634577+915447922
628+915203436+908810335+898389897+887114212+878074942+871888412+866544430
618+862218182+864001304+876055438+892972262+901175212+894369091+879917930
608+871023307+871818507+874982675+873332288+869353509+868342125+865738164
##END=
