##TITLE=<SNM>
##JCAMP-DX=4.24
##DATA TYPE=INFRARED SPECTRUM
##DATE=29/4/2025
##SAMPLING PROCEDURE=Instrument type and / or accessory
##ORIGIN=Admin
##XUNITS=1/CM
##YUNITS=ABSORBANCE
##RESOLUTION=4
##FIRSTX=4497.3318
##LASTX=599.83466
##DELTAX=-1.4281778
##MAXY=2.1520138
##MINY=0.3872329
##XFACTOR=1
##YFACTOR=2.004219e-09
##NPOINTS=2730
##FIRSTY=0.39760599
##XYDATA=(X++(Y..Y))
4497+198384499+198372588+199380790+200682150+201359885+201087292+200215209
4487+199337489+198901894+199163513+200059998+200939338+200981880+200170703
4477+199292627+198889031+198792318+198705791+198717612+199133773+199942794
4467+200553957+200423787+199888475+199781828+200359535+201207738+201958766
4457+202521751+202809616+202680115+202018409+200822134+199362723+198240173
4447+198139029+199249743+200710090+201019129+199584566+197588549+196798978
4437+197782094+199583302+200900156+201243351+201043620+200970267+201301373
4427+201812923+202115583+202085754+201859362+201439483+200716350+199880653
4417+199265044+198822043+198392008+198296232+198912198+199856490+200315015
4407+200094734+199741933+199638930+199544031+199203542+198912035+198955127
4397+198919797+198291280+197389175+196959408+197181845+197727135+198321674
4387+198655799+198339429+197478260+196728212+196460526+196391218+196107726
4377+195476101+194577431+193677511+193208874+193486345+194452390+195804917
4367+197263242+198600765+199497845+199619346+198984332+198105319+197562705
4357+197471137+197512787+197418067+197181488+196950917+196931140+197200462
4347+197496074+197440044+197020002+196559202+196263397+196084960+195921645
4337+195719490+195501246+195354229+195318794+195431537+195832322+196487456
4327+196919557+196618875+195698524+194877548+194843198+195669349+196773089
4317+197533441+197866183+197926911+197626467+196896821+196027875+195428578
4307+195315106+195643312+196197182+196854338+197709842+198723055+199425176
4297+199282635+198347682+197437442+197518958+198665538+199790661+199898854
4287+199279795+198831991+198742668+198600052+198331875+198279741+198567041
4277+198903366+198956495+198710475+198415042+198275697+198306001+198421436
4267+198521837+198535502+198555933+198814861+199364389+199978214+200437497
4257+200674358+200640262+200354524+200058882+199986318+200069351+200145127
4247+200238569+200432887+200753332+201273626+202034483+202840917+203368556
4237+203398935+202888441+202037695+201232392+200631117+200029143+199406664
4227+199223334+199837917+200936126+201808879+202119107+202200252+202439715
4217+202572205+202091613+201178459+200551816+200573660+201061181+201692225
4207+202202661+202560814+203051220+203774755+204323762+204362587+204076165
4197+203755156+203436303+203094328+202766092+202547342+202680620+203328824
4187+204155644+204530393+204158425+203212795+202098721+201424138+201834782
4177+203355248+205065765+205903812+205754430+205415577+205598996+206227646
4167+206591123+206102903+205057750+204501664+205107832+206410485+207382166
4157+207496991+206958690+206229579+205686504+205457093+205355637+205105958
4147+204639329+204116239+203752048+203680971+203864063+204062991+204031363
4137+203796762+203643202+203774323+204158693+204713767+205398744+206135141
4127+206882036+207652157+208205507+208099842+207330717+206467882+205946800
4117+205715947+205716482+206119751+206848787+207365572+207273022+206826913
4107+206537785+206474871+206353905+206182204+206289251+206730290+207185885
4097+207445289+207558701+207552619+207366033+207007760+206534350+206053164
4087+205910235+206537116+207807457+208842008+208884804+208217061+207734120
4077+207775532+207873955+207577808+207100399+207086823+207842104+208798232
4067+208991628+208250741+207427148+207251907+207582522+207939561+208161150
4057+208289670+208250116+207928750+207443995+207110912+207072116+207186480
4047+207409988+207867873+208347751+208325759+207763621+207242673+207170584
4037+207456040+207939367+208563319+209122795+209222274+208536984+207175789
4027+205877730+205565256+206468135+207926698+209169397+209967280+210505358
4017+210956969+211178261+210742561+209510762+208101002+207365899+207461170
4007+207880275+208302636+208858811+209583952+210209212+210574547+210802145
3997+210960731+210885683+210447396+209831786+209435848+209506406+209964068
3987+210576808+211159763+211536058+211504296+211047883+210486503+210228750
3977+210400333+210836880+211365442+211912859+212380856+212616007+212553762
3967+212357599+212356261+212702995+213082338+213006547+212515055+212189184
3957+212355384+212775098+213167215+213568982+214083834+214565570+214617867
3947+214043849+213391094+213567420+214626507+215387453+214863382+213593101
3937+212885789+213436998+215007619+216815266+217924850+217817564+216980915
3927+216502331+216882373+217581670+218016507+218525456+219647947+220984310
3917+221389883+220220939+218124551+216379670+215627556+215540850+215775481
3907+216851831+219632140+224040826+228543890+231205612+231204244+229072689
3897+226053720+223518628+222594426+223587118+225149071+225208982+224076379
3887+224187620+226329346+228309824+228510135+228122138+227812608+226482996
3878+224552986+224288333+226344736+229106027+231424615+233268187+233822949
3868+232822539+231982589+232196684+231975332+230120326+227907061+227106278
3858+228595399+233384885+242141661+250334456+249494432+241081698+232369486
3848+227015721+225505946+226904748+229810528+233149050+236605875+239850390
3838+241558646+240665061+238129464+235542536+233390818+231601759+230483030
3828+230237648+230470688+231409894+234522929+239839936+243539243+242907471
3818+240839186+239882345+238468287+235099402+231523306+230205188+232149235
3808+236125625+239276505+240847826+243184138+246963058+248865990+246988337
3798+243843093+241446751+239554763+238026104+237604991+238548108+240309123
3788+242530194+245223366+248071943+250811331+254088663+258440843+262724920
3778+265336383+266758262+268993698+273518903+280524271+288600382+295241589
3768+299230203+301465638+303144646+305304781+309298570+315651718+322633295
3758+327739135+331357729+336823003+347240066+362450824+376739208+383907162
3748+386098137+389066594+394479318+398802175+399562824+399540401+402163967
3738+408543287+417244495+424905651+428388632+427316133+424156749+421961551
3728+422499391+425544665+429107408+430982192+430094822+426732345+422666230
3718+420256907+420761677+424111425+429748564+436114679+439698656+437927218
3708+432464294+427323866+425638375+427915624+431899123+434860858+436496803
3698+438023901+440011933+442642132+446449721+451741048+457494111+461149315
3688+460772365+457367391+453219105+449960330+448615328+449763335+453713407
3678+460420873+467684202+470887899+469865422+469545900+471101727+469906076
3668+463428200+455672621+450711850+449125243+449580110+451142568+453863651
3658+457213459+459276732+459419422+460186436+464240626+471269607+477320631
3648+477933296+473269296+466838587+461417625+457826808+455660249+454493536
3638+454390131+455483448+457667285+461045018+466236895+473349177+479727694
3628+481189781+478527047+475979614+475398562+476452979+478521278+481072072
3618+483553900+485673827+487190932+487892786+488466731+490094349+492258379
3608+493131206+492842524+493267562+494961529+496848476+497929183+498150773
3598+498280140+499356802+501586795+504104549+506617603+510125209+514946115
3588+519048156+519865281+517711897+514962234+513082038+512073568+511278570
3578+510110161+508416848+506691120+505937637+506783372+508871388+511490851
3568+514128276+515832533+515558453+513889170+512426934+511873243+511625155
3558+510812729+509496276+508768073+509528693+511542300+514158373+517105328
3548+519682025+520404935+518672247+515660876+512832225+510799168+509566224
3538+508909395+508871448+509799918+511599817+513627343+515517294+517029730
3528+517532448+516983277+516280471+515619955+514084024+511578047+509271029
3518+507747708+506556816+505604970+505619424+506972218+508867165+510134726
3508+510661473+511291120+512170519+512119486+510198488+507320171+505260348
3498+504514896+504107582+503423274+503280405+504676738+507398862+510351944
3488+512558026+513415478+512713862+510935434+508926169+507211741+505876850
3478+504901451+504335744+504004564+503343334+502191163+501296061+501263050
3468+501829827+502565882+503524151+504583654+504798968+503618663+502067268
3458+501351853+501168122+500585226+499571701+498381730+496776001+495080488
3448+494375868+494673858+494639182+493776258+493094894+493396216+494305147
3438+494895091+494597100+493558951+492323420+491408362+491387961+492651953
3428+494518856+495508738+494968667+493613285+492421382+491685982+490903890
3418+489303276+486938146+484888464+483799757+483164014+482511349+482064363
3408+481923784+481759800+481509392+481636945+482655735+484563142+486538981
3398+487670424+487964072+487761397+486761076+484938545+483653379+484292274
3388+486147608+487031082+486072694+484767989+484846799+486141244+487219363
3378+487522588+487923835+489151009+490559952+491030581+490670999+490801853
3368+492248327+494340478+495804885+496230131+496174161+496278517+496889160
3358+497916514+498951690+499857141+500786622+501676906+502173974+501995239
3348+501359228+501025490+501458915+502064532+501933024+501134992+500443487
3338+500082627+499548206+498583157+497956692+498822590+500998011+502502537
3328+501694334+499409620+497654984+497093798+497065397+497153634+497315477
3318+497060311+496148436+495612678+496506739+498167754+499055957+498663840
3308+497527639+496210086+495140472+494651970+494641888+494835433+495217438
3298+495792632+496363989+496835480+497459179+498564302+500041170+501149861
3288+501235333+500682236+500637210+501671970+503082399+503911479+504203939
3278+504419432+504297618+503449683+502635711+503106548+504723430+505932522
3268+505628108+504180028+502574982+501281965+500302521+499728131+499772681
3258+500327443+500853715+500891424+500398996+499529946+498388779+497364072
3248+497279076+498283263+499143748+498525492+496625727+494837604+494171051
3238+494626245+495572618+496228019+496029478+494852326+493122850+491794561
3228+491875988+493552527+495722863+496696001+495688127+493699887+492667804
3218+493541196+495187372+495539102+493985357+491855170+490288964+488879695
3208+486974844+485086648+484127041+484204126+484820717+485466363+485710139
3198+485435256+484994337+484706785+484539559+484435738+484399248+484139175
3188+483150125+481259461+478851268+476636175+475362755+475460569+476581900
3178+477695439+477970411+477387069+476340266+475095426+473787866+472473881
3168+471021341+469331894+467754953+466921025+467072072+467650894+467704038
3158+466705681+464956933+463269836+462285724+461963763+461676241+460924097
3148+459883449+459105432+458872928+458943857+458741568+457920309+456802220
3138+455991608+455662629+455564934+455465931+455167732+454389179+453072073
3128+451680914+450922733+451144918+451938340+452311780+451436960+449358520
3118+447068334+445820758+446051478+446948365+447368020+447015903+446374004
3108+445839822+445446456+445190934+445223052+445667154+446361186+446842046
3098+446601571+445411125+443618453+442016768+440994053+440061777+438800194
3088+437862415+438260599+439963517+441783223+442511783+442002939+441108283
3078+440551588+440219397+439759444+439318168+439139909+438979523+438431363
3068+437500752+436525532+435675485+434737082+433552198+432536799+432298436
3058+432762879+433180839+433028989+432483714+432022096+431875896+431875956
3048+431688775+431122057+430213542+429176345+428367666+428089601+428218254
3038+428200559+427688800+427082083+427054306+427549797+427656265+426661060
3028+424898662+423291743+422361399+421828912+421063772+419958827+419186520
3018+419307412+419948329+420317368+420179703+419784553+419250996+418625483
3008+418195835+418192950+418305098+417928446+416967620+416062347+415903121
2998+416512812+417262785+417521817+417220377+416708410+416123254+415172598
2988+413672028+412014402+410877577+410598739+410889889+411059970+410609891
2978+409747532+409196815+409374984+409877732+409917851+409234881+408373712
2968+407982220+408034205+407922027+407260797+406352818+405761298+405677135
2958+405820033+405715082+404952619+403500732+402012980+401500091+402302138
2948+403518457+403838276+402901360+401424849+400159549+399342900+399020553
2938+399172700+399442319+399296239+398663469+398019221+397679446+397426659
2928+397008789+396592761+396438651+396468450+396452777+396350354+396246385
2918+396205463+396238295+396174474+395706314+394794557+393783292+392979996
2908+392444922+392234901+392463836+392939610+393064903+392451078+391517433
2898+391038388+391076187+390911697+390132847+389151738+388449260+387930185
2888+387289773+386606089+386276396+386465897+386840556+386982474+386924660
2878+386965968+387074190+386927485+386535815+386331771+386496291+386579562
2868+386058554+385056360+384201733+383910731+384051845+384234625+384201614
2858+383894166+383312371+382525075+381779771+381370822+381384442+381706760
2848+382157017+382493491+382519067+382302890+382076542+381864320+381413825
2838+380544597+379460856+378643375+378386514+378475673+378419673+377944316
2828+377146046+376304297+375695587+375470161+375569699+375768211+375831497
2818+375709416+375626561+375868969+376366363+376591165+376048566+374870938
2808+373726856+373049329+372590536+371931536+371103021+370421598+370100500
2798+370226328+370650742+370824183+370288841+369327657+368589550+368209835
2788+367787860+367090110+366337937+365856839+365767948+365986117+366299037
2778+366449371+366293833+365917062+365465734+364915671+364171081+363310447
2768+362551136+362064447+361939125+362131153+362352386+362271702+361914857
2758+361553759+361189747+360557186+359635169+358729688+358056919+357598186
2748+357318961+357230129+357226352+357046546+356489107+355692176+355103332
2738+355008939+355156387+355035526+354485908+353831578+353436398+353287849
2728+353058735+352518367+351808067+351254494+350980206+350819791+350622439
2718+350530633+350813783+351398820+351791294+351609644+350972147+350227943
2708+349579174+349055311+348586526+348067719+347561700+347334222+347457790
2698+347549150+347183115+346438287+345785711+345530784+345549995+345500836
2688+345149909+344520292+343803508+343192955+342822399+342765329+342939157
2678+343039588+342752868+342065854+341275644+340730636+340605224+340795974
2668+340990054+340989578+340950947+341100477+341301666+341189547+340664198
2658+339965228+339319582+338771332+338305759+337945434+337711889+337546180
2648+337309364+336935002+336542618+336285311+336174918+336178130+336326203
2638+336582380+336764535+336733844+336553919+336393058+336314069+336209921
2628+335983038+335716631+335511844+335241035+334728979+334138916+333898293
2618+334182604+334664920+334867447+334689872+334442438+334347301+334260610
2608+334007021+333700168+333532466+333444705+333210030+332804858+332552607
2598+332786508+333422817+334031943+334289636+334163421+333760093+333238907
2588+332780114+332463061+332282987+332304162+332584041+332944039+333041079
2578+332733453+332255686+331969027+332008937+332231776+332416072+332419105
2568+332235077+332001443+331841533+331665772+331329507+330994906+331019531
2558+331409060+331724270+331674694+331479037+331427736+331410815+331182177
2548+330861614+330826372+331213076+331781846+332192163+332247776+331959897
2538+331502472+331082460+330827324+330784826+330942951+331201180+331414621
2528+331537327+331652211+331804269+331898484+331841265+331713950+331720850
2518+331961086+332273590+332356533+332089621+331661876+331319752+331145478
2508+331163827+331441238+331921027+332338749+332450570+332270616+332034097
2498+331977770+332131078+332292177+332252504+332020684+331751482+331539081
2488+331426160+331529654+331928878+332424340+332644204+332464577+332105858
2478+331755348+331354220+330841361+330368561+330157707+330278539+330622478
2468+331028185+331402012+331723794+331959926+332038171+331941874+331753236
2458+331555527+331348213+331098579+330835532+330654358+330661347+330897747
2448+331251827+331487007+331478770+331385179+331447959+331699735+332012030
2438+332297738+332482362+332449232+332237545+332126468+332309634+332653245
2428+332942641+333189450+333531158+333961817+334302097+334387807+334241072
2418+334072716+334102901+334393814+334867001+335371443+335685464+335635442
2408+335332217+335151311+335353154+335796987+336153178+336367214+336708595
2398+337298628+337869063+338171693+338312153+338461238+338595809+338713311
2388+338922023+339168951+339217069+338945755+338371573+337395966+335833745
2378+333735945+331499528+329568447+328112010+327107229+326604897+326552258
2368+326407754+325537960+324081077+322815955+322239394+322377713+323282956
2358+325104714+327831745+331399900+335839693+340783602+345024318+347200542
2348+346851073+344798060+342726638+341828740+341758317+341663626+341568965
2338+342051311+343170055+344199223+344494716+344338048+344483623+345111723
2328+345839451+346495000+347226356+348065845+348837974+349423071+349901997
2318+350406886+350890957+351181721+351284888+351423623+351725510+352113492
2308+352537966+353038185+353531744+353808708+353846953+353945451+354347411
2298+354871333+355179287+355294290+355533485+356015088+356528959+356855737
2288+357007706+357138888+357320864+357487019+357581978+357647405+357721516
2278+357772252+357769575+357704892+357527525+357186025+356738831+356305079
2268+355885543+355373962+354802248+354379143+354189048+354085822+353987979
2258+354014090+354245434+354614205+355034634+355415598+355623299+355658005
2248+355769707+356189095+356811306+357303229+357477413+357444521+357434588
2238+357556075+357710066+357696118+357388879+356803395+356072277+355446408
2228+355171793+355228030+355364505+355488995+355776844+356336900+357027007
2218+357638037+358096294+358530581+359196897+360230645+361495797+362797736
2208+364159571+365746387+367579951+369469753+371230039+372861315+374469572
2198+376108134+377775425+379455949+381056861+382440436+383653157+384991289
2188+386696290+388681318+390639491+392299971+393522476+394307185+394836371
2178+395388962+396077880+396685519+396859258+396532747+396018490+395587444
2168+395183284+394679198+394122235+393569465+392940056+392118589+391073748
2158+389898767+388741868+387615124+386391994+385078932+383915192+383131257
2148+382676449+382281061+382051145+382934648+385974956+391054388+396995227
2138+402861004+408513815+414117021+419846025+425873555+432138378+438298963
2128+444051550+449331546+454260794+459010503+463623024+467941866+471706689
2118+474727845+477118997+479297421+481583533+483994640+486635070+490034899
2108+494843136+501303615+509204828+518213247+527840189+537061661+544542119
2098+549386876+551453123+551296574+549872107+547654545+544341079+539785213
2088+534306407+527903356+520254453+511389261+501637353+491345225+480937322
2078+470843647+461410161+452922274+445432151+438768194+432897689+427933944
2068+423875620+420661247+418160653+416016905+413962107+412128037+410703184
2058+409674670+408975403+408476403+408093119+408112450+408887315+410254116
2048+411846225+413740339+416391148+420274037+425716322+432807637+441575789
2038+452233833+464880265+479034672+493687842+507604720+519738412+529731983
2028+537727709+543740280+547825726+550503835+552364165+553648023+554390026
2018+554425059+553397200+551258150+548503670+545640937+542650562+539087462
2008+534583759+529136299+522992517+516437853+509677747+502873270+496326755
1998+490485722+485621931+481667666+478367702+475365610+472332797+469308846
1988+466695539+464851715+463926665+463844405+464175585+464363420+464272090
1978+464196254+464377190+464861083+465696408+467031805+469065368+471776964
1968+474598775+476731133+478031943+479159995+480698186+482588434+484465448
1958+486162805+487743048+489288792+490911860+492867803+495390523+498333850
1948+501222961+503909457+506871698+510384538+513719536+515939596+517231186
1938+518527475+520321486+522606735+525392085+528591946+531722811+534257397
1928+536257086+538366872+541072758+544125348+546967144+549552109+552089253
1918+554176198+555113412+555078498+555145887+556280810+558634638+561373952
1908+563281270+563918411+563948032+564159897+564667789+565207741+565775886
1898+566658022+567915887+569123909+569975532+570955511+572643887+574506775
1888+575405445+575262041+574958162+574922356+574871085+574516886+573925247
1878+573423064+573300834+573515733+574017499+575319201+577945741+580983640
1868+582036957+579866264+575900134+572134507+569317157+567253468+565674891
1858+564508266+563720346+563159397+562548487+561721072+560798253+560077068
1848+560007418+561035515+562625691+562731385+560109841+556305553+553354256
1838+551679322+550558021+549511723+549050521+549902679+551524795+552119409
1828+550984130+549201301+547203098+544240738+540457863+537207088+535265688
1818+534247820+533589862+533376094+534033279+535447456+536615865+536481799
1808+535138997+533768240+533566070+534936173+537222314+539090555+539665600
1798+539389260+539546463+541281887+544727099+548078096+548701022+546742194
1788+544912436+544955915+546631741+549022447+551592185+553841866+555200489
1778+555989778+557650139+561572077+567643235+573252775+575203335+573640579
1768+570869683+568418308+567374805+568599541+571414096+573773099+574973567
1758+576053233+577369269+578751208+581221854+586029020+592160669+596339973
1748+596906096+595632171+594850496+595550803+597665764+600335070+602197898
1738+603331928+606096877+612044319+618107625+619130429+615896666+612170533
1728+609520915+608291540+608492044+609681865+611913167+616427041+624103661
1718+632882133+637614772+635937519+630952748+626047203+622963803+622774540
1708+625815710+630910220+635843066+640030281+645187720+651761715+656573520
1698+657560518+656486681+653847649+649507811+645833009+645143527+647452032
1688+651819707+658499397+667407354+673952562+673476074+669409185+666721560
1678+667011699+669591608+672421211+674075743+675753472+678826285+681496305
1668+680938926+678743490+678725765+681572795+684253165+684084363+682561042
1658+683010585+687706228+697607607+709658980+713717779+708706778+705179782
1648+706589081+708473262+705616061+700160215+696890467+697219089+700755483
1638+706930908+713417469+714811066+709442713+703149460+700647588+702368677
1628+706519610+711532395+717329473+723351621+727453126+729510749+732596231
1618+738354766+743864500+745211049+743738048+742539840+742032839+741406762
1608+740487273+739566476+738815313+738559256+739312321+741135537+743677557
1598+747147097+752176239+758279932+763610396+766764696+767644809+766664057
1588+764668947+763080318+762966653+764302496+766329784+768554781+771712590
1578+777250160+784382367+788427903+787435314+785785778+787269784+791429281
1568+795241064+797287147+798356464+799674939+803375495+812829234+828966231
1558+842184287+842999925+837550146+832260247+828883138+827350657+826352002
1548+824852532+823852568+825167712+829349395+835757741+842635556+845700458
1538+843191567+839803931+838884918+839133779+837419946+834020235+832472766
1528+834582849+838799684+842727392+846428364+851023190+855118807+856399215
1518+855724126+854983075+854310009+853594236+854420462+859235658+869003208
1508+881066774+887641007+883796928+876956644+873953838+875461933+880048075
1498+885944602+890832184+892533467+891915300+892357408+895838189+900712210
1488+903321680+902443530+900047411+898212181+897556007+898120464+900685801
1478+906198450+914120540+922258897+927781479+928320420+924295821+919590602
1468+917696964+919492699+923262013+925689834+925569448+924970672+925306432
1458+924924813+921507973+916313418+911638831+908301514+907443944+909406281
1448+911554549+910774123+907795822+905495644+904912451+905511703+907267469
1438+910460608+914093239+916389195+917332773+917971936+918222224+917357516
1428+915959517+915867741+917692741+919599583+919872950+919786645+921343810
1418+922837213+921225387+918175711+917126915+918328038+919579658+919686244
1408+919375109+919448149+919460402+918476260+917034306+916802575+918310015
1398+920862861+923749862+925604601+924142959+919498885+915547922+915825213
1388+919947299+923855794+924313308+922340681+920818728+921393535+924215286
1378+928894394+934741494+940334737+943799934+944377179+943374479+942952534
1368+944826366+949737264+956946616+963992697+967939140+968083080+966427417
1358+964966906+964412798+965031620+967089837+970374039+974191234+978455355
1348+983743827+989561128+993779510+995408942+996473440+999001484+1001896930
1338+1002921161+1002297938+1001873495+1002598427+1004341643+1006461124
1330+1008188637+1009875585+1013679516+1021608090+1032441389+1041388722
1321+1044581802+1043217468+1041348633+1041548007+1043997478+1047523522
1312+1050364010+1051384435+1051064318+1050928348+1052099136+1054559195
1304+1058090830+1062961580+1068811832+1073367104+1073741823+1069619797
1295+1063205920+1056662141+1051354338+1047668533+1044936654+1041984465
1287+1037744076+1031889660+1025066923+1018939735+1014992578+1012613174
1278+1009723318+1005742258+1002338503+1000689979+999483860+996544161+991517457
1268+985643711+979633697+973515907+967858546+963467912+960593165+958837815
1258+957108637+954225324+950309335+946517597+943427237+940711002+937622368
1248+932971513+925299770+914169611+901284935+889378751+879894142+872142698
1238+864503550+856178488+847812623+840547480+834795487+830099130+825863916
1228+821945369+818656230+816370980+814893458+813338435+811036353+808536443
1218+807062073+806934669+807421328+808123539+809601656+812182576+815005636
1208+817203986+819437191+823125019+828426160+833781724+837738754+840399436
1198+842616998+845056715+848160636+851736464+854715419+856543868+858359589
1188+861441383+865264764+868598036+871747875+876103832+881668109+886075159
1178+887057576+886046668+887365916+893703422+904099846+915883444+926862942
1168+935387378+940369056+942452850+943799577+945872545+947913514+948176114
1158+946840152+945967771+946917713+949798884+953887126+957250257+958394041
1148+958672285+960723305+964987189+968920011+969795366+966941555+962260187
1138+959334585+960106209+963352939+966764129+969536334+972795376+977766229
1128+983681374+987637036+987320428+983730920+979790187+977700743+978424604
1118+981310236+984393815+985988511+986370903+986957903+987944781+989345516
1108+992640246+997594088+999394641+994404220+986693934+982658510+984234114
1098+989702867+995349760+997121882+994659861+992296397+994441453+1000730067
1088+1005204567+1002581416+994384651+984837114+977490424+974604198+975095971
1078+975456951+974445091+973939994+974845624+975775224+975681128+974742308
1068+971780067+965079084+955896689+947582809+943246897+944866277+951685921
1058+958908358+961154172+958456019+955806876+956664149+959526465+960474028
1048+957448322+952013234+947299510+944762723+944011323+944531706+946491248
1038+949767539+952959667+953901996+951415350+947486631+946104276+948830742
1028+952488830+953093793+952091688+954511717+960939512+965112630+961683537
1018+953705833+948058643+947946465+952069145+957354643+960573953+959087806
1008+952662925+943576233+934115059+924887936+915650464+906919575+899635339
998+893587676+887717022+882219540+878277498+875921707+873720621+870404419
988+866007361+861349369+857074303+853023415+848527444+843730032+839830339
978+837615276+836292399+834343207+831356877+828321476+826448715+826108078
968+826567971+826773590+825957655+823497656+819442604+815389455+813246480
958+812774334+812214873+811734638+813896112+819936459+827522790+833152791
948+835890380+837575544+839689731+842040883+844541090+848230167+854041877
938+861526082+869111401+875540981+880857467+886064512+891955745+898061045
928+903173755+906843620+909301062+910672235+911274462+911575962+911240678
918+909398370+906532247+904577761+904289763+903941810+901454867+897203296
908+893589281+892575637+894447744+897960406+901332756+903524564+904616601
898+905218411+906027566+907910974+911457003+915985807+919450529+920048413
888+918399650+917390051+919621531+925015935+930986574+935099202+936486791
878+934775813+930493313+925918710+923592301+924148669+925867082+926770868
868+927110256+928816833+933023914+938879876+943977717+945661037+943335283
858+939673626+938664383+941693003+946075131+949208910+952635862+958861785
848+965246875+965668998+959807564+954222529+953274966+955146240+955599234
838+953380006+951705430+954501367+961927996+969929551+974028142+972556389
828+968648251+967287665+969356410+971616380+971280858+969914503+972044452
818+979040095+986319572+989079287+988034357+986317907+985425719+985974058
808+988155992+990259830+990430654+989874286+990113035+990268395+990700214
798+994104920+999780304+1002378830+999080710+992687829+986108600+979819986
788+975007585+972911123+971962311+968781187+961239882+950883309+941746475
778+936428502+934283445+932838101+931132595+930263069+930372035+929778492
768+927212323+923877623+922709511+925292811+929996721+934070688+937642888
758+943105990+949931344+953821818+952329961+947936651+943150064+939858190
748+940986569+947275540+954593144+957079314+955125304+956688297+965981502
738+976032233+977571733+969306150+957446657+950188235+951130088+957969300
728+965451780+969114329+968456311+966504978+966158274+967913623+970155988
718+971074644+971137276+972037077+973653601+973025085+967872702+960947423
708+955821448+952261203+948328976+944794128+944689921+947940279+949579406
698+946767826+944027620+946216989+951517119+954002694+950799265+943496947
688+934906311+929076459+931719238+945085933+961954702+968978598+961675091
678+949386158+941124501+937096750+934087520+928661592+916010015+896459092
668+882765262+888617358+905150010+914971568+916346846+917230171+920820750
658+922875518+919969246+915055969+913146331+916486919+922983532+926366588
648+923338147+918065140+916522666+922507282+933352893+939310624+932193228
638+914626708+896161934+885242153+884906333+891402470+896540222+895352839
628+890256544+885102793+882440565+884186278+888729000+891476879+890228113
618+888013050+888966858+894085278+898821724+894819370+881500794+870147588
608+870603317+882023378+895619544+899806758+889492713+875921826+868679582
##END=
