##TITLE=<SNM>
##JCAMP-DX=4.24
##DATA TYPE=INFRARED SPECTRUM
##DATE=29/4/2025
##SAMPLING PROCEDURE=Instrument type and / or accessory
##ORIGIN=Admin
##XUNITS=1/CM
##YUNITS=ABSORBANCE
##RESOLUTION=4
##FIRSTX=4497.3318
##LASTX=599.83466
##DELTAX=-1.4281778
##MAXY=2.1197848
##MINY=0.37982178
##XFACTOR=1
##YFACTOR=1.9742035e-09
##NPOINTS=2730
##FIRSTY=0.38796729
##XYDATA=(X++(Y..Y))
4497+196518391+197166804+198117526+199397234+200870787+201806746+201527246
4487+200181781+198621140+197797932+198211498+199450945+200229499+199416375
4477+197259704+195195570+194400923+194924855+196082029+197130709+197702360
4467+198045519+198668073+199580075+200353557+200843464+201129002+200972095
4457+200178460+199263001+198932900+199060837+198929005+198394385+198082489
4447+198415338+199094229+199570700+199515555+198911192+198109858+197637025
4437+197674206+197951532+198173411+198202848+197987611+197723811+197872083
4427+198594707+199370514+199556978+199122474+198434510+197673270+196919503
4417+196439243+196382090+196567286+196961047+197787425+198812571+199244237
4407+198717769+197789388+197224198+197193991+197308342+197202460+196819206
4397+196161630+195275608+194632509+194947197+196392189+198332582+199806090
4387+200061407+198925941+196907970+194816029+193305778+192643507+192529714
4377+192421628+192392417+193114498+194697617+196386724+197589699+198267127
4367+198328280+197660967+196653453+195861977+195346981+194831065+194202880
4357+193545727+193005944+192819993+193209677+194154966+195323190+196228203
4347+196536385+196342931+196065530+195966969+196005478+196121097+196192924
4337+195845734+194994176+194351544+194662293+195736364+196841623+197612554
4327+198023358+197996865+197613053+197286952+197308765+197529406+197746983
4317+198093056+198717663+199311308+199418353+199148484+199072567+199388554
4307+199642647+199395120+198837026+198571052+198940719+199717357+200395041
4297+200589023+200114227+199008892+197738696+197104397+197555537+198707745
4287+199780865+200344485+200413880+200153461+199870837+200004254+200681409
4277+201450423+201728912+201415612+200923849+200773736+201228408+202113630
4267+202874236+203006551+202582749+202147505+202014058+201988667+201812347
4257+201538794+201367154+201274451+201022757+200583648+200441868+201108668
4247+202313711+203269702+203768757+204236985+204743739+204874861+204559856
4237+204123887+203684431+203176002+202647435+202183494+201824831+201691595
4227+201940450+202566974+203295848+203591592+203084038+202296124+202415366
4217+203839179+205537344+206303474+205945234+204907665+203738716+203213485
4207+203844191+205062865+205849194+206098654+206465544+207152089+207685396
4197+207649030+207122622+206543650+206349109+206630255+207088082+207366088
4187+207348531+207103133+206698080+206220855+205890119+205914967+206210363
4177+206515662+206822576+207366978+208208603+209062426+209523695+209454194
4167+209184250+209163961+209441619+209772445+210110970+210551739+210928849
4157+210905285+210405385+209805762+209659226+210098999+210567484+210348836
4147+209379620+208349765+207955053+208152462+208331469+208196421+208077617
4137+208314743+208908388+209848544+211125020+212407988+213272378+213584772
4127+213421963+212973721+212452144+211717579+210488895+209294736+209306934
4117+210753028+212417997+213189109+213372388+213845070+214498631+214318341
4107+212940148+211397923+210962257+211830949+213284938+214548930+215178745
4097+215088064+214543148+213937109+213564121+213680238+214389653+215349509
4087+215994360+216111489+215943804+215859146+216062321+216486712+217014131
4077+217727456+218509558+218689063+217891126+216912143+216834536+217609618
4067+218260205+218125202+217402503+216786199+216878087+217721237+218696294
4057+219029083+218542739+217750281+217142054+216740277+216540438+216865829
4047+217889994+219211033+220209822+220578493+220422854+220096240+219918924
4037+219956694+220167146+220604186+221206013+221605601+221464349+220873164
4027+220243032+219879856+219776947+219773022+219799803+219935046+220306239
4017+220883777+221292497+221112117+220493307+220090730+220305846+220942485
4007+221509410+221576058+221122261+220728516+220984919+221683481+222058975
3997+221738263+220999607+220299944+220001695+220344492+221268616+222357572
3987+223176734+223625987+223870133+224022269+224069610+224081022+224261025
3977+224712965+225326175+225942524+226443375+226678055+226529603+226087731
3967+225639837+225511477+225890911+226618321+227189504+227185820+226634594
3957+225860855+225241381+225139635+225794751+227161063+228783069+229830481
3947+229734396+229009718+228795810+229384247+229778642+229013100+227349822
3937+225871347+225561746+226861078+229411978+231896306+232849338+232285040
3927+231651134+231835575+232094047+231481743+230727644+231405856+233637116
3917+235523995+235176095+232849429+230211727+228419213+227780416+228566368
3907+231335645+236205317+241900778+246177619+247865806+247326083+244760510
3897+240372517+235873494+233783697+235181635+238130961+239222091+238279701
3887+238333714+240761281+243481693+244705349+245424230+245624778+243368746
3878+239573009+237949041+240047744+244126105+248300839+251802507+253182179
3868+251917281+250222905+249736275+249148728+246764245+243486071+241316688
3858+241581243+245667152+254789331+264973640+266512423+258857125+249484430
3848+243244129+241480524+243348411+247030083+251296116+256013365+260631735
3838+263029684+261719242+258076638+254263663+251229891+249198469+248430754
3828+248709046+249104845+249758345+252644902+258201059+262387265+262352303
3818+261133341+260714883+258510886+253272438+248126527+246432679+249217596
3808+254470174+258293898+259994237+262665753+266859296+268452393+265673606
3798+261770689+258453280+254707361+250530076+247573248+246769861+247693049
3788+249744849+252537933+255287042+257386002+259449517+262110165+264182073
3778+263961643+262035501+260673581+261666074+265506132+270984364+275569040
3768+277751571+278027403+277440113+277557921+280566468+287053677+294089290
3758+297941364+299290089+302194414+309555403+320719223+330409806+333699589
3748+333459867+335581652+341633285+346665765+346775845+345796968+348712494
3738+356743951+367019861+374943685+377957213+376516221+373121009+371053690
3728+372463825+377050646+382569455+387097190+390390415+392898050+394837990
3718+396500257+398940445+404167239+413925633+426830913+437003628+439872176
3708+437648041+435491566+436893096+442096342+448136502+451826959+453445780
3698+455234128+458326427+462829253+468970526+476932813+485265372+489836704
3688+487684033+481404512+475313660+471871560+472083868+475935157+482777572
3678+491794789+500163246+502282586+498446483+495989419+497660985+498515200
3668+494488708+488826186+485620276+485263530+486366374+488757923+493521999
3658+500412751+506525945+509595630+511968520+518139833+529694998+541596342
3648+545638111+541318940+534320917+528805610+526219989+526411767+528342710
3638+530807624+533095434+535202395+538076830+543415213+551685275+559222161
3628+560060827+554939281+549507847+547314658+550176715+557948251+566533333
3618+570932572+571849254+573239825+575997781+578267656+579221172+579854353
3608+580911668+581745021+581444311+580380656+580212548+582001228+584242240
3598+584301778+581877864+579088449+577658689+578241027+581600463+587677698
3588+593560258+595457869+593852393+592469490+593198319+595396882+597744652
3578+599047245+598260810+595109336+590906826+588143315+589099126+594309737
3568+601167671+605046465+604298434+601614871+599375550+597783599+596768432
3558+597045170+599255870+603085270+606988398+608965836+608761136+608554262
3548+610395415+613982979+617278167+618335240+616562924+613551721+611863519
3538+611996785+612000710+611047919+611051965+613075174+615133707+615401206
3528+614948028+614892838+614102176+612362830+612067857+614326743+617198702
3518+619180548+621047727+623208006+624317492+623578157+622248150+622128712
3508+623758462+626232132+627697820+626631086+623884784+621998646+621630669
3498+621087459+619616517+618734616+620323608+624665784+629738058+632685617
3488+633031675+633084631+634074075+634272737+632208829+629184160+627240899
3478+626699500+626433752+625785234+625688801+627490947+630726777+633082639
3468+633405328+633650304+636183451+639776088+640350878+636622319+632333340
3458+631364426+633672102+636213100+636169563+633259019+629752912+628348634
3448+629300760+630545928+630668205+629868426+628738047+627766476+627476334
3438+628019664+628828863+629255231+629387169+629772295+630534697+631136418
3428+630883834+629970232+629496041+629663907+628925356+626134673+622971001
3418+622510275+625617790+629731899+630928035+627765329+622961823+620086059
3408+619715908+619978395+619927069+620782522+623174373+625617368+627056850
3398+628310652+629844333+630766751+631167093+632659894+635522373+637666772
3388+637231709+634605087+631670752+629972829+629460596+629170694+628655623
3378+628052151+627379418+626883368+627817078+631305251+636351801+640431551
3368+642001582+641220098+638954269+636696530+636755404+640519167+645907608
3358+648414066+646015574+641012621+636790185+635168103+636131703+638199898
3348+639046957+637052491+633291747+630856179+631651671+635172994+639732732
3338+643605971+645345740+644319704+641617301+639592643+639604901+640729120
3328+641115031+640021426+638084082+636478244+636323481+637674561+638734775
3318+637623477+635341102+634932185+637350543+640296714+641839029+642905402
3308+644543424+645228173+643519200+641710775+643327543+648071390+652400161
3298+654668467+656466748+658549495+659189560+657600448+654850282+651399969
3288+647665613+646150048+649476635+656222980+661426768+661988999+659479944
3278+656737870+654637551+653048680+652461511+653333388+654603253+654239201
3268+651607991+648216612+646053797+646275223+649118379+653468406+656600376
3258+656462581+654206232+652857989+653815249+655480082+655586115+653928709
3248+651627072+649093260+646611982+645734308+647698582+651115442+653262075
3238+653397878+653048016+653473297+654717740+656193211+656628092+654721725
3228+651081084+648231648+647855338+649221333+650845830+652637408+655132695
3218+657259643+656908030+654370897+652562231+652760228+653314066+652897420
3208+652148543+651707623+651092497+650018516+649247177+649446866+649908377
3198+649181661+646877971+644170919+642554332+642666283+643739660+643741894
3188+641226016+637432605+635376607+636417196+638525606+638385033+635211579
3178+631610852+630086108+630124693+629939920+629531486+629946622+630925740
3168+631292691+630546713+628861531+626588938+624051624+621198625+618104334
3158+615968992+616316620+618807197+620846167+620240520+617484316+614757518
3148+613651836+614422813+616499401+618819757+620280796+620343112+619093294
3138+617019061+615002011+613863058+613260129+611873784+609270954+606751272
3128+605732542+606138440+606811897+607097511+607285605+607363017+606542888
3118+604648417+602868191+602399192+603115401+603864579+603719115+602895303
3108+602364230+602308979+601684373+599902697+597738131+596144731+595226842
3098+594420722+593298193+592258269+592187922+593264137+594758568+596156023
3088+597439534+598140345+597493517+595782128+593995924+592267145+590380524
3078+589327617+590187357+591675387+590977233+587586036+584280644+583556586
3068+584819687+585659320+584962494+583799569+583514559+584014957+584169176
3058+583373805+582073748+580850137+579840827+579057593+578358775+577235099
3048+575692180+574863054+575505535+576722684+577289444+577105576+576466477
3038+575472263+574641507+574519412+574470260+573161689+570376622+567399776
3028+565602703+565214256+565448786+565536583+565333091+565104600+565160636
3018+565469074+565446189+564611991+563273833+561988631+560904445+560145244
3008+560018499+560347649+560343482+559408686+557680269+556077027+555809890
2998+556939907+557756956+556814430+554866217+553431083+552629492+551726940
2988+550815753+550820886+552119131+553747794+554224884+553057490+550986940
2978+548856853+547129643+546300397+546495194+546718492+545712201+543547876
2968+541507941+540589629+540606596+540448935+539116513+536848811+534976078
2958+534411069+534821496+535364404+535563367+535368087+534967745+534758758
2948+535136517+535947467+536287667+535210788+532699681+529772953+527704879
2938+527191257+527935907+528962969+529548266+529644518+529356609+528697765
2928+527926789+527310817+526642734+525732875+524937927+524529433+524192674
2918+523643848+522984823+522179066+521143006+520328433+520083034+519845365
2908+519053254+518281010+518326539+518754658+518411378+517034876+515541109
2898+514807751+514667903+514199448+512848790+511040245+509666399+509273243
2888+509642729+509772614+508654735+506582736+505108110+505171302+505883887
2878+505800800+504888194+504382090+505039485+506346666+507309632+507455639
2868+506954336+506031525+504562848+502389676+500000815+498467557+498332087
2858+498953373+499252029+498744506+497707148+496679270+495948298+495490863
2848+495318407+495393283+495142208+493918446+492078229+490739467+490445007
2838+490643276+490510916+489920516+489347024+489015639+488583263+487824877
2828+487029204+486289476+485150553+483563645+482464273+482695390+483807654
2818+484507106+484082852+482880798+481625093+480898559+480968302+481503813
2808+481764156+481352643+480341310+478823480+477047421+475672670+475120765
2798+474918571+474277902+473024401+471535163+470188732+469285878+469093195
2788+469493175+469831685+469563582+468888616+468363611+468123406+467849084
2778+467319309+466679274+466203845+465943985+465666039+465129955+464316227
2768+463285903+462065704+460891940+460230982+460236266+460404977+460052156
2758+459032430+457772287+456653683+455664179+454685483+453845398+453425824
2748+453516852+453873537+454104292+453916047+453178221+451958384+450578410
2738+449349425+448194410+446916061+445798181+445379875+445641516+445983800
2728+445986336+445681219+445179160+444505220+443725548+442894400+441940643
2718+440802505+439609991+438626827+438004756+437596413+437109752+436543023
2708+436266286+436466910+436753973+436531369+435576555+434195676+433037309
2698+432649254+432947609+433251459+432998392+432206100+431214301+430327479
2688+429677149+429179921+428701442+428258499+427846563+427235814+426229282
2678+424957002+423747762+422921837+422735192+423192868+423853041+424116011
2668+423765424+423049971+422359969+422011465+422089722+422268246+422036494
2658+421282274+420351765+419468052+418558496+417754128+417446293+417592632
2648+417538347+416855953+415895071+415209869+414915319+414824049+414770761
2638+414635049+414382253+414166443+414165688+414331652+414398798+414059745
2628+413198767+412082156+411160794+410648984+410523507+410784575+411316010
2618+411653946+411360724+410535493+409657427+409081278+408839864+408744006
2608+408563036+408252876+408043557+408143250+408394868+408441665+408245208
2598+408141892+408262085+408261240+407832607+407120324+406418094+405846896
2588+405486135+405379045+405299067+404939363+404345461+403794401+403377604
2578+403044167+402864194+402969291+403386300+404037626+404766334+405338105
2568+405567140+405452351+405087604+404488540+403668532+402885690+402542471
2558+402694184+402954225+403038400+403014518+402911172+402581267+402048715
2548+401567609+401333412+401379454+401617758+401822548+401747492+401365113
2538+400894182+400606365+400669888+401102234+401735989+402210995+402174554
2528+401650576+401084783+400899134+401154737+401655679+402113355+402217547
2518+401865723+401368887+401176475+401385070+401682519+401736925+401508283
2508+401183751+400913475+400663970+400352482+400111371+400249891+400830629
2498+401502214+401941172+402198526+402389640+402386198+402074046+401592004
2488+401130403+400763573+400546283+400563462+400860519+401371152+401881392
2478+402179445+402328954+402616320+403125715+403571345+403679854+403514765
2468+403277579+403035290+402807554+402684674+402677367+402646481+402516385
2458+402383843+402361471+402467595+402655871+402838501+402951237+403028920
2448+403090119+402999453+402655690+402272737+402243633+402703423+403338325
2438+403613523+403174474+402159186+401156337+400686614+400677376+400642987
2428+400393905+400270270+400627348+401381719+402158613+402660309+402787326
2418+402587939+402270624+402175158+402500806+403081937+403589158+403845999
2408+403816532+403530344+403204002+403171999+403540066+404102025+404641491
2398+405160276+405771598+406433854+406876375+406888814+406626870+406443153
2388+406470447+406514496+406246122+405409237+403983794+402179143+400116987
2378+397605668+394483358+391090259+388035036+385492649+383076495+380483839
2368+378018412+376324745+375679518+375687609+375846116+376322058+377792245
2358+380522183+383995803+387690578+391847227+396675158+401041609+403082148
2348+401894254+398221066+394060764+391417628+390817205+391278927+391610795
2338+391449994+391112661+390782786+390499920+390583219+391263137+392217136
2328+393076121+393870828+394612881+395114094+395447894+396046657+397191105
2318+398726808+400296144+401624611+402578580+403157054+403550241+404094085
2308+404991957+406108176+407145957+407996156+408801279+409691996+410577852
2298+411260035+411712337+412159658+412807090+413522513+413932638+413906099
2288+413770025+413906129+414303302+414662584+414772844+414635351+414362055
2278+414086012+413892302+413761028+413589026+413252207+412664283+411876671
2268+411141079+410746473+410748617+410981576+411334608+411815351+412339269
2258+412736833+413020274+413413732+414079974+414946658+415778712+416358605
2248+416610947+416596365+416431850+416185757+415759178+414943820+413776788
2238+412690489+412069113+411826220+411603103+411228635+410857609+410722863
2228+410822315+410920196+410892873+410905010+411111763+411409484+411672786
2218+412007522+412511633+412979032+413180320+413324878+413836054+414691628
2208+415398870+415662202+415729983+416056204+416856467+417951702+418932391
2198+419558869+419976995+420449073+421031894+421642854+422230144+422729063
2188+423054379+423280998+423652719+424266487+424910688+425350612+425613944
2178+425877639+426248484+426743327+427326239+427910841+428395630+428700023
2168+428827493+428960306+429331514+429910109+430432516+430803180+431244433
2158+432025463+433180539+434463778+435544431+436264686+436660046+436837725
2148+437037473+437632522+438728634+439896843+440640737+441050198+441718099
2138+443051759+444864381+446656714+448187737+449683708+451510822+453727560
2128+455998281+457954555+459585332+461188030+463015718+465060333+467072220
2118+468694241+469695852+470169983+470436516+470768414+471299396+472086706
2108+473118630+474344747+475761766+477360811+478981866+480376846+481437089
2098+482233970+482832068+483142983+482965335+482151969+480742015+478881147
2088+476637689+474020668+471157706+468303137+465653570+463232857+460962347
2078+458844849+457058856+455761729+454831068+453979450+453085653+452212115
2068+451377434+450579557+449990063+449816370+449934511+449939704+449687361
2058+449525684+449798044+450365498+450863118+451199092+451553513+452074139
2048+452755688+453476425+454112233+454731435+455608324+456938271+458671186
2038+460721628+463182799+466216163+469843822+473888368+477973764+481640642
2028+484685268+487330065+489846426+492111018+493833728+495133755+496437887
2018+497768407+498620599+498716518+498392440+498009216+497495021+496705537
2008+495758845+494749746+493541653+492108844+490807036+490039985+489745132
1998+489437297+488900790+488653973+489324863+490634007+491569408+491699836
1988+491619375+491980378+492869797+494186821+495909501+497821907+499513309
1978+500847029+502103187+503541733+505105121+506702778+508547373+510901000
1968+513546159+515843328+517459553+518736784+520153200+521804990+523635093
1958+525802075+528448683+531253194+533572947+535117375+536320697+537913251
1948+540252024+543326269+547169859+551474537+554896952+556142483+555848838
1938+555892374+557249614+559663444+562682678+565966815+568975181+571300489
1928+573254800+575658727+578928252+582402959+584924694+586314903+587417143
1918+588464676+588702527+588064817+587840009+589144172+591609811+593804931
1908+594830726+595150638+595565895+596026138+596057417+595813407+595947096
1898+596753517+597906117+598864705+599580974+600735627+602660230+604285271
1888+604349700+603313942+602453658+601992932+601452259+600815152+600386611
1878+600181126+599976788+599632783+599450848+600363907+603087081+606444041
1868+607301365+604004367+598589659+594016274+591442428+590260964+589320491
1858+587878111+585903511+583824568+582057445+580870245+580457403+580887515
1848+582248679+584621509+586957927+586640612+582660978+577630188+574248109
1838+572751142+571796418+570500770+569555225+570103145+571661220+572112224
1828+570619363+568485169+566318851+563438197+560051226+557453408+556233360
1818+555863511+555731150+555905658+556857846+558582700+560193490+560724925
1808+560178092+559349691+559195592+560426510+562815582+564914814+565439124
1798+564959015+565372521+568114596+572880725+576938495+577167711+574384213
1788+572181846+572462388+574464282+576705053+578873967+581296371+583747881
1778+586141723+589524105+595173463+602562288+608170465+608534638+604992724
1768+601145209+598821712+598608921+600746376+604187691+606739739+607889561
1758+609058706+610678191+612395860+615348612+621104125+628523685+633743415
1748+634785876+633498319+632285275+632320539+633949987+636670082+639167301
1738+641311036+645309691+652712525+660126953+661669872+658011357+653412008
1728+650046534+648860542+650009398+652549671+655870038+660989652+669169863
1718+679111280+685821999+685723574+681440392+677589616+676801974+679536199
1708+684964010+691415563+696868916+701213206+706949215+715458758+723415429
1698+726959699+726831021+724035568+719351560+715635319+715046761+717390969
1688+722269834+731096934+743997805+753508084+751974947+745080904+740762398
1678+741471662+746406080+752828286+758233152+763360314+769451075+773630398
1668+772211869+768152891+766901503+769250421+771672040+771591066+771038074
1658+773310848+779943612+791081829+803660495+809002199+806782502+806803515
1648+812547797+818719110+816615591+806792586+796802198+791555296+792856560
1638+800294417+809745218+812746639+806189295+797543285+792659589+791987642
1628+793801441+796308443+798295663+798301641+795258797+791011784+788927286
1618+789714264+789750796+785305062+778623085+773690419+771349653+770414433
1608+769813255+769350175+769194446+769362312+769493163+768997354+767869571
1598+766995883+766914184+766859960+765716961+763523108+761434322+760514802
1588+760844858+761510224+761590172+761246590+761461072+763028627+766437758
1578+771750660+776671853+776614187+771620292+766809962+765146397+765685078
1568+765924861+765111676+764229051+764583864+768233020+777784842+791954974
1558+798782656+791314185+779591455+771212643+767380586+766189703+765369574
1548+765435755+769277835+778189049+789935268+800981943+808064383+806994508
1538+798965437+791573955+788765579+789648446+791460253+793138008+796161952
1528+801504321+808163653+815017119+822678696+831089935+837277008+839750557
1518+841005387+842150499+842152854+842116503+845197390+853097301+865113252
1508+878188270+884799054+879733846+871146891+867153007+868582042+873230484
1498+878464162+882518249+885219927+887996239+892443724+898184141+902507176
1488+903541907+902928653+903046219+904481112+906805212+909954694+914703251
1478+921733640+930163054+937869859+943369768+945612351+943736357+939563254
1468+936515518+936385392+938231738+939958464+941981914+946851963+955122871
1458+963072115+965096109+962055378+959244587+957682406+955899584+953714184
1448+952867306+954757973+957944410+959470844+958931137+959463960+963894055
1438+970790333+974675587+973064435+971389095+974785364+982088143+987753141
1428+988241221+986009628+985469438+988190136+992945819+997826133+1000489709
1418+998995157+995107910+992432801+992072915+992989114+994355955+996768999
1408+1000779610+1004791912+1005924766+1003772156+1001854557+1003017302
1400+1005687459+1006550279+1005273470+1003950770+1003132392+1001705108
1391+999918723+999407335+1000442852+1000756906+998462696+995678051+995751538
1381+998796798+1002764415+1006975439+1012288220+1018027429+1020961100
1372+1019447286+1015989003+1013299160+1012774186+1015934658+1023425833
1364+1033092143+1040992235+1044745673+1044029041+1039704738+1034919105
1355+1033521832+1035801429+1038335241+1038913956+1038959485+1040336833
1347+1042479359+1043840524+1044731180+1046559834+1049448097+1052555552
1338+1055520623+1057791163+1058287153+1057640445+1058094892+1059462336
1330+1058764424+1055657210+1054015504+1056867416+1062923759+1068793517
1321+1072378243+1073741823+1073707646+1072502512+1069711588+1065683647
1312+1062321132+1061645199+1063486775+1065166281+1064069838+1060983275
1304+1059445670+1061298115+1064636114+1065797771+1062558197+1055955746
1295+1048722287+1043196836+1039786256+1036832417+1033219552+1029746052
1287+1027356557+1025161013+1021087664+1013890918+1004052637+993730502+985694849
1277+980977329+977980798+975005462+972339954+970780913+969405558+966138449
1267+960078302+952764835+946843751+942940744+938651403+931801681+923481380
1257+916023234+909892559+904194049+898572165+893329067+888448753+883278900
1247+876990986+869055147+859632364+849936286+841607772+835220105+829732454
1237+823855148+817705633+812497497+809048151+807236103+806414344+805807550
1227+804693535+802717606+800256557+798253153+797448845+797729689+798325915
1217+798752887+799428880+801126139+804013496+807489351+810947876+814454043
1207+818271789+822025528+825151944+828083139+831901248+836822321+841972126
1197+846372875+849511125+851576905+853355742+855356187+857216481+858503978
1187+859815869+862168229+865678321+869703726+874076819+879393162+886337505
1177+895077169+904752174+913377170+919270477+923296184+927982909+934029530
1167+939407646+942168741+942965259+943612691+944872834+946678723+948639194
1157+950633540+953962844+959944311+966700559+970309499+970048582+969005517
1147+969465700+970927463+971107829+967720557+960802360+953465767+949287652
1137+949446521+952916156+958558570+965662446+972985091+978889932+982070149
1127+982184334+980350850+978481921+977605394+977286267+977251607+978732814
1117+982574593+986589310+986773781+982702183+978658482+978379631+982429491
1107+990037690+999179750+1005535172+1005593805+1000767171+995086051+991540937
1097+992049245+996763263+1001960772+1002129060+996379284+989879908+987505871
1087+988222985+987056134+982116282+975985003+970205337+963940369+957244082
1077+952247469+950146970+950184528+951747373+954188859+956333258+957625947
1067+958678311+959208297+956505592+949142913+940543217+935728359+936237392
1057+939547554+942380868+943767333+944749954+946005085+946436525+943435405
1047+936151224+928673515+927079028+933122328+942231842+948228405+949131440
1037+946506932+941901363+937432743+935868811+937252982+938567590+937556046
1027+934714641+931749872+929991867+930352115+933240559+937723429+941454827
1017+942280873+940114797+936855115+934319431+932810267+931170010+927479190
1007+921003242+913369380+906573038+901305726+896838736+891437373+883738901
997+874075792+864971049+859726925+859205151+860387822+859386905+855574835
987+850991366+846692485+842002137+837029496+833383179+831932526+831577773
977+830495460+828089600+825258219+822609678+819469737+815279425+810692333
967+806523879+802888612+799707852+797032924+794845713+793369760+793419395
957+795658414+799648797+804198934+808467684+812202765+815322961+818204824
947+821881695+826706758+831573365+835630532+839718977+845031275+851615128
937+859361001+868670081+878765717+887393310+893654534+898885374+903653858
927+906264116+905345079+901765304+897055875+892244700+888443741+886740685
917+887480262+890016369+892929811+894663904+893981209+890276018+884636019
907+879879430+878347924+880274821+884537171+890233930+896595753+902118487
897+905696571+908198018+910704295+912807633+914144523+915218443+916229021
887+916774647+916713840+916110006+915239336+914824018+915358110+916276362
877+916873434+917805695+920137946+922515909+922406494+919904142+917387720
867+916583352+917487051+919262809+921055715+923072825+926879582+932855554
857+938144544+939684021+938717764+939682209+944968904+952057684+955378655
847+951674974+943914971+937888397+936362446+938043703+940098795+940712170
837+940084726+940020659+942666482+948591672+955548333+959717088+959829824
827+958994539+960892090+965803623+970919251+973512782+973010815+970717329
817+968301084+966907976+967367495+969487076+971963946+975093984+980829450
807+988393749+993956639+995915479+995456987+993282880+990481207+989815720
797+992076538+993603818+991301999+986224231+979230616+969290648+957215038
787+946383146+938722897+932628693+926240000+920589675+917544959+916845537
777+916673202+915062111+910319410+902201032+893276896+887769861+888556598
767+895535600+906095465+916330526+922816860+924801242+925028345+926958503
757+930888200+934419305+935851964+935130079+932636121+929452462+928255963
747+931726443+939476845+947514008+952090170+952686035+952005030+954389151
737+960691919+966341338+966494047+961083627+953485633+946800517+943022322
727+943026669+945745436+948598978+950394361+953196275+958907527+965070326
717+967831240+967929303+968306156+968804078+967705763+964763336+960825729
707+957317629+956842894+960430217+962042154+954214824+940011179+929749126
697+928748632+932431119+931774750+924504518+917545079+916342240+918448779
687+919400906+920008182+923671165+928619834+928870546+923466526+918465626
677+917934191+920168500+921490657+919845328+914449218+904773066+894384027
667+890814940+893571265+897667439+903921297+913322643+919881800+916484564
657+903900585+890004654+884753525+893000822+908296503+916141948+910909236
647+901721466+899966118+909643478+923476851+929556744+925948649+918756191
637+911164538+900770124+888237773+881494085+884039068+888621812+885933177
627+877172740+870758444+868982083+868350713+868517915+871862435+875125982
617+869357789+854336793+842642443+842099717+846427160+846618213+846281515
607+853823110+865919855+870939413+866007773+857469065+849529784
##END=
