##TITLE=<SNM>
##JCAMP-DX=4.24
##DATA TYPE=INFRARED SPECTRUM
##DATE=29/4/2025
##SAMPLING PROCEDURE=Instrument type and / or accessory
##ORIGIN=Admin
##XUNITS=1/CM
##YUNITS=ABSORBANCE
##RESOLUTION=4
##FIRSTX=4497.3318
##LASTX=599.83466
##DELTAX=-1.4281778
##MAXY=2.1588469
##MINY=0.57234818
##XFACTOR=1
##YFACTOR=2.0105828e-09
##NPOINTS=2730
##FIRSTY=0.58277065
##XYDATA=(X++(Y..Y))
4497+289851600+290026449+291240460+292339388+292433749+291753475+290737199
4487+289580492+289046845+290231892+292961379+295516580+296268952+294844073
4477+292113044+289918806+289932503+291917740+293891950+294430667+293789169
4467+292740906+291741468+291246686+291662345+292764444+293714462+293845347
4457+293318310+292740016+292225282+291421950+290408045+289792754+289942701
4447+290716269+291702455+292420171+292538012+292016193+291021380+289980736
4437+289617016+290278969+291375732+292079367+292308586+292582006+293228455
4427+293978959+294128224+293161337+291425003+290094960+290163352+291302449
4417+292071067+291497160+290031341+288829929+288828120+290305472+292450084
4407+293773131+293774494+293362156+293246153+293158669+292594724+291391859
4397+290004096+289497959+290409913+291632492+291631128+290621255+289965379
4387+289973117+289862925+289308910+288742504+288406117+288119564+287777812
4377+287322694+286654604+286068810+286035341+286376471+286521585+286573554
4367+287179092+288377213+289461436+289952928+289881127+289336510+288513226
4357+287765153+287288009+287232987+287888686+289117905+290038870+289918006
4347+288970122+287757445+286477028+285288275+284667796+285005606+286171828
4337+287685762+289151552+290380416+291130031+291046342+290082449+288718758
4327+287560510+286817299+286294946+285935910+286126560+287013670+287810155
4317+287716001+287291122+287745587+289177789+290451891+290524048+289364347
4307+287801320+286668212+286085145+285681818+285370452+285531516+286563830
4297+288360938+290044444+290469826+289380030+287935140+287668094+288897520
4287+290366601+290596709+289539078+288319760+287546962+286977177+286634090
4277+286978036+287896393+288602993+288752080+288782259+289055590+289386137
4267+289520609+289595286+289908757+290322844+290301944+289727000+289120158
4257+288928233+289067300+289178322+289135514+289227385+289773010+290696466
4247+291625970+292303339+292540828+291946971+290398500+288632698+287588555
4237+287380058+287517080+287768592+288298504+289228127+290401316+291519572
4227+292437277+293097837+293129083+292090336+290287863+288659408+287840037
4217+287944034+288885722+290301648+291608301+292619863+293618204+294517143
4207+294564991+293261065+291247427+289797023+289494698+289886789+290300166
4197+290443264+290219530+289577261+288774314+288470418+289206426+290695517
4187+291920912+292219057+291958117+291816827+291927079+292117758+292358123
4177+292580968+292670320+292838528+293385991+293978426+293789821+292624369
4167+291399656+291060512+291337964+291076106+289742535+288146927+287522357
4157+288220833+289458294+290301440+290679746+291083725+291508959+291420734
4147+290844901+290590602+291053457+291592381+291456605+290733286+290054523
4137+289815314+289969708+290305709+290682562+291021024+291201743+291087697
4127+290635930+289974243+289305738+288691455+288099198+287761684+288175387
4117+289386848+290691337+291465143+291735599+291639162+291078270+290212978
4107+289657333+289916227+290861562+291749977+291780600+290869922+289779917
4097+289297704+289489511+289834169+289858389+289535520+289141532+288922512
4087+289053959+289691752+290693620+291540946+291838972+291542784+290743573
4077+289787773+289314454+289499175+289715587+289585829+289654962+290381898
4067+291253534+291492654+291060571+290465380+289990282+289563476+289163025
4057+288914567+288761092+288444775+287974361+287774135+288179300+289072073
4047+290072222+290720123+290579011+289601511+288350562+287592735+287664151
4037+288313861+289093091+289749887+290295363+290839357+291318428+291361443
4027+290707049+289799513+289464460+289821036+290103557+289820206+289452543
4017+289725399+290742980+291976320+292645003+292182000+290744017+289186386
4007+288310274+288287180+288849050+289623241+290221575+290380445+290093062
3997+289525737+288855009+288198658+287698036+287673697+288574830+290506587
3987+292858687+294597601+294896456+293663531+291758366+290491794+290631572
3977+291906386+293366662+294089507+293790562+292974097+292298625+291944243
3967+291822104+291873895+291930517+291849615+291777606+291823082+291822519
3957+291727713+291662196+291540146+291272181+291164775+291519750+292104092
3947+292396633+292174648+291729254+291584288+291975964+292636969+293127660
3937+293167326+292760264+292267408+292154785+292521529+293055474+293460045
3927+293624251+293512962+293147730+292574565+291852194+291179361+290900782
3917+291328922+292484176+293792371+294384835+294023279+293294801+292743989
3907+292513881+292815494+293664184+294224394+293844991+293381722+293842383
3897+294564961+294213277+292781698+291505846+291097421+290819524+290005075
3887+289362954+289792606+290967159+292124013+293604567+295857443+297732133
3878+297762283+296319675+294839863+294014267+293532350+293063063+292749117
3868+292934372+293765808+294818993+295310485+295163325+294939087+294524969
3858+293353262+291888895+292105099+295500927+299666855+301255525+300320419
3848+298319943+296515543+295629025+295669462+296123393+296529210+296962745
3838+297707320+298482134+298714258+298488270+298382970+298530307+298597010
3828+298461619+298193594+297819320+297727093+298515633+299841674+300695997
3818+301223123+302062682+302525477+301521149+299467875+297731807+297393612
3808+298604925+300258371+301099234+301294954+301791159+302629207+302990318
3798+302739399+302462837+302563957+303117527+304140117+305635167+307437907
3788+309255144+310877017+312216399+313295108+314468475+316500494+319918318
3778+324260044+328535867+332308044+335886903+339771673+343957315+347846947
3768+351220985+354634867+358296941+361670653+364585720+367581156+370667367
3758+372727756+373057146+372563490+373234308+377298077+385229452+393843414
3748+400210546+405137947+410790180+417123309+421831393+424418818+426518428
3738+430027383+435724706+442249108+447371665+450272621+451492531+451864760
3728+452125877+452868406+454405731+456227563+456834761+455065906+451900245
3718+449575537+448926806+448925442+448517995+448182112+449331170+451919989
3708+454223352+455199192+455422955+456020756+457690299+460530956+463995621
3698+467125232+469328987+470809718+471895246+472350926+471970812+471458924
3688+471592032+471868654+471542079+470862161+470442470+470325133+470522898
3678+471939447+474980330+477233533+476061411+472614000+470043413+469893911
3668+470780250+471001406+470682984+470850747+471806161+472901294+473653607
3658+473961979+473311231+471290893+468736819+466930788+466205423+466026098
3648+466321307+467441253+468941046+470021712+470496277+470842536+471936957
3638+474656127+478755530+482157080+482661586+480712812+479195795+480350752
3628+482906843+484040811+483533340+483021482+483796740+486079648+488987867
3618+490958282+491156936+490628684+491352092+494218274+498057598+500761323
3608+501471154+501269387+501443346+502275909+503543727+504937123+506229071
3598+507475366+508828504+510020370+510433153+509910089+509206720+509662727
3588+512119861+515553160+517791748+518032469+517097570+515865861+514582035
3578+513446436+513045155+513729194+514976023+515750481+515365742+514428768
3568+514576165+516393431+518505611+519504070+519872148+520849558+522014388
3558+521727597+519827857+518100594+518042904+519421537+521029032+522236906
3548+523112692+523298451+522328274+521080319+520921597+521473239+521258073
3538+520345348+520318727+521486698+522055535+520645953+518303844+517164984
3528+517751549+518512607+518190361+517664035+518631189+521047353+522748053
3518+521716451+518112571+513966713+511383883+511264056+512879437+514367461
3508+514880031+515675655+517926457+520838293+522868947+523626448+523703111
3498+523660363+523784577+524028203+524097218+523859758+523282146+522299340
3488+520966954+519683543+518974898+518898769+518853411+518195994+516956813
3478+515527902+514199786+513493098+513796015+514203936+513194331+510883290
3468+509213598+509501100+510867400+511447383+510489894+508823879+507765951
3458+508228717+510435643+513618616+515993395+515685023+512214015+506998075
3448+502324587+499795059+499343974+499596731+499159638+497722189+496139685
3438+495463057+495905130+496870090+497814327+498612620+499316700+500126495
3428+500931251+500933919+499826068+498650685+498294465+498168235+497370594
3418+496046865+494870534+494069187+493440288+492749431+491967562+491320757
3408+491021605+491125749+491768166+492959143+494081549+494490182+494574346
3398+495408954+497411742+499736717+500965165+500415360+498769860+497176535
3388+496101443+495459292+495372372+496112263+497456270+498552381+498508920
3378+497293249+496019858+495842341+496595632+496949303+496031420+494676534
3368+494737811+497270452+501664086+506370065+510008334+511797852+511734351
3358+510704468+509864494+509710515+509999736+510373328+510837043+511601302
3348+512703639+513994165+515260145+516000985+515432326+513443471+511275914
3338+510382578+510863190+511619979+511723442+511223679+510787772+510617014
3328+509968964+508298443+506422834+505639720+506057543+506673872+506750772
3318+506168535+504892654+503070467+501487992+501355951+503264822+506354175
3308+508853821+509663320+509119919+508065963+506941274+506019122+505563116
3298+505435285+505231620+505050368+505448329+506490604+507726582+509027721
3288+510462028+511629110+512162787+512316944+512300995+511903330+511051498
3278+510286111+510346173+511240339+512102904+512290204+512365503+513314928
3268+514890288+515617491+514592648+512394259+510062407+508226760+507400719
3258+507933507+509351687+510531161+510720595+510021259+509101598+508910029
3248+510137173+512411454+514328269+514577884+512829158+509806982+507004774
3238+505719110+505950463+506514498+506428585+505842317+505357614+505108948
3228+504937893+504925146+505201204+505333186+504546810+502714069+500586059
3218+499017992+498426269+498822629+499840357+500791383+501119914+500803716
3208+500127088+499295948+498500679+498024929+498004118+498298793+498764583
3198+499295829+499486509+498810593+497267013+495472811+494167521+493804216
3188+494318832+495037675+495109832+494211960+492648814+490959794+489789925
3178+489652844+490260695+490521011+489632092+487879690+486029784+484413603
3168+482935510+481549792+480426081+479677860+479068082+478287784+477542824
3158+477353864+477723898+478113854+478244028+478264098+478180735+477759473
3148+477023999+476361126+476002653+475694993+475001971+473771329+472198697
3138+470617586+469232906+467812651+465948249+463983140+463073588+463731599
3128+464972706+465519368+465182447+464525504+463961410+463496154+462845852
3118+461829220+460852046+460668571+461371020+462036886+461688404+460374251
3108+459069435+458697444+459343952+460199757+460312084+459520135+458505371
3098+457936119+457853290+457909942+457864852+457659942+457304612+456970715
3088+456993809+457442552+457876087+457825394+457300965+456586302+455844366
3078+455188371+454833040+454852280+454791300+453832744+451783739+449590538
3068+448339767+448053510+448030387+448075863+448645856+449910590+451232837
3058+451676926+450989329+449907240+449255959+448935759+448263044+447169927
3048+446400242+446466144+447012065+447396241+447492648+447621991+447906261
3038+448003557+447474297+446261116+444836771+443867512+443532726+443258091
3028+442441803+441286194+440448472+440053654+439641819+439064504+438765292
3018+439023445+439580127+440155990+440674875+440907295+440526173+439580720
3008+438351027+436842606+435072713+433632419+433254083+433882952+434646471
2998+434773531+434226425+433457392+432902903+432679317+432478766+431843286
2988+430768015+429876102+429748508+430275337+430877615+431117446+430918525
2978+430468982+430100489+430058807+430269557+430455196+430383662+429827632
2968+428663366+427253102+426265967+425956498+425949591+425755206+425180736
2958+424301126+423431536+423097787+423594823+424474641+424838005+424274356
2948+423222594+422342302+421852382+421604664+421523524+421700449+422117916
2938+422550206+422796797+422794069+422511578+421984037+421343695+420597282
2928+419619693+418599860+418042229+418062062+418161404+417905326+417413745
2918+417053553+416913004+416717848+416244617+415647410+415160750+414708449
2908+414167034+413735485+413631044+413697420+413619927+413274795+412744082
2898+412214199+411790921+411328096+410711767+410242835+410290239+410690927
2888+410940274+410798599+410344104+409679127+408932655+408348313+408125764
2878+408265395+408572373+408733407+408546434+408134332+407724039+407286531
2868+406680993+406027074+405636317+405661842+405959808+406194452+406075455
2858+405577322+404892809+404225430+403709599+403407394+403307785+403410684
2848+403698986+403942435+403813032+403307429+402785462+402571481+402688432
2838+402854802+402681465+402098962+401511063+401300817+401354920+401167828
2828+400309859+398894288+397602517+397043137+397168092+397523660+397805025
2818+397951533+398005665+398005606+397867280+397509252+397120660+396939407
2808+396797880+396320736+395541268+394928200+394751039+394719022+394467213
2798+394166846+394191274+394349462+394077820+393282166+392405402+391818688
2788+391543223+391361911+391054577+390653622+390335763+390061750+389716440
2778+389509100+389708732+390075773+390032164+389367483+388471420+387886723
2768+387820554+388060860+388200609+387961073+387450460+387048646+386938720
2758+386913966+386671674+386028279+384965578+383812281+383139566+383132333
2748+383367154+383425734+383318447+383206090+383158213+383179587+383098181
2738+382565304+381531389+380532159+380132894+380222572+380186701+379711306
2728+379101973+378836795+379065361+379530558+379806557+379641817+379134198
2718+378549619+378065420+377727106+377486622+377176590+376615668+375907913
2708+375476216+375573660+375919890+376081872+376005446+375838691+375522225
2698+374961215+374346101+373983448+373989941+374246670+374460058+374343314
2688+373898514+373357544+372867267+372505771+372455907+372775307+373092810
2678+372877169+372011759+370939957+370235255+370076088+370160341+370094172
2668+369786838+369494148+369537549+369952318+370424571+370649283+370623966
2658+370464651+370180618+369785889+369370052+368978317+368682930+368658739
2648+368889825+369020680+368753308+368133481+367344200+366537518+365908708
2638+365632501+365652690+365710261+365646642+365601107+365819623+366309959
2628+366818319+367103242+367068853+366703325+366095978+365481754+365126424
2618+365132619+365335958+365400199+365111008+364575996+364083793+363883241
2608+364117322+364717020+365261992+365195142+364404764+363426909+362862044
2598+362799315+362988512+363259353+363490736+363483710+363186692+362809186
2588+362543563+362411285+362401739+362511991+362660485+362700803+362507336
2578+362075491+361591737+361314136+361344938+361574275+361781082+361749865
2568+361428894+361016496+360795460+360882261+361164042+361409002+361443213
2558+361302278+361174981+361146136+361073475+360806073+360471553+360407727
2548+360767622+361295074+361552931+361311113+360698193+360081478+359807910
2538+359935475+360188054+360249598+360077506+359859730+359764598+359853208
2528+360139554+360600926+361153844+361646314+361856530+361612755+361029985
2518+360520557+360443272+360798661+361320629+361759411+361992395+361963757
2508+361700446+361416176+361410069+361738956+362118032+362248354+362116520
2498+361920653+361842270+361922876+362069295+362143587+362050381+361797268
2488+361546764+361516170+361736851+362012732+362135316+362003660+361645098
2478+361325906+361431473+362004935+362595057+362734361+362415969+361995211
2468+361790243+361879683+362155119+362407757+362396907+362038938+361578396
2458+361400938+361661433+362204241+362735606+362955902+362723126+362244114
2448+361943421+362057526+362462394+362850097+362959281+362733798+362351075
2438+362013799+361750933+361552189+361546053+361831124+362253453+362530964
2428+362545223+362460141+362562447+362917452+363278178+363513147+363882293
2418+364554770+365159508+365252565+364954984+364709935+364666593+364685388
2408+364771034+365120376+365715627+366175932+366206081+365997377+365963048
2398+366238010+366619458+366904943+367239878+368147829+370121831+373295496
2388+377798670+384255154+393492026+405870397+421240055+439380257+460126563
2378+483153374+507932203+533840849+560077315+585559482+609076333+629496361
2368+645907789+657837002+665480786+669570496+670556978+668265621+662239234
2358+651394926+634441816+611314565+583666916+555687060+533295017+520899778
2348+520198722+530643883+548403765+566042574+578036711+585249984+590575790
2338+594799259+597729831+599872961+601754854+602876342+602306556+599905156
2328+596322621+592092274+587102765+580924593+573527992+565320529+556536699
2318+547226603+537728377+528508225+519705837+511262692+503188218+495274423
2308+486888554+477636118+468087731+459341195+451912726+445400894+439162452
2298+432998391+427159748+421988276+417662115+414091053+410933071+407832541
2288+404768921+402091106+400075986+398559769+397162489+395734349+394413407
2278+393384710+392726225+392338225+391931875+391264200+390425886+389708584
2268+389208317+388778043+388335407+387969107+387718010+387465639+387112620
2258+386684184+386244364+385843854+385520333+385238731+384913105+384560591
2248+384299771+384162660+384093586+384149735+384479155+385045087+385571294
2238+385844506+385904272+385866414+385773506+385692573+385689994+385640990
2228+385347441+384853577+384345454+383807182+383098211+382275846+381566430
2218+381108378+380867479+380708461+380537466+380461218+380685545+381177304
2208+381628033+381819039+381802704+381702384+381579266+381523088+381671908
2198+382087982+382674666+383221654+383545649+383613953+383545531+383537527
2188+383804988+384460182+385358795+386185222+386753495+387118372+387407504
2178+387685074+387966558+388266036+388617424+389038775+389455027+389731055
2168+389835052+389881654+389956124+389988141+389891793+389747479+389714750
2158+389834310+390061661+390389629+390763992+391027125+391143217+391322631
2148+391745849+392306208+392757471+393001927+393146004+393354738+393723646
2138+394252551+394884384+395566526+396305054+397154989+398147964+399275884
2128+400559206+402063239+403810809+405731331+407715531+409683722+411613730
2118+413545250+415568078+417727542+419892639+421834001+423494295+425003960
2108+426348352+427264486+427592424+427487657+427182042+426774624+426350368
2098+426065416+425980037+425977517+426016590+426325673+427076385+427937823
2088+428316692+428048311+427459671+426741866+425697456+424165616+422313635
2078+420418698+418642194+417076884+415800825+414823918+414107506+413630066
2068+413330084+413052928+412695878+412356497+412224634+412369986+412707262
2058+413114620+413526870+413938734+414402745+415033215+415883714+416774411
2048+417415909+417772544+418128794+418765193+419704064+420725973+421576797
2038+422269434+423118094+424333943+425765789+427178039+428558243+430059370
2028+431827840+433884524+436091064+438351679+440811155+443645142+446743418
2018+449775437+452480614+454802565+456772061+458320147+459348547+459996271
2008+460582540+461242833+461886614+462442614+462889994+463210342+463471697
1998+463780128+464154580+464646220+465408494+466413534+467330498+467913298
1988+468304321+468819648+469620935+470676136+471937313+473472384+475365187
1978+477484452+479462367+481007281+482193484+483364065+484834539+486772492
1968+489176501+491776230+494129190+496058130+497881800+500098984+502886191
1958+505862713+508403744+510313622+512015272+513916731+515933156+517840248
1948+519692081+521682714+523969268+526687282+529756476+532751438+535361958
1938+537811740+540540545+543636064+546736682+549472780+551895644+554349872
1928+556989148+559625104+561968162+563792010+565060479+566154515+567718076
1918+569981922+572373302+574151436+575286976+576393937+577997816+579989575
1908+581815261+583190455+584370877+585677293+587117114+588561085+589934203
1898+591187020+592330089+593372720+594146170+594504287+594671665+595015612
1888+595639590+596557650+597869639+599423832+600727876+601423715+601599986
1878+601572238+601533758+601440968+601253194+601206176+601612675+602333711
1868+602690583+602189101+601049826+599838572+598963735+598474347+598053856
1858+597278746+596147120+595138700+594436281+593543300+592112907+590593399
1848+589560374+588992070+588557231+588092153+587553080+586857598+585950624
1838+584864118+583653220+582410068+581411194+581017621+581159859+581038728
1828+579877456+577816089+575545425+573572520+571966388+570490223+568945694
1818+567438460+566320471+565879880+566121135+566751160+567277544+567296103
1808+566813000+566173014+565714755+565588880+565780923+566136372+566356757
1798+566168923+565682797+565496801+566265271+567962888+569668213+570630031
1788+571054731+571486191+572211141+573313181+574860674+576768300+578591733
1778+579873484+580791781+582100510+584301744+586941020+589064998+590506123
1768+591695262+592714887+593523853+594466282+595827186+597181450+597966876
1758+598516207+599602357+601260724+602805193+603909545+604998957+606557003
1748+608461249+610319427+612013190+613691360+615469791+617140846+618275318
1738+618877180+619611854+621186917+623607469+625972346+627733879+629253742
1728+630877009+632486935+633735187+634455631+634915254+635647556+637016524
1718+638988302+641139317+642912293+644111156+645058032+646233948+647807885
1708+649607067+651409452+652902219+653790516+654455582+655939811+658724350
1698+662029344+665081403+667236805+667930094+667991994+668886397+670878394
1688+673026919+674858771+676840095+678849938+679996803+680511803+681268000
1678+682573348+684304821+686136910+687650785+689079103+691579104+695779154
1668+700088536+702416238+703010926+703551363+705196389+707814854+710644275
1658+713221295+715521368+717813080+720197642+721876405+722361464+722629281
1648+723706893+725875992+728171499+729277097+728990781+727960957+727119737
1638+727361882+729018588+731138713+732254330+732467837+732800637+733678202
1628+735098931+737385662+740883233+744895865+747852050+749169494+749966483
1618+751792939+755439508+759924451+763405242+765277649+766035446+766547483
1608+767574935+769041021+770130314+770511614+770915504+772223283+774439459
1598+776845484+778817203+780229217+781243743+781993833+782599074+783103759
1588+783168089+782483220+781773211+782543341+785347208+788806121+790916344
1578+791008245+790017138+789215644+788874958+788813948+789137083+789641352
1568+789638329+788956187+787991049+786622496+784227677+780967388+779116860
1558+781423988+785929563+789464310+792228511+795089535+797652029+799286027
1548+800127306+800275533+799347275+797731953+797458741+800491767+805763382
1538+809922698+812309810+814336848+816410429+817516145+816903670+815489344
1528+815011519+816415231+818908888+821196332+823372249+826155661+829043721
1518+831356778+833741044+837245789+842415245+849090275+856105279+861911046
1508+866267623+870273436+873856208+876036572+877215394+878348087+879896173
1498+881646263+883291704+885120533+887668678+891108855+895277007+899767107
1488+903563742+905478897+905725073+905981388+907686772+910821957+914354866
1478+917540270+920536121+924078101+928613085+933354579+936831280+938583386
1468+938835490+937687085+936266237+936977788+940259243+943250055+943824228
1458+943907709+946742882+950524931+951415362+949837690+947964987+946435577
1448+944310947+941039749+937686433+935544608+934354580+933036958+931632771
1438+931336613+932952172+935995278+939105916+940770627+940033997+937707540
1428+935913338+935641193+936151450+936601527+937068088+937997413+939348060
1418+940545025+940985794+940492612+939027297+936914228+935681392+936844442
1408+939924546+942419804+942117065+939837448+937998659+937219220+936704456
1398+936333118+936693191+937595184+938284974+938527356+938513304+938237127
1388+937224141+935203270+933788589+936059490+943037556+951780831+958092586
1378+960887797+962284691+964244433+966812085+968899125+970424621+972647912
1368+975436838+976388101+974572791+972905353+974719003+979660367+984798577
1358+988188060+989499694+989355558+989083294+989787966+992017423+996385562
1348+1002873055+1009145323+1011943498+1011022591+1009249912+1009400866
1340+1011921204+1015428143+1018368143+1019599259+1019204500+1018634359
1331+1019952989+1025089005+1033294037+1040218030+1042395785+1040830030
1322+1038962485+1039682751+1043859915+1049727462+1054122104+1055446189
1314+1054649912+1053341124+1052810115+1054191238+1057528130+1061324764
1305+1063870716+1064625727+1064694148+1065897635+1069155790+1072964756
1297+1073741823+1069200613+1061477261+1054740983+1050573425+1048069095
1288+1046915412+1047457806+1047987036+1045219574+1038113558+1029998292
1280+1025948604+1027971729+1032463845+1032966870+1027342652+1020100623
1271+1016220151+1015555619+1014331499+1010819816+1006771789+1003169747
1263+997583595+988519259+979582814+975599651+976899604+979280964+979070837
1253+976438677+973224516+969984801+966287894+962289197+958322457+953366211
1243+945511469+934440314+922506121+912428148+904660090+897957193+891943968
1233+887343230+883737987+879312869+873167129+866447097+860986345+857644590
1223+855871555+854499385+852968257+851469086+849975133+848135929+846363960
1213+846053810+848215319+852200380+856033004+858184968+858822938+859038104
1203+859691194+861499745+865214557+870945736+877860420+884710477+890126642
1193+893018260+893743684+894057333+895222400+896999289+898417231+899403832
1183+901378931+905504926+910479552+913476530+914350952+916749803+923268484
1173+931900232+938704576+942869288+946938127+952893840+960569345+968731273
1163+975462392+978524531+977899249+976902628+978640978+982877255+987372158
1153+990092840+990002599+987660845+985686280+987182486+992577011+998734906
1143+1001383549+998886097+993770715+990190433+990705374+995372755+1002016065
1133+1006781512+1007029823+1004487073+1002869024+1003578973+1005729810
1124+1008481739+1011734794+1015505222+1020252526+1025786859+1029730534
1115+1029466216+1024149481+1014801557+1005101327+1000915625+1005382010
1107+1014463480+1021082362+1022696853+1021819348+1021560602+1022970185
1098+1026395421+1031744054+1037511637+1040977072+1039541520+1032531319
1090+1022119716+1012983698+1009690918+1012629257+1016688075+1016361501
1081+1011864285+1007041088+1004403117+1005290820+1010014764+1015374663
1073+1015984055+1010769894+1005023655+1003827639+1006665895+1008853848
1064+1006904600+1001449718+994385680+986042203+977265548+971338294+971257184
1054+976782742+985214680+993401214+998639684+998530470+992321111+983983623
1044+979854782+981899132+985534673+985010304+979716515+973757897+971976205
1034+977306340+988184266+997311094+997106540+988627109+979810076+976037811
1024+977150049+980619516+984280493+986834686+988251383+989551751+990951313
1014+991191619+989587444+987547896+987004969+987303321+984989493+977795193
1004+967701093+958521556+951926509+947120091+942991546+939215130+935714298
994+931775247+926293684+919584680+913476234+908770314+904461406+900155581
984+897218072+896205443+895074765+891546897+886335759+882275221+880804332
974+880754765+880259093+878859056+877213378+875235196+871637957+865901798
964+859869956+855833846+853787420+852225638+850871078+850794830+852303546
954+854384301+856070357+857378374+859086249+861789025+864992454+867650821
944+869622244+871828933+874957833+878911648+883672293+889367600+895203901
934+900274223+905473383+912519990+921214646+929116406+934109886+936342960
924+937444407+938380729+938392647+936503816+933812009+933085102+935732797
914+940076864+943130702+942820018+939025933+934220701+931296829+931167397
904+932296889+932418494+931067788+929850427+930873492+934525871+938643684
894+941199538+943396088+947771165+953741285+957578474+957351094+955168536
884+953540585+953181401+954113573+955654840+956401668+956389929+957606460
874+960819434+964372086+967184551+969535021+970740761+969429898+965978989
864+962088023+958918627+957663201+959665040+964248109+968495651+969821989
854+967806335+964126088+961837637+964464165+973267680+985164164+995093021
844+1000499877+1001822776+999809138+995470822+991178872+989905184+993789391
834+1002359952+1010470949+1012163586+1008772857+1006555970+1007856220
825+1009260821+1006873888+1001300068+996138675+993672351+993605649+995456830
815+1000900328+1011630442+1025468822+1035990232+1035945882+1025389491
807+1012249795+1003013812+1000633638+1004116623+1007091248+1003674669+997208639
797+996357577+1004417109+1016368141+1025433841+1030197510+1031010744+1026007895
787+1016625820+1008913495+1005290583+1001616918+994288561+984659124+975351933
777+968200441+965085771+966937901+971446085+973690661+970818313+965455628
767+963548299+968719296+978802249+987592661+990047127+985553053+977850690
757+970834440+965691546+962628696+963010767+967844637+974680523+979720488
747+982357985+984132918+985016945+983337708+979878854+977767327+978386502
737+980705191+983127166+985490264+987980483+989681005+990319450+992189782
727+995471059+994887281+986956410+975706552+969112513+972223093+983613114
717+995176502+997028395+988576771+980017832+979354959+984556255+988653020
707+989760633+992063611+998513039+1006940649+1012912786+1013600797+1007719495
697+998614426+993799649+997912541+1005589765+1003530355+992086616+983469393
687+984750847+991748657+994963529+992112704+989349984+991701343+998115908
677+1002905547+999085196+985172999+967104508+950274901+937157973+933768963
667+948095249+973109729+993055133+1002420784+1002923690+993940464+976608960
657+961679745+959405642+967076404+972716689+970789438+966696942+963437128
647+960583397+956861292+951736837+945861345+938267899+929245245+926170003
637+934917547+950036374+960913648+967433810+978228076+988969633+985212901
627+970301237+961154665+961252614+958082151+942815689+922396374+907843300
617+902397549+902357409+901239597+895068184+890930923+897558402+912919255
607+922818169+915677053+902914981+901606964+911281877+918879533
##END=
