##TITLE=<SNM>
##JCAMP-DX=4.24
##DATA TYPE=INFRARED SPECTRUM
##DATE=29/4/2025
##SAMPLING PROCEDURE=Instrument type and / or accessory
##ORIGIN=Admin
##XUNITS=1/CM
##YUNITS=ABSORBANCE
##RESOLUTION=4
##FIRSTX=4497.3318
##LASTX=599.83466
##DELTAX=-1.4281778
##MAXY=2.1263711
##MINY=0.55213314
##XFACTOR=1
##YFACTOR=1.9803375e-09
##NPOINTS=2730
##FIRSTY=0.56573045
##XYDATA=(X++(Y..Y))
4497+285673763+287159261+287324501+285995182+284304625+283004382+282387699
4487+282762332+283881956+284981324+285873104+286759437+287208201+286881455
4477+286483737+286639706+286931087+286907279+286913539+287318662+287776907
4467+287552946+286404849+285107887+284762058+285604808+286922449+287803875
4457+287558996+286026304+284071153+283210585+284190824+286105041+287243837
4447+286923321+286005747+285397823+284863730+283801925+282429175+281484181
4437+281133446+280978169+281039961+281755516+282901657+283662600+284064502
4427+285031828+286633566+287658019+287288533+285950456+284354709+282987045
4417+282487565+283208177+284418998+285142891+285562882+286338513+287143279
4407+287350536+287268187+287127327+286027839+283426028+280478208+278807606
4397+279023259+280676224+282688471+283881745+283869676+283356621+283230359
4387+283648062+284157355+284383633+284272270+283808155+283008836+282166628
4377+281632294+281367821+281009592+280319078+279428141+278828915+279140883
4367+280514566+282427640+284297462+285777843+286478439+285960088+284190192
4357+281876300+280100565+279412881+279457577+279747483+280484950+282120909
4347+284209906+285314812+284537886+282783280+281678224+281602226+281645718
4337+281085620+280159708+279656887+280095900+281072587+281534234+281143107
4327+280803870+281272349+282094272+282450635+282177614+281571857+281016575
4317+280931788+281346150+281568275+280934768+279781404+279171644+279776166
4307+281220851+282554263+283311745+283769569+284096526+283898299+282902770
4297+281550367+280624515+280639113+281535889+282661021+283212090+282883537
4287+281992028+281061662+280483776+280468335+280958635+281544859+281766713
4277+281620074+281408032+281088238+280412593+279708987+279713201+280503911
4267+281237766+281150632+280463881+280100896+280627134+281589795+282072059
4257+281833109+281590789+282100111+283180848+283935862+283941972+283689749
4247+283679545+283772097+283702450+283543561+283337057+282908850+282263725
4237+281661790+281331251+281403879+281917414+282688019+283263377+283203331
4227+282630833+282292499+282701925+283419798+283672593+283471597+283511838
4217+284105826+284765279+284677181+283343950+281160504+279421579+279145639
4207+279969096+280864910+281583113+282391431+283000921+283016481+282813318
4197+282939219+283273219+283374078+283074420+282502494+282016498+282074979
4187+282809887+283863987+284779726+285196345+284807356+283718583+282695755
4177+282555858+283300729+284089423+284142215+283639214+283557467+284415176
4167+285425874+285410585+284323286+283178771+282792129+283279540+284338245
4157+285349094+285654470+285205315+284519737+283906546+283262835+282574459
4147+282062006+281823478+281776735+281925992+282379964+283116287+283853031
4137+284279373+284367831+284318410+284273293+284245873+284313414+284554802
4127+284695330+284336800+283696822+283450287+283698447+283902964+283916990
4117+284147422+284709055+285172568+285042122+284104683+282610787+281249986
4107+280593664+280696841+281415346+282571539+283612306+283817816+283151171
4097+282431643+282528318+283560416+284832578+285407093+284924167+283965027
4087+283326734+283019912+282475255+281643791+281146328+281349702+282016528
4077+282804499+283539889+284102726+284344024+284058422+283221209+282361454
4067+282141466+282429957+282468694+282001569+281562255+281659774+282161872
4057+282442899+282034767+281192499+280658165+280869244+281681745+282694460
4047+283471687+283740615+283766559+284159732+284965221+285389546+284802089
4037+283647671+282877247+282745597+282743460+282540598+282338278+282314982
4027+282380355+282493735+282750895+283197462+283821850+284618339+285497538
4017+286185855+286292884+285621934+284523379+283719516+283585308+283813603
4007+283929962+283866124+283846560+283962649+284070461+284016495+283823264
3997+283581876+283290917+282893771+282409400+282049245+282207020+283094616
3987+284343392+285311531+285723817+285675810+285269273+284688438+284356635
3977+284562988+285131032+285694772+286068652+286265163+286339596+286327437
3967+286340740+286506611+286633355+286340740+285754667+285402277+285234570
3957+284681605+283843340+283697845+284969224+287344125+289691606+290769453
3947+290138384+288545375+287151797+286598441+286756096+287004857+286880341
3937+286626162+286953299+288228621+290032558+291385444+291466920+290479848
3927+289491152+289112787+288835582+288134203+287622925+288172037+289518782
3917+290468501+290170649+288897253+287606762+287063007+287341416+288123338
3907+289523236+292073941+295571505+298508309+299455651+298408082+296072038
3897+293161119+290769965+290260522+292100156+294596443+294978720+293312723
3887+292522344+294011664+296024453+296877678+297287014+297593654+296679782
3878+294930353+294254617+295031151+296002843+296885834+298289315+299525238
3868+299796965+300110378+301196653+301602588+299855717+296959635+295003792
3858+295383662+299043125+306127886+312535467+311592490+305001640+298366998
3848+294108310+292667086+293919534+297154852+300916468+303762677+305079204
3838+304998239+304084818+302993697+301983661+300927725+299832992+299088392
3828+298914244+299036443+299615864+301718827+305396710+307928512+307339550
3818+305620249+304510136+302927451+299986885+297006709+295665562+296686734
3808+299480422+302225892+304049483+305975198+308088033+308359368+306470283
3798+304725339+304053787+303453659+302505233+302078952+302816931+304486148
3788+306518471+308419505+309993251+311657201+314126700+317507815+320995657
3778+323806501+326189558+329142675+333640885+339981197+347095425+352994647
3768+356885414+359676844+362207804+364861354+368332221+373072180+378096507
3758+381606803+383317225+384943192+388628388+395258275+403029848+409272762
3748+414644091+421400661+429203175+434271837+435328255+435809916+439037741
3738+446363047+456353611+465004143+469387076+470081924+469163657+468341103
3728+468675855+469949913+470484127+469030322+466075068+462504364+458697661
3718+455399377+454095522+456045104+461088995+466728169+469286729+467949164
3708+465124897+462950119+462162027+462556224+463510849+464934706+467306115
3698+470556061+473723238+476095339+478169047+480884779+484283441+486546045
3688+485298895+481000326+476627295+475067334+477301074+481755160+486234829
3678+490212761+493232065+493330306+490951492+489497086+490283221+490700172
3668+488401841+484663040+481390339+479137638+477783308+477159221+477026849
3658+476932461+476574322+476721141+478812005+483420224+489362637+493480917
3648+493057104+488915558+483696074+479546371+477491265+477077414+477015532
3638+476984320+478031257+480786268+484592490+489053137+494910131+501397624
3628+504260145+501212610+495813710+492867455+494709436+500111948+504892359
3618+505592474+502890345+499793779+498809086+500629938+503899418+506461710
3608+507219644+507008956+507658115+510570720+515697833+520983503+523791366
3598+523698423+522691878+522609890+523612221+525056094+526549026+527774084
3588+528393927+528327590+527684632+526721067+525858813+525418476+525624047
3578+526789812+528762449+530295834+530222153+529260756+529286399+530773191
3568+531780519+530370959+527749584+526577619+527487428+529272073+530749354
3558+531411996+531390205+531388279+531810557+532364605+533220538+535045273
3548+537330331+538295762+537082622+534801056+532964583+532077408+531721948
3538+531190774+530143236+529073545+528891029+529975950+531513548+531718216
3528+529505815+526028146+523690597+523647497+524805977+525422269+525105695
3518+524452444+523766746+523253330+523423144+524369071+525018651+524167353
3508+522331963+521261791+521680276+522687664+523400210+524093612+525109066
3498+525959040+526247381+526382763+526869692+527740133+528747942+529478185
3488+529692786+529601046+529563785+529797407+530189888+530174779+529361043
3478+528145977+526882815+525013655+522002207+518408659+515407144+513993912
3468+514274247+514927378+514484212+513486817+513760350+515586108+517395734
3458+518125676+518138377+517897351+517296289+516233882+514896317+513527751
3448+512415200+511872589+511763453+511368203+510350221+509773478+511042119
3438+513458284+514317769+512393108+509660369+508376740+508330509+507907388
3428+506364192+504308965+502954906+503335799+505556958+508402926+509989102
3418+509264156+506788035+503824985+501219322+499441600+498981368+500096778
3408+502341985+504762846+506390558+506403139+504715050+502580935+501537761
3398+501686506+501819240+501124482+499938943+499009841+498786332+499245299
3388+500035017+500903471+501845335+502635473+502709364+501999558+501454961
3378+502107821+503747332+504957281+504722966+503739898+503633380+505127516
3368+507582448+510120992+512408939+514242162+515066191+514320417+512259471
3358+510281657+510081684+512048302+514536824+515373253+514372728+513571634
3348+514570172+516731406+518482701+519273803+519670377+520301477+520977363
3338+520860882+519591881+517700147+515918573+514784111+514582152+514906189
3328+514931351+514707180+514999855+515500930+514849544+512801781+510763830
3318+510129540+511314748+513927335+516863718+518793495+519229679+518790546
3308+518302052+517985298+517492229+516447820+514977763+513813864+513772148
3298+515039645+516947752+518452663+518805896+517904936+516344042+515103453
3288+514920395+516022653+518307409+521220917+523668806+524830176+524942683
3278+524718512+524389538+523891172+523500196+523575441+523881721+523767468
3268+522980941+521947549+521290444+521167824+520996445+520210159+519343571
3258+519377040+520022767+520132686+519851027+520508011+522202059+523296190
3248+522683751+521212309+520340243+520323689+520196675+519087675+517249035
3238+515790896+515478236+515907316+515911410+514853698+513377079+512477142
3228+512212879+511890949+511264183+510832575+510769128+510275577+508742915
3218+507126339+506942439+508200184+509530766+510099683+510313982+510565302
3208+510377851+509232613+507599664+506590952+506548092+506518777+505550276
3198+504044823+503161921+503135555+502862083+501371799+499288942+498219853
3188+498893180+500490433+501607830+501368970+499781951+497544328+495564527
3178+494424165+494128782+494247790+494327911+494245412+493982083+493283744
3168+492164180+491178162+490334629+488699302+485961959+483441533+482622862
3158+483497245+484922577+485823357+485625130+484225171+482099965+480180541
3148+479267873+479484550+480190383+480464096+479854637+478710754+477781231
3138+477596277+478188701+479020796+479201175+478324865+476988143+475938437
3128+475162474+474410290+473975912+474130316+474287670+473666502+472448126
3118+471396434+470734062+470088365+469249347+468437146+467923219+467713194
3108+467505787+466967299+466193534+465683791+465749284+466210269+466624691
3098+466526451+465609177+464050841+462651906+462234203+462804173+463639459
3088+464120278+464147998+463838920+463254021+462504094+461749260+460942236
3078+459930304+458967010+458511775+458388643+457909058+457107512+456935892
3068+457837273+458976672+459338392+458969749+458629699+458651641+458537418
3058+457601333+455988219+454832387+455053278+456200953+456915756+456375553
3048+454955910+453691935+453318265+453561640+453410276+452394581+451192277
3038+450556904+450356720+450145641+449919664+449798067+449609622+449267947
3028+449004046+448917423+448775299+448356482+447622026+446632065+445597228
3018+444909062+444887963+445420912+445851106+445423771+444061104+442531091
3008+441678107+441634224+441801691+441484215+440611486+439803770+439505136
2998+439284215+438479208+437228596+436226687+435809405+435854522+436218951
2988+436740343+437016464+436690049+436022530+435726093+436038001+436419195
2978+436355387+435918962+435362205+434737095+434081706+433563024+433323773
2968+433265623+432942037+431948043+430661555+430039033+430350580+430829142
2958+430868450+430784385+431052410+431465809+431426230+430671186+429421177
2948+428061941+426925040+426222638+425925238+425760811+425582088+425620312
2938+426070793+426556879+426374454+425325049+424028056+423294201+423392773
2928+423994135+424625747+425006008+424964382+424295629+423007816+421640785
2918+420900339+420914395+421209327+421345130+421139800+420518814+419642865
2908+418865247+418281522+417753780+417375686+417316904+417339628+417072205
2898+416562883+416177024+416136271+416291427+416253052+415817772+415261135
2888+415013246+415132435+415292257+415213429+414955819+414724724+414481952
2878+414013202+413394894+412919914+412515515+411880442+411254158+411268575
2868+411921315+412404181+412063499+411054818+410060884+409675295+409908135
2858+410162375+409984856+409740699+410046527+410750103+411090544+410638679
2848+409536814+408181250+407126367+406817348+407074026+407280079+407229092
2838+407295970+407661694+407888183+407467681+406445515+405298020+404486963
2828+404270768+404575783+404886908+404609192+403692039+402651814+401916635
2818+401402407+400834453+400311617+400277245+400856967+401532281+401681718
2808+401186031+400374643+399658275+399249360+399033586+398774079+398449861
2798+398174823+397922691+397608736+397245240+396846619+396455974+396279418
2788+396422866+396597014+396459556+396058437+395654879+395348811+395076091
2778+394771015+394350001+393683446+392799702+392027351+391649558+391474176
2768+391136353+390804460+391073207+392074786+393129398+393373946+392480480
2758+390798531+389073270+387978869+387688752+387838430+387946062+387854021
2748+387758821+387868619+388091075+388083430+387529081+386345378+384807720
2738+383517228+382996589+383211550+383644965+383858602+383801265+383579742
2728+383239361+382871832+382645674+382574281+382425866+381990465+381320238
2718+380635624+380146106+379964102+379994110+379959467+379728734+379504111
2708+379524578+379715882+379765966+379460378+378896669+378383012+378132926
2698+378102647+378096537+377913480+377450780+376824797+376293593+375959232
2688+375700628+375420324+375146400+374915546+374701999+374390753+373821084
2678+373064264+372569359+372715276+373312515+373841431+374027348+373905991
2668+373561909+373105439+372687314+372315180+371865633+371360765+370995734
2658+370950075+371362180+372233162+373155432+373490937+373027093+372117735
2648+371140807+370249599+369595113+369314778+369310775+369357848+369366908
2638+369334432+369181834+368861800+368532495+368466490+368758412+369168049
2628+369295244+368918204+368174446+367455610+367141746+367353337+367874217
2618+368325359+368451260+368246772+367841650+367320530+366674080+365925086
2608+365282609+365061507+365337117+365739620+365792623+365499647+365368750
2598+365740012+366331020+366623936+366471097+366100016+365717649+365358035
2588+365036736+364861595+364942017+365246973+365610078+365854565+365857184
2578+365564900+365060755+364539062+364154888+363982817+364062487+364307065
2568+364455329+364316787+364000996+363759097+363659773+363558763+363397888
2558+363344825+363483397+363577304+363398309+363107530+363039027+363253657
2548+363516926+363595874+363457753+363254018+363169051+363267803+363469612
2538+363622722+363590035+363349099+363068613+363021480+363313763+363703987
2528+363841355+363711542+363643158+363824350+364069440+364147575+364082021
2518+364003013+363910521+363727283+363497664+363381183+363428287+363494172
2508+363443427+363313974+363207125+363175432+363286826+363609479+364045421
2498+364358473+364457707+364491507+364596761+364737921+364840707+364858555
2488+364701262+364362566+364058664+363983028+364067483+364175897+364294665
2478+364397149+364390588+364296440+364261858+364348179+364441363+364387999
2468+364193113+364051020+364106701+364249186+364298487+364289999+364358052
2458+364475134+364520582+364473960+364366930+364191097+364003103+363971861
2448+364186100+364526000+364808953+364936419+364859578+364590590+364305590
2438+364208524+364220141+364068687+363766651+363672595+363963343+364376803
2428+364603442+364636641+364664391+364874176+365334468+365844302+366042770
2418+365857304+365631026+365687039+366038405+366583424+367253621+367888634
2408+368251889+368285118+368167163+368067929+368007642+367983232+368071902
2398+368346036+368778337+369288502+369909218+370931594+372828505+376006577
2388+380768237+387539224+396962316+409708735+426210057+446418969+469745155
2378+495439710+523129446+552600184+582961770+612516904+639312633+661432180
2368+678049953+690935846+702872923+713690587+719480703+716697640+705791729
2358+688916376+666402421+638287728+606768444+576450801+552983094+540537176
2348+540890831+553801284+575903796+599532168+616428710+623692255+624273392
2338+623044902+622825486+623435999+623859722+623839134+623253122+621530600
2328+618252843+613678816+608231940+601967837+594759853+586351493+576310965
2318+564738378+552793475+541841634+532270819+523372880+514167398+504206149
2308+493706654+483199664+473239890+464263606+456390602+449357399+442787889
2298+436526495+430725393+425662691+421404695+417649790+414046009+410574540
2288+407420487+404628726+402152695+400120734+398750723+397964738+397319733
2278+396500459+395701833+395228087+394920091+394381965+393587944+392849364
2268+392355813+392074003+391893594+391650130+391186918+390510069+389778020
2258+389172745+388845457+388846811+389038296+389182617+389141533+388937828
2248+388688645+388528071+388520908+388607109+388658005+388604189+388508477
2238+388500290+388633746+388832876+388963382+388875946+388418062+387601046
2228+386738370+386168972+385863595+385538896+385071350+384540146+383995820
2218+383464165+383048779+382807482+382637968+382437544+382272125+382282388
2208+382512429+382894917+383333870+383741279+384022728+384115460+384096890
2198+384193023+384586197+385240472+385985764+386713238+387394602+387977394
2188+388386098+388627756+388818940+389062134+389340512+389601043+389896908
2178+390333152+390872091+391297619+391430654+391357304+391393121+391748491
2168+392247068+392492278+392314187+391946146+391791501+392076441+392662634
2158+393185832+393451659+393604649+393835231+394123753+394404599+394754130
2148+395205122+395561515+395661230+395720042+396110266+396842194+397603800
2138+398296149+399135107+400200404+401291374+402312517+403500464+405167875
2128+407369952+409877977+412428350+414964065+417636126+420591621+423755306
2118+426861022+429805471+432813427+435966217+438845774+441126317+443130046
2108+445187470+446902257+447696037+447673072+447413625+447290463+447323210
2098+447394212+447428675+447501873+447785640+448334571+448988064+449498861
2088+449674243+449376692+448483316+446923265+444730820+442011235+438890199
2078+435543999+432214292+429128231+426425530+424153716+422301652+420874665
2068+419934186+419460349+419186756+418762913+418157156+417709325+417695088
2058+418026169+418478244+418982450+419514135+419938520+420209193+420539371
2048+421175527+422106856+423091219+423910884+424585596+425336005+426319855
2038+427492121+428810363+430414147+432406409+434597199+436743594+438981367
2028+441707333+445018679+448579330+452145909+455932658+460209585+464726065
2018+468822765+472048602+474408875+476058589+477112117+477758206+478180514
2008+478333293+478081611+477527834+476955968+476496067+475992915+475218126
1998+474240957+473527719+473471556+473887905+474232409+474258384+474177871
1988+474264313+474634822+475345381+476430633+477823338+479298452+480552736
1978+481487256+482461415+484045755+486395313+489081760+491668191+494129082
1968+496503471+498572484+500248443+501914169+503993385+506406209+508719980
1958+510772017+512894183+515397151+518056992+520414285+522418285+524388816
1948+526562450+529117247+532296162+535924262+539126172+541211016+542529920
1938+543895958+545699323+547926171+550534784+553469120+556515542+559383000
1928+561965428+564505718+567294199+570157443+572648252+574847529+577285305
1918+579924679+582003021+583093239+583596120+584190861+585378778+587207908
1908+589126368+590518351+591419853+592317924+593490972+594943573+596637381
1898+598367547+599732261+600668135+601780445+603579477+605438945+605959584
1888+604780456+603258930+602788796+603477143+604607090+605547178+606074800
1878+606336414+606604890+606924714+607279271+608091682+609871270+612121895
1868+613305779+612599072+610780236+608849255+607061962+605406800+604092892
1858+603329300+602963667+602489981+601458214+599986772+598684542+597966458
1848+597846005+598290917+598892280+598338171+595824247+592543661+590132853
1838+588916283+588122292+587226027+586743432+587401921+588751766+589202517
1828+588020018+586154590+584451392+582705694+580579195+578270360+576156983
1818+574471241+573341113+572876878+573106828+573709937+573927246+573157755
1808+571678306+570490389+570641302+572557596+575446725+577501109+577533495
1798+576312169+575594146+576501607+578887674+581156298+581444699+580110625
1788+579167106+579588301+580693327+581648946+582784311+584737204+587025031
1778+588613374+589734473+591982148+596260130+600871660+602941515+602344727
1768+601166321+600832472+601927987+604574103+607742483+609625608+609992445
1758+610265256+611088984+612142422+613751533+616731920+620672079+623673895
1748+624654676+624496660+624428939+625018564+626468696+628672368+630964649
1738+633062254+636073762+640898568+645411195+646161424+644110230+642225479
1728+641407710+641306941+641663846+642533564+644510596+648671857+655314716
1718+662254163+665441204+663891868+660682313+658497784+658376187+660448510
1708+664141442+668000095+670436667+671936582+675012500+680802857+686496599
1698+689033097+689215251+687978214+685549227+683721964+684316163+687303592
1688+691659648+697223968+703856292+708247684+706881826+702355113+699022337
1678+698944743+701992550+706073207+708945000+711097384+714348895+718134710
1668+719735454+718989440+718521954+719764710+721885672+723653642+725307900
1658+727893097+732276904+739081270+747035027+750807840+748996529+746883693
1648+746772571+746777085+744510990+741140049+739142309+739265351+741333761
1638+745233347+749789978+751425877+748395347+744292958+742474544+743338243
1628+745775176+748813110+752134449+754946466+756018505+756069311+757799778
1618+762952354+769935865+774465527+775090066+774270732+774304502+775644234
1608+777181531+777724323+777464755+777484319+778291433+779486634+780612789
1598+781697288+782761140+783420051+783557901+783966033+785574060+788280854
1588+790944788+792348569+792088641+790789963+789558042+789369627+791020395
1578+794928770+799832553+802406313+801765221+800890446+801579033+802507804
1568+801902107+800399724+799164072+798462362+799453737+804653868+814234013
1558+820645116+818607345+813859471+810635529+809026959+808300870+808200944
1548+809071384+811840361+817296267+824828408+832097431+835760204+833249952
1538+827400964+823787611+824274239+827134654+828758995+827802173+826804356
1528+828223428+832068115+836940295+842279961+847992424+852420957+854252193
1518+855373051+857985999+861647568+864601468+866650134+869772464+876784207
1508+889040566+901776390+905194164+899952858+894045058+891261514+892144054
1498+895936310+900348710+903018062+904722585+908021471+913230510+917602097
1488+919356703+920575501+923429716+927486294+930958245+932454548+932411207
1478+933141932+936734215+943017100+949624744+953726289+954502824+953889663
1468+954455148+957016206+959392581+958496076+955131034+952993578+954644044
1458+959907381+964489295+963967632+960341578+957077787+955116286+954225980
1448+953976285+953640750+952541924+951115870+950807785+952447536+955196467
1438+957303945+957593671+956950110+957129375+957937513+958049839+957710452
1428+959020507+962662453+966153486+966761530+965113351+963913335+963804078
1418+962458929+958209360+952454940+947990049+946774743+948386262+950669032
1408+952230347+953028432+952726667+950660484+947617373+945850968+947164334
1398+951266602+955748168+958157531+958137184+957306353+957232191+957981276
1388+958455563+957671505+956116630+955737031+958460379+964741819+972869183
1378+979764205+983203108+983348602+982284450+982385218+984511478+987314044
1368+988754184+988844298+989832724+993104702+997227256+999791805+1000480934
1358+1000491589+1000231179+999913041+1001435349+1006686767+1014174905
1350+1019514932+1019949430+1017219641+1015281195+1016645849+1020878261
1341+1025445607+1028123627+1028861635+1028878972+1029156598+1030716529
1332+1034487475+1039703618+1043957702+1045962966+1047023868+1049066334
1324+1051917960+1053606230+1053671844+1053723132+1054694221+1056111727
1315+1057748107+1060169088+1063249822+1065337555+1065469988+1065590381
1307+1068140663+1072050062+1073741823+1071948932+1069207826+1068021234
1298+1068354963+1069653039+1071260044+1071267749+1068541813+1064866819
1290+1062777521+1062610656+1062556479+1060176191+1054311612+1046603456
1281+1039789699+1034844561+1030925772+1027053936+1022907725+1018685305
1273+1015214377+1013665402+1013967107+1014153595+1011942580+1007720461
1264+1004664768+1004175552+1003499245+999975525+995423469+993125289+992901418
1254+992132108+989722022+986303526+981707828+974943492+966415280+958048274
1244+951059707+944786815+937755147+929616587+921688473+915252509+909882564
1234+904274482+898279638+892799654+887846810+882270090+875644447+869143050
1224+864162576+861027785+859323022+858727077+859011565+859381954+858712510
1214+857073059+855813087+855697089+856350642+857719930+860414805+864057112
1204+866816337+867640426+868007504+870493798+875893540+882135551+886205734
1194+887078222+886741302+888665000+894967930+904096602+911203636+912674717
1184+910672221+910794240+915685201+922605024+927289753+929289178+931419651
1174+935405860+940606051+946487546+953464314+960744594+966283149+969596061
1164+972596553+976924798+981948252+985842782+987585349+987743726+988554994
1154+992457048+999255154+1005813798+1009398076+1010581417+1011603553+1013091008
1144+1013553557+1012332171+1010904311+1009978851+1008250671+1005692322
1135+1005701953+1011256460+1020469046+1028447243+1032660754+1033768248
1127+1033280296+1032440315+1031107565+1026660973+1018188443+1009766538
1118+1006503349+1009864237+1017289710+1025132224+1030992951+1033739595
1110+1033850717+1033096817+1032335693+1031457668+1030944914+1030728568
1101+1029544384+1027350704+1026573689+1029718592+1036662373+1043935670
1093+1047255865+1045234950+1040643646+1038841003+1043916407+1054740090
1084+1064803733+1067701470+1061684955+1048398635+1032162568+1019239473
1075+1013609299+1014452290+1018316060+1022286136+1024468017+1023673905
1067+1021074261+1018825081+1017148248+1014659125+1010469572+1006181298
1058+1004470635+1005354379+1006487156+1006330344+1004716357+1002854360
1050+1003317812+1006487577+1008298888+1005353356+999509785+995232105+995357975
1040+998879829+1002395723+1003919897+1004493871+1006135247+1008039020
1031+1006113155+998689006+990705512+987855391+989413636+990512883+988942599
1021+986295279+984013171+981718061+979007596+976868454+976617736+978498213
1011+982044386+986168746+987960794+984702601+978161354+971943361+966451097
1001+960307507+954346674+951016787+950452806+949747545+945884196+938286020
991+928611125+919011296+911060729+905666104+903250179+903281180+903984757
981+903346253+900808130+897583887+894719258+891867813+888694075+885630076
971+882300790+877741692+872690005+868972273+866741573+864630242+862243754
961+860480841+859628098+858920067+858051552+857770495+858778364+861035069
951+864184186+867847682+871404932+874286054+876736772+879789936+884619197
941+891725087+900101182+907493849+912122294+914175233+915471745+918035271
931+922551510+927632150+931536673+934792819+939495607+946013920+952140414
921+955494741+955943927+955057113+953975382+953084836+953115837+954367863
911+954815303+951471812+944410407+937342079+933578537+932999748+933490228
901+934252015+935699438+937059276+936777075+935581634+935825550+938509469
891+943386947+949748749+955869945+959607964+960553350+960261156+960667723
881+962782123+965843655+968052142+968879181+969964945+973356473+979328683
871+985670620+988873012+987172040+982907062+980406982+981120672+981660273
861+977965294+970524892+963541140+960576947+962435091+968309723+977229272
851+987461224+995413115+997186623+992504423+985392152+980155662+978363313
841+979222557+981235045+983539907+986870817+992304089+999428760+1006483062
831+1010857238+1011481234+1011952331+1016117204+1021434116+1021991173
823+1017442609+1013148194+1012447748+1015421694+1021958908+1030381114
814+1036073050+1036646361+1035410407+1035368631+1035644692+1035967947
805+1037201493+1038595643+1039729383+1042414385+1046808124+1047860840
797+1041670237+1033818332+1031999676+1036590017+1042110152+1043137706
788+1038158857+1029830557+1022504408+1017412752+1012331088+1006467953
780+1001074592+996788303+992990870+989131194+985439225+982311658+979475563
770+975104458+969046166+964734475+964483395+967946437+974410994+982561353
760+989945291+994899941+996892744+995463680+992108511+990550145+993340612
750+999138493+1004711661+1007850184+1007348627+1003303787+998281476+996502069
740+999795236+1006869042+1015277222+1022046554+1025010266+1022183923+1013590397
730+1004170796+998477777+995869886+993356203+990265777+989591637+993388227
720+997596742+996388117+991645961+990413078+994348360+999087206+1001673787
710+1003473360+1007335625+1013760031+1020933401+1028288084+1036236182
701+1043982864+1050728117+1056350827+1060212550+1060387481+1055187591
693+1044876179+1032225654+1021801314+1015681502+1010885530+1005327230
684+1002433165+1005368164+1010049401+1008513549+1000211736+991412640+985945598
674+985466374+990083442+993410741+987062423+974106641+966576065+964341151
664+960252909+955467893+957114447+969137243+986746512+1000994591+1004834161
654+997831387+986423136+974870715+965356364+960560031+959679538+957747533
644+957158330+964916208+975647309+977455249+972014393+966903172+963303304
634+960692584+960261457+958560787+949237018+935563755+929384891+937644265
624+953168268+960709499+955874099+947608403+942044084+938892679+937728901
614+942400447+955781336+970800712+969578122+944455975+914183300+897158479
604+896412103+905172011+911304826+904233368
##END=
