##TITLE=<SNM>
##JCAMP-DX=4.24
##DATA TYPE=INFRARED SPECTRUM
##DATE=29/4/2025
##SAMPLING PROCEDURE=Instrument type and / or accessory
##ORIGIN=Admin
##XUNITS=1/CM
##YUNITS=ABSORBANCE
##RESOLUTION=4
##FIRSTX=4497.3318
##LASTX=599.83466
##DELTAX=-1.4281778
##MAXY=2.2047906
##MINY=0.67982429
##XFACTOR=1
##YFACTOR=2.0533713e-09
##NPOINTS=2730
##FIRSTY=0.69981229
##XYDATA=(X++(Y..Y))
4497+340811381+341334025+341353735+340566010+339570418+339058718+338998137
4487+338795175+338032066+336880392+335941781+335972522+337317143+339180837
4477+339979128+339041040+337594154+337314879+338349136+339441971+339640665
4467+339319300+339601826+341229148+343581263+344809802+343597199+340598318
4457+337877116+337117665+338661561+341499048+343716822+343747882+341871879
4447+339961160+339256658+339156890+338537467+337631339+337702747+338925045
4437+339676079+338493549+336056122+334407871+334525462+335369268+335476177
4427+335023345+335617571+338104577+341081658+341817191+338994363+334357450
4417+331077145+331109831+334300788+338752940+341848483+342123027+340518231
4407+339005510+338224462+337425532+336386021+336030751+336909130+338231835
4397+338948935+338945132+338721735+338744841+339264176+339939070+339884672
4387+338820371+337602543+337141961+337588842+338644928+339734309+339916312
4377+338597613+336452495+334992227+334937336+335326655+334797829+333575792
4367+333265544+334697974+336896125+338113053+337698480+336859434+336935080
4357+337347041+336573424+334968802+334718467+336817460+339714483+341243459
4347+341010627+340201858+339612915+338861939+337449509+335775482+334739454
4337+334785260+335600154+336518533+337081641+337139464+336619898+335736556
4327+335359254+336398939+338649718+340766069+341626827+341508714+341486072
4317+341717887+341085693+338743419+335484508+333168881+333298577+335984133
4307+339586558+341904448+342249501+341620209+340965373+340427635+339986966
4297+339749084+339623103+339299474+338680139+338253199+338896830+340967812
4287+343534992+344898249+344067389+341707350+339544874+338624899+338333054
4277+337451019+335995715+335382534+336641494+339179154+341468917+342462419
4267+342131358+341090831+340014600+339070416+337919874+336629564+336000069
4257+336492060+337699757+339203276+340844937+342026568+342122475+341468539
4247+340647346+339456630+337770875+336502393+336618185+337900919+339208559
4237+339509605+338537003+336775370+335190312+334878352+336281812+338394535
4227+339512305+339248124+338738136+338772940+339092564+339276164+339135061
4217+338611227+338167016+338562286+339553118+339795992+338701068+337316446
4207+336914877+337675896+338907251+339870797+340461191+341267000+342450111
4197+342867588+341522067+339362812+338093547+337898539+337607681+336575834
4187+335436496+335203897+336240331+338073576+339859186+340811730+340556576
4177+339608212+339162347+339827778+340906824+341267000+340549929+339326992
4167+338434187+338269164+338516016+338527714+337987218+337211221+336949943
4157+337717754+339199386+340599421+341484679+341886974+341977511+342112403
4147+342696527+343627823+344322978+344340134+343463933+341592401+339305337
4137+337981094+338407075+339615150+339903076+338837556+337587042+337465852
4127+338617584+340109579+341069438+341505492+341812402+341892924+341451268
4117+340626852+339905746+339672625+339939912+340221364+339766994+338469397
4107+337344603+337492790+338873608+340680670+342468805+344107738+345053112
4097+344531020+342385263+339403015+336782511+335387352+335378992+336270259
4087+337307535+338049425+338589543+339058282+339264437+339138254+338906816
4077+338573839+338001964+337593371+337922109+338650124+338874363+338523679
4067+338318221+338406523+338021587+336743120+335359079+335021749+335985149
4057+337460075+338502112+338724841+338272793+337552674+337047534+337055081
4047+337409509+337671165+337768175+338096304+338714623+339022143+338627802
4037+337905215+337332992+336998448+336971365+337323181+337580743+337112730
4027+336243670+336052609+336881292+337937900+338616045+339305105+340406358
4017+341351239+341241427+340009752+338438947+337366403+337156475+337728582
4007+338767570+339833903+340499740+340504791+339728300+338284752+336875109
3997+336509302+337345329+338222081+338067277+337369944+337441904+338620719
3987+339916283+340454544+340579218+341052514+341749528+341820878+340936665
3977+339666006+338676191+338209338+338332300+339098370+340228302+340993414
3967+340896113+340430073+340619044+341728657+342947501+343433918+343186863
3957+342717311+342343608+342072693+341952925+342220212+342817253+343004976
3947+342181460+340861048+340030043+339908388+339955587+339794541+339562610
3937+339640288+340523717+342531824+345234622+347391061+348008335+347495561
3927+347012656+346843686+346234191+344887132+343728520+343802657+345209513
3917+346977997+347571265+346245773+343960626+342224682+341616116+342073186
3907+343886518+347365836+351657523+355042531+356604047+356285555+354131612
3897+350901062+348284940+347588682+348457858+348801053+346960783+344449684
3887+344266200+346999535+349972523+350987883+350860191+350366197+348827787
3878+346774977+346163683+347563486+349534147+350961962+352132794+353183539
3868+353906532+354436345+354549989+353466791+351027913+348355652+346814948
3858+347311177+350643121+357139985+363648460+364392498+359699183+353918549
3848+349874178+348380006+348786219+349949359+351515520+354079943+357665009
3838+360438199+360382582+358073197+355465116+353317676+351374097+349773161
3828+349023898+349071068+349703030+351467102+354449466+356614961+356447587
3818+355427322+354669989+353168241+350682715+348847061+349061750+351292935
3808+353893237+354843720+354603661+355494956+357732992+358507828+356689591
3798+354699917+354002584+353680870+352938632+352427396+352968153+354489408
3788+356432580+358428757+360343250+362369093+365013836+368114778+370230955
3778+370378474+369892696+371067447+374970598+380875065+386789923+391138766
3768+394384092+397439809+399543823+399938513+399966612+401487257+404500739
3758+407462145+409574142+411724862+415639741+422180205+429108623+432818944
3748+433959964+436118900+440583679+444223695+444618326+444400764+446842603
3738+452723731+460329888+466741875+469736024+469414194+468507630+470112281
3728+474888934+480411832+483383920+483104151+481338077+479421639+477496406
3718+475530679+474143822+474709224+478279051+483372976+485918764+484173125
3708+480884664+479406341+480789743+483417099+484497771+483382410+482271898
3698+482715267+484333184+487124865+492211795+499092231+503542874+501147914
3688+494262312+489298343+488646090+490884881+493841991+495609313+495678631
3678+496030099+498727236+501993491+503013234+503034599+503735502+503291726
3668+500314936+497005081+495022373+493640132+492016322+490797624+490997799
3658+492277572+492886573+492107992+492038267+495501098+502840520+509118166
3648+507716999+500429711+494107710+491887962+492308631+492150489+489936430
3638+487207187+486242307+487483821+489816894+492943699+497710919+502870360
3628+504279190+501089046+496491233+492828692+491202270+492036584+494178364
3618+495697035+496413903+497246475+497989759+498047872+498291356+500132409
3608+503161856+505252780+505222823+504051904+503570160+504985376+508184577
3598+511792836+514119290+514430758+513368692+512378964+513150114+516351753
3588+519565932+518985378+515123184+511907786+511029466+511173908+511305984
3578+512108019+513842018+515076102+514785766+514247419+515582519+519395539
3568+523968737+526424945+525675682+523603627+522503593+522473463+521818772
3558+519902769+518595188+519950955+523364845+526263842+527458157+528004749
3548+528494562+527830641+525231500+521572675+518233909+516071403+515333519
3538+515477439+515381125+514544140+513839231+514356563+515709022+516290969
3528+515404985+514049740+513127762+512427498+512021691+512490314+512953190
3518+511401427+508006986+505496206+505387236+506366282+506976619+507701266
3508+509150271+510342961+510307083+509700462+509807922+510976752+512548427
3498+513705762+514163529+514193718+514124051+513989653+513464890+512015189
3488+509750680+508023241+508106028+509458022+510298607+509785919+508712069
3478+508142429+508392706+509167862+509674221+508922984+506994383+505252721
3468+504503865+503893993+502353435+500058331+497836957+496252277+495489893
3458+495344697+495448151+495817906+496630914+497358000+496965429+495118745
3448+492653480+490915302+490763487+491964363+493411800+493929596+493199666
3438+492040996+491559949+491951649+492312347+491762446+490539045+489719593
3428+489942119+490491091+489953498+488082779+486249273+485547122+485485438
3418+485352085+485657950+486887360+488052416+488010093+487460773+487883184
3408+489056890+489307574+488081734+486832991+487060307+488598833+490092425
3398+490742761+490995360+491333417+491205579+489880755+487863097+486564572
3388+486747621+487893170+488953668+489327138+489152392+488949836+489024960
3378+489141361+488926498+488515001+488396684+488761214+489484410+490577361
3368+492066192+493709334+495347715+497110568+498971708+500588260+501722024
3358+502455728+503029838+503626880+504090685+504132368+503929174+503879537
3348+503766213+502892073+501229366+499877140+500176067+502438602+505297772
3338+506410404+504511993+500742688+497379190+495750039+495887979+497360670
3328+499385643+500644168+500255080+498746104+497222789+496184352+495848211
3318+496555964+497933503+498672839+497937973+496361189+495408732+496163742
3308+498355159+500162656+499758184+497569031+496117182+497148304+499688518
3298+501339729+501185070+500554356+500869887+501925857+502644002+502594655
3288+502075466+501331544+500398303+499413277+498816468+499363001+501530441
3278+504336839+505548165+504232804+502161446+501474070+502138862+502604873
3268+501995291+500780133+499784832+499225003+498872839+498936700+499941407
3258+501540021+502549894+502453348+501737583+500804981+499738910+498781170
3248+498064824+497438290+497014544+497107317+497656056+498340762+498820009
3238+498749297+498250834+498121312+498855771+499752901+499565614+497991384
3228+496103074+495048092+494587248+493489943+491347002+489146586+488014332
3218+488226002+489465310+491216029+492880883+493948696+494154735+493402221
3208+491746133+489780551+488537120+488386815+488552737+488304725+487904665
3198+487731892+487464140+486833049+486180507+485629009+484736117+483476373
3188+482573263+482496137+482713061+482141273+480309567+478137105+477271151
3178+478288368+479949537+480730933+480596593+480359698+479962164+478818675
3168+477180439+475782059+474697584+473408290+471552868+469291900+467196188
3158+465795456+465203465+465226484+465605092+465948577+465909070+465753830
3148+466090174+466666577+466270146+464329731+461838661+460145330+459571191
3138+459694356+460222602+460849455+460841705+459770815+458332492+457531937
3128+457398932+457198090+456641600+456256576+456472804+456958176+457288946
3118+457710022+458467994+458863583+457969849+456064703+454464435+454050616
3108+454445451+454563216+453827045+452682541+451748720+450996264+450186391
3098+449409174+448646123+447723158+447224811+448230330+450508598+452206312
3088+452149476+451272346+450880269+450864188+450542357+450051789+449840206
3078+449629698+448892191+447787338+446826231+446097084+445408547+444823088
3068+444577833+444667499+444844684+444895018+444674611+444078963+443219336
3058+442447751+442020986+441862175+441757879+441648270+441634482+441812654
3048+442131814+442374398+442301684+441854628+441194741+440525159+439900657
3038+439247447+438582161+438144917+438181086+438566341+438772873+438328343
3028+437266800+436039973+435053177+434365452+433849891+433549048+433608236
3018+433850037+433891662+433786379+433881357+433912707+433084983+431350752
3008+429836783+429585403+430357627+430897542+430254433+428735153+427452332
2998+427080864+427256453+427215001+426853432+426778512+427230589+427538718
2988+427109369+426364431+425935228+425630814+425131915+425005848+425966810
2978+427577441+428568098+428251900+427000457+425490262+424115772+423126595
2968+422762994+422967697+423208075+422886652+421921423+420814480+420166118
2958+420114535+420226931+419999586+419428204+418977811+419058972+419627886
2948+420241532+420441213+420093316+419409336+418740538+418381262+418456357
2938+418907825+419540455+419976160+419677726+418423236+416805494+415835098
2928+415919046+416496291+416708889+416165201+415027460+413738253+412817465
2918+412604373+412968641+413389891+413453085+413180195+412811601+412381063
2908+411645385+410517629+409458205+409107870+409501137+409997337+410105755
2898+410055218+410335945+410910926+411164831+410642768+409649353+408986447
2888+409175969+409949470+410424160+409960327+408952195+408406909+408693151
2878+409195998+409191325+408549667+407626006+406897149+406605363+406542373
2868+406371226+406099323+405933401+405897581+405900832+405896303+405800860
2858+405574299+405380800+405384980+405492441+405510090+405424748+405382107
2848+405453341+405491251+405268521+404771567+404166340+403500154+402770339
2838+402178203+401915125+401847491+401778521+401748564+401775938+401698985
2828+401485312+401270797+401033873+400684177+400434800+400637326+401229520
2818+401696576+401666822+401268998+400778691+400233696+399629339+399163038
2808+398956100+398784198+398396968+397952902+397860972+398190204+398419145
2798+397980043+397044306+396411154+396537338+397042623+397245933+396899952
2788+396310602+395884621+395702501+395620323+395605055+395641717+395478784
2778+394895124+394081391+393402288+392940515+392543474+392181992+392034793
2768+392191049+392399903+392301093+391909451+391629798+391694704+391817172
2758+391573688+390989099+390494264+390343552+390345265+390190663+389781663
2748+389204128+388621164+388204878+388048854+388148071+388443892+388805316
2738+388984446+388701339+387902410+386924989+386221183+385915783+385817263
2728+385771341+385731660+385616594+385401470+385207855+385096389+384975518
2718+384770466+384424543+383827095+383059080+382545957+382621690+383069036
2708+383367296+383254697+382783926+382047232+381267113+380948156+381410219
2698+382253039+382709586+382489382+381969931+381632339+381575213+381547172
2688+381290248+380868330+380643395+380808301+381039681+380869782+380312217
2678+379779501+379502374+379410124+379385682+379260138+378827189+378211773
2668+377902135+378168028+378759323+379246436+379343128+378949193+378193515
2658+377406254+376886804+376702420+376698849+376678124+376620213+376693537
2648+376965179+377233336+377297517+377229679+377224396+377342713+377482104
2638+377442510+377044511+376346918+375673591+375303343+375227435+375252951
2628+375213560+375063690+374886331+374824357+374931817+375061803+374963080
2618+374585168+374217620+374158345+374357388+374589755+374796461+375010569
2608+375158233+375158930+375069060+374978668+374895736+374817883+374803283
2598+374896084+375005199+374929553+374587839+374158926+373904759+373936370
2588+374166734+374400059+374538898+374729726+375088944+375331500+375056143
2578+374408825+374002524+374101567+374309608+374184180+373789548+373470795
2568+373396919+373516397+373707719+373802611+373698024+373559736+373626877
2558+373762204+373582174+373109981+372865713+373173348+373753960+374125166
2548+374103831+373835354+373597588+373625513+373902292+374112249+373987401
2538+373642175+373367079+373228036+373110735+373017266+373054625+373220315
2528+373411433+373558546+373634569+373674424+373825804+374170943+374503601
2518+374518521+374198781+373807429+373576195+373584409+373802582+374066385
2508+374146415+374000376+373836399+373820753+373841334+373663278+373219241
2498+372691227+372408817+372627773+373248094+373815383+373958605+373718633
2488+373342057+372995757+372792853+372796075+372896308+372933202+372938746
2478+373070938+373383857+373792132+374155675+374367722+374447722+374475821
2468+374425951+374246125+374056400+374013845+374039709+373920405+373626093
2458+373362812+373346905+373595875+373901914+374005224+373831232+373552014
2448+373429256+373593727+373931958+374190130+374203222+373973497+373556630
2438+373031838+372620225+372639790+373183421+373919215+374363803+374338259
2428+374049027+373805194+373811987+374134397+374649116+375053124+375076607
2418+374750539+374420785+374431815+374793703+375259395+375706857+376204159
2408+376693102+376950026+376942014+376900592+376950549+376929010+376692608
2398+376439313+376544451+377161086+378219233+379817992+382378990+386378252
2388+392138915+399911750+409987613+422642296+437928864+455452625+474431342
2378+494144808+514274008+534641178+554770262+573960997+591559447+606927292
2368+619494718+628953859+635082129+637790820+637702343+635614787+630843504
2358+621597659+607622853+590263012+570215785+548860280+530334106+519059283
2348+517308970+525207349+540020533+555327536+565025226+568743907+569798773
2338+570323420+570507223+570542637+571419216+573729298+576652620+578667955
2328+579012862+577971058+575884373+572522442+567753714+562135519+556267917
2318+550236774+544113903+538268944+532701315+526690607+519599430+511662734
2308+503635704+495972972+488645045+481523477+474620631+467967657+461519211
2298+455323249+449613326+444547383+439963067+435557823+431241636+427200226
2288+423704391+420922231+418793078+417025407+415310451+413545741+411819551
2278+410254058+408929321+407895586+407150358+406611517+406186377+405857580
2268+405622630+405357172+404870000+404153829+403472432+403098846+403009383
2258+402917307+402599540+402095387+401549144+401024207+400565889+400250155
2248+400048993+399848963+399692532+399761851+400035959+400231635+400206961
2238+400175495+400364669+400658545+400758139+400569053+400268471+400068441
2228+400032708+400061503+399988992+399725189+399322458+398910004+398571279
2218+398259174+397833424+397276238+396811214+396622592+396549355+396280878
2208+395771267+395275910+395081656+395294633+395738321+396029614+395941486
2198+395679946+395631470+395910310+396333302+396750633+397164945+397536732
2188+397727880+397730057+397749796+397948142+398271133+398623036+399009859
2178+399427074+399808672+400149835+400500431+400855295+401225021+401727839
2168+402399220+403006654+403290893+403298789+403253505+403198498+403002097
2158+402676957+402487000+402649323+403024738+403239804+403145116+402997771
2148+403090399+403407265+403776585+404103698+404330404+404435310+404534643
2138+404735544+404938331+405006140+405024718+405198448+405576505+405985535
2128+406214853+406285594+406491284+407091171+408042873+409092485+409973853
2118+410504741+410714640+410890461+411277952+411749275+411996097+412057520
2108+412368697+413172387+414148385+414820028+415117330+415321743+415646389
2098+416077421+416475013+416698643+416755508+416879166+417324509+418021116
2088+418564717+418674790+418548346+418614355+419056098+419711602+420291575
2078+420560227+420440342+420097032+419888468+420130936+420819647+421593381
2068+422088129+422278347+422383747+422613646+423068917+423653796+424081693
2058+424214466+424298240+424644656+425259289+425938653+426541471+427068324
2048+427602869+428235731+429025430+429990746+431067877+432096328+432917028
2038+433461965+433781676+434076308+434608443+435479971+436577276+437745322
2028+438907968+440041529+441120489+442125805+443158930+444457919+446079261
2018+447660168+448788155+449521453+450303692+451502884+453170554+455088821
2008+456988452+458746137+460352007+461826557+463272746+464800096+466303905
1998+467600514+468867806+470567290+472741146+474743999+476024382+476876461
1988+477910108+479161231+480297695+481332648+482551870+484031702+485644742
1978+487265475+488780837+490177882+491615450+493223759+495035261+497136751
1968+499507965+501772126+503549666+504951704+506410694+508262371+510618085
1958+513362016+516184495+518746074+520853659+522615814+524486650+526858329
1948+529599821+532428454+535501327+538874461+541720744+543212709+543896312
1938+545023109+547082160+549711489+552469875+555208000+557921800+560534699
1928+562966117+565452862+568372236+571532656+574290403+576602808+579046244
1918+581685384+583988790+585916404+587970114+590215987+592157069+593552547
1908+594761260+596031686+596964927+597174623+597149427+597843363+599586302
1898+601873105+603927105+605152944+605589637+606136229+607630459+609637724
1888+610877439+610876684+610289744+609939438+610342401+611490156+612633615
1878+613006447+612894748+613220613+614329820+616028288+618197238+620308249
1868+620941691+619270276+616376737+613986422+612948101+613058348+613542704
1858+613602560+612840524+611407137+609861354+608896473+608970145+610043822
1848+611817530+613985377+615653773+615133887+612035180+608368981+606043224
1838+605088735+604314566+603035374+602010754+602353049+603773664+604556715
1828+603773142+602178128+600367089+598222755+596048406+594384713+593068945
1818+591697038+590500168+589972618+590048729+590102488+589501325+588168779
1808+586699339+585763370+585584965+586086971+587161112+588548229+589694998
1798+590181792+590418484+591524904+593982853+596204750+595920568+593802649
1788+592553587+593311791+595134847+596787510+597981651+598780377+599093354
1778+599271468+600283548+603003153+607355624+611661477+613713387+613288364
1768+611677791+610035055+609535605+611029951+613703053+615558969+616243500
1758+617134476+618595498+619994227+621725381+624850677+629008605+632164206
1748+633157882+633048216+633363224+634645262+636528115+638292244+639410914
1738+640417130+642857837+647356318+651456016+651889806+649682191+647296520
1728+645442347+644338424+644428526+645878401+648760271+653521627+660290596
1718+667263514+670734182+669382536+665893465+662995455+661787148+662499953
1708+664997206+668428802+671373720+673700233+677036502+682012489+686107078
1698+686973381+685530239+682936324+680182118+678969515+680003191+682361924
1688+685277176+689512434+695176783+698749338+697508346+694470887+692737411
1678+693062579+695263982+698274445+700633410+702530022+704983385+707189374
1668+707355587+706113027+705494505+705840341+705972707+705544374+705892707
1658+708324183+713355264+721145137+729908368+734076920+733230762+733432098
1648+736340093+738086051+734769869+728975766+725312528+725365533+728825635
1638+734895791+741773092+745667448+744680158+742297448+742144298+744844223
1628+749168827+754099763+759901355+766472123+771841899+774706643+776902414
1618+780895349+786288115+790256201+792536908+795348415+799137110+802325571
1608+804013648+805069211+806418418+807920544+808838922+808579531+807404838
1598+806482395+806572614+807050177+807142601+807664113+809978376+813658043
1588+816744500+818339747+819483786+820999961+822130996+822442347+823547838
1578+827066518+831500732+833504049+833696213+835493550+839723118+844271352
1568+846822480+847303818+847047677+847763384+851643459+860448954+872032748
1558+877592365+875112935+872385086+871974112+871981485+871471758+871248535
1548+872029439+874074498+877376283+881136183+883959185+884501364+881998131
1538+878236141+876059122+875832241+875756015+874281988+872333010+871644531
1528+872336377+873520650+875413198+879481256+885440817+890036888+891719740
1518+892965725+895183093+897132361+897963366+898341946+899174750+901744921
1508+907672726+914842219+916929659+914403494+912860266+914547530+918101856
1498+921087006+922373456+922216939+921478126+921733802+924491665+929277114
1488+933403634+935243177+935953311+937098628+938872278+940718150+942591423
1478+944951840+947748949+950652938+953925811+956772151+956546548+953131962
1468+949800278+948565034+948010024+945991844+943304576+941715425+940858121
1458+939119072+936658393+935966489+937923943+941176439+943941211+944496511
1448+942254934+938568300+935218213+933002413+932128098+932842993+935271450
1438+939168941+943379467+945843106+945811698+944365828+942413948+940379048
1428+939087315+939057707+939279363+938660376+938327312+940516465+945654310
1418+950623910+951516918+948481898+944523100+941858125+940735624+940256725
1408+939641977+938565281+936995986+935257865+933929325+933751153+935638476
1398+939870425+944852333+947889269+947469412+944351605+940585493+937988791
1388+937492475+938855442+941560475+945988245+951777471+956811803+959523164
1378+960712545+962554643+966526852+972271840+977554243+980098114+979940320
1368+979280462+980197970+982718038+985218368+986603686+987158464+987155677
1358+986193699+984890936+985013781+987383138+991594825+996966808+1002320560
1348+1006306993+1008870255+1011193283+1013922119+1016487355+1017971251
1340+1018054967+1017855953+1019401736+1023424859+1028419249+1032506350
1331+1035884593+1039665277+1042953999+1043746688+1043047352+1044697867
1322+1049875712+1054967868+1056356205+1055510570+1057089560+1062365403
1314+1067353987+1067700810+1063706367+1059268728+1056931998+1056060935
1305+1055375301+1055486999+1058419842+1064219576+1069377566+1070639575
1297+1069090076+1068239913+1069334838+1071242538+1073011254+1073741823
1288+1072519060+1070371707+1069907380+1071603759+1072303094+1068843921
1280+1062027288+1055337797+1050616499+1046681853+1042235506+1037967737
1271+1034554544+1031132991+1027642352+1026170183+1027705749+1029921143
1263+1029817804+1027187198+1023832524+1021226534+1020157618+1020805168
1254+1021774809+1020261188+1015168453+1008943056+1004255895+1000246009
1245+994564591+987251701+980767958+976054440+970691108+962617227+953484764
1235+946378725+941676586+936601673+928280303+916678860+904868534+896684058
1225+893552491+893456874+893201546+891352017+888219580+883769982+878113296
1215+872950894+870392567+870783221+872290572+872982882+872907759+873325932
1205+874569711+876024869+877476138+879335246+882184315+886508455+892017971
1195+897189314+900323667+901151130+901123264+901923325+903755031+905551033
1185+906796205+908203178+910659676+914508226+919548712+925064324+930399847
1175+935637141+940988688+945955269+950043240+953681166+957971576+963501004
1165+969045179+972787604+975932756+981172023+987351440+990982805+992317151
1155+994286970+996874616+997715722+997406403+999342899+1004861065+1011788003
1145+1017001378+1019504610+1020623919+1022596525+1026549633+1030307675
1137+1031042889+1030507618+1032564057+1036395249+1036891738+1032430645
1128+1027199389+1024774299+1025137378+1027333033+1030758069+1034389899
1120+1036790025+1037880306+1039398919+1042412110+1046004578+1048076924
1111+1046406902+1039843507+1031656767+1028722531+1033272449+1040697270
1103+1046328411+1048407840+1046021879+1040080257+1034608536+1034102873
1094+1039333200+1047655790+1055566071+1061302292+1064976270+1065954852
1085+1063949270+1060950012+1059129279+1058935258+1059315521+1059333982
1077+1057558300+1051398738+1041138143+1031318420+1026500751+1028157652
1068+1033557965+1038497899+1039984582+1036406395+1030365731+1027848216
1060+1029964104+1030353771+1025002689+1018142282+1015813332+1017491830
1051+1018181876+1016332115+1013876023+1012292388+1012393172+1015556727
1043+1022007611+1028188886+1029168396+1023783758+1015230107+1007938465
1034+1005378106+1008542474+1014857624+1018957380+1017310349+1011632763
1025+1006118545+1002590286+999730825+997623879+999084320+1004961849+1010871656
1015+1012358571+1011556130+1012358455+1013638345+1012742550+1011172964
1007+1011199786+1010605414+1004690382+993650683+982757400+975692638+972116426
997+969196529+964255318+956770352+948962016+943635898+940871416+937644697
987+931515672+923712620+917100226+913029730+910722434+909085039+907976878
977+906772519+904556370+902149973+901179461+901507707+901035368+898624675
967+895926144+894599985+893467556+890525773+886355886+883260546+882094619
957+881904546+882012645+882580485+883624321+884840059+885875071+886182706
947+885397391+884314832+884830945+888588638+895714184+904208153+911002841
937+915099230+919124095+926271876+936167593+945105628+950195055+951696484
927+951242432+949985939+948810143+948731014+950505419+953939977+958120430
917+961965787+964246320+963653284+959465341+953345431+949303208+950262573
907+955004190+959509986+960907786+959504238+957095288+954296205+951459618
897+950045795+951310299+954739922+958617036+961933683+965156338+969233046
887+973859481+976621989+975722595+973121016+971510908+970999614+970925361
877+972181854+975241083+978225479+979977243+981860328+984249192+985180284
867+983251103+979327951+975843002+974671908+975236671+975352782+973911034
857+972397994+972990160+975347557+977220773+978402664+981233678+986263598
847+990959699+993795473+996825152+1003112320+1012576627+1020526502+1020851728
837+1013409258+1005859966+1003754529+1003660827+999048210+990713544+985824467
827+988717948+997448551+1006070823+1008471530+1003866808+998109454+996998274
817+1001287639+1008482444+1016768459+1026829809+1039143707+1050902713
808+1057722364+1058318013+1056213388+1054203626+1051848319+1048249697
800+1045538858+1044327590+1041251699+1033082027+1021695737+1014885491
791+1016244568+1021873619+1026662957+1028801718+1029272315+1026527921
783+1018504780+1007400408+997283326+989793250+985407048+986677417+992908503
773+997131104+994185606+985688269+975600446+968359545+968603726+976936998
763+986656168+989360853+985264581+981762330+983158215+988049963+993920757
753+1000324151+1008174170+1017506808+1026142897+1029572926+1024593631
744+1014204152+1005735495+1003372176+1006093813+1010858884+1013880900
736+1013273757+1012229340+1015338439+1022105028+1025655928+1019802086
727+1008559658+1002211997+1005037901+1012554102+1018248988+1019055610
718+1014889090+1008132254+1004258798+1008524012+1021358203+1036398384
710+1043989475+1042571414+1038888612+1036319660+1032118191+1026845019
701+1024773719+1025050643+1022795887+1014183369+1001675217+991752852+988844393
691+991586581+994273501+992879940+988950866+985123738+981064853+980771093
681+988333737+998023300+1002432607+1003097574+1003163757+1002124217+998355144
671+988132750+970019523+951618457+946191729+954109440+959806417+954234840
661+945268648+943478510+949581409+956902311+959721482+959757708+963090320
651+968397977+966670249+956320887+944796019+940221834+944819880+954717571
641+966945663+979963774+985588994+973042525+948730375+930090818+926515941
631+935219490+946026677+950215084+948003348+946055763+946837827+946046010
621+939892428+930878804+927079078+928526341+924878895+913855510+902070205
611+893671505+888989395+889232299+895042889+900478094+898231060+891817099
601+892129786+899353155
##END=
