##TITLE=<SNM>
##JCAMP-DX=4.24
##DATA TYPE=INFRARED SPECTRUM
##DATE=29/4/2025
##SAMPLING PROCEDURE=Instrument type and / or accessory
##ORIGIN=Admin
##XUNITS=1/CM
##YUNITS=ABSORBANCE
##RESOLUTION=4
##FIRSTX=4497.3318
##LASTX=599.83466
##DELTAX=-1.4281778
##MAXY=2.0584013
##MINY=0.4335669
##XFACTOR=1
##YFACTOR=1.9170356e-09
##NPOINTS=2730
##FIRSTY=0.45681295
##XYDATA=(X++(Y..Y))
4497+238291317+237918523+237442969+236937909+236751854+237408892+238678227
4487+239303567+238482984+237146397+236720467+237308294+238033455+238380987
4477+238294846+237725798+236867113+236145341+235559084+234811630+234144814
4467+234214304+235356022+237434870+239856337+241468587+241263690+239439781
4457+237169048+235438540+234484821+234045070+233891879+234154623+235070596
4447+236450525+237623676+237887773+236932375+235180740+233799520+233842583
4437+235140942+236386320+236500350+235628186+234565132+233645335+232701394
4427+231911391+231925305+232938596+234273753+235169127+235425466+235038431
4417+233965599+232615192+231839273+232097944+233116754+234338440+235175376
4407+235203235+234642940+234228234+234359660+234698673+234576232+233699622
4397+232637376+232340229+232885149+233335284+233221052+233109525+233362412
4387+233576590+233452564+233120749+232624317+231929129+231259095+230858007
4377+230658800+230491446+230428640+230721683+231429308+232261379+232846035
4367+232956738+232530668+231890637+231794625+232647932+233756738+233947099
4357+232925631+231625732+231118558+231382748+231398667+230605446+229750646
4347+229729193+230189464+230027692+228834362+227242323+226195965+226165277
4337+226788021+227358265+227751534+228453204+229589869+230498660+230488120
4327+229663464+228779656+228461786+228821832+229766628+231229542+232784084
4317+233478821+232764045+231351283+230422671+230218722+230202585+230274595
4307+230771384+231554796+232166906+232566657+232818021+232622498+231952775
4297+231456110+231622654+232150520+232518091+232755075+233190862+233641821
4287+233410978+232276101+231023650+230568679+230950381+231551904+231931368
4277+232085398+232066976+231716584+230967995+230249021+230163767+230783790
4267+231639335+232357096+232842615+232938643+232484076+231721076+231183587
4257+231171850+231522398+231761698+231524326+231059219+231217120+232392728
4247+233664969+233903865+233452859+233471810+234033084+234188482+233596769
4237+232904488+232720096+232994981+233300555+233383446+233428996+233715230
4227+234115416+234280391+234146928+233902249+233678184+233498627+233332129
4217+233207449+233320422+233745653+234093216+233959054+233645615+233740212
4207+234132144+234260678+234128584+234145777+234235649+234028840+233689050
4197+233739248+234215719+234665000+234846189+234909757+234967821+234913566
4187+234746632+234698035+234799893+234700694+234209330+233594468+233115292
4177+232842490+233039350+233943321+235113332+235679861+235289531+234336248
4167+233418953+233014461+233326874+234016217+234471685+234588809+234825311
4157+235372096+235804929+235746585+235349741+234953052+234746181+234835074
4147+235241696+235717965+235799628+235211039+234182513+233330419+233174600
4137+233746788+234649532+235396923+235716674+235770448+236073969+236867190
4127+237614971+237524633+236526328+235323219+234547456+234301953+234406640
4117+234615937+234695113+234676799+234846640+235226352+235473627+235447432
4107+235360095+235295750+235132734+234968474+235131972+235783305+236766421
4097+237732203+238365767+238656214+238802362+238747345+238174846+237149475
4087+236267595+235859884+235539138+234899201+234252361+234206765+234752664
4077+235238043+235172236+234683935+234198525+233890807+233563018+233112898
4067+232935829+233472680+234512431+235470145+236122581+236547175+236670642
4057+236416417+236012997+235816558+236056215+236779153+237770385+238608892
4047+238981934+238827376+238167912+237083654+235861610+234946399+234630037
4037+234848816+235367417+236025683+236632756+236852717+236499060+235830565
4027+235364121+235432570+235942931+236479954+236679876+236509911+236196736
4017+236010588+236101765+236396347+236649079+236685706+236569997+236571303
4007+236972826+237797357+238783427+239651534+240141887+239918273+238915568
3997+237636611+236706351+236333930+236454645+236962254+237555802+237924850
3987+238224500+238783800+239313485+239006357+237654302+236172888+235645411
3977+236232166+237335717+238432133+239390624+240280667+241117526+241645143
3967+241519360+240926434+240602128+240968315+241685329+242161505+242076950
3957+241408081+240420907+239731549+239871432+240636889+241236935+241152784
3947+240583053+240030266+239854907+240245890+241065291+241712551+241665741
3937+241079314+240544530+240499462+241000511+241750592+242239406+242105399
3927+241490895+241023394+241262772+242012667+242546036+242655651+242833032
3917+243286976+243531018+243240789+242769262+242505352+242288143+241716297
3907+240875878+240493305+241176445+242586301+243851189+244720477+245434507
3897+245761098+245246322+244213116+243717726+244318519+245144014+245210613
3887+245130955+245968078+247190915+247440149+246999170+246978602+247102504
3878+246430698+245252929+244507481+244504822+245172167+246372011+247308318
3868+247192547+246556061+246404611+246793698+246986702+246447099+245068538
3858+243226937+242126371+243574081+247849041+251550741+252180713+250752265
3848+248588722+246427277+245022117+245007846+246286088+248204144+250180186
3838+251609878+251838374+250887142+249595966+248832795+248880428+249551908
3828+250532941+251358421+251733562+252210546+253527623+254909417+255023727
3818+254570855+254982002+255821923+255525647+254029495+252520581+252066123
3808+253044265+254690731+255882055+256818829+258287868+259719861+260132748
3798+260066895+260295391+260513798+260414365+260674077+262033843+264330274
3788+266989052+269744650+272389530+274606147+276590165+278958201+281684915
3778+284098220+286180675+288752427+292476357+297514924+303613264+310018763
3768+316026781+321475670+326125834+329663989+332698639+336532139+341756169
3758+347837285+354194871+360760339+367576751+374862436+382945758+391069002
3748+398002973+404059868+410216941+415967361+419973110+422268515+423831576
3738+425650930+428738343+433541045+438962635+443061257+444875387+444782670
3728+443598932+442097620+441029544+440852412+441189357+441165168+440503093
3718+439651356+438882044+438223390+438179612+439658974+442760721+446289548
3708+448839380+449813339+450182216+451690307+454419290+456436638+456938714
3698+457409790+459309517+462590229+465896873+467761248+468507085+470497166
3688+474551357+477977145+478620409+477273407+475754869+474941376+474633346
3678+474434015+474153626+473547859+472237390+470460601+468888430+467599569
3668+466059361+464163023+462718795+462434645+463034753+463941492+465284888
3658+467245430+468960688+469297197+468530684+468039056+468853171+470738005
3648+472272711+473085022+474053479+475056137+475017551+473677669+471964681
3638+470545638+469541208+469502063+470974771+473520032+476523777+479859056
3628+482659427+483615074+483091421+482817686+484180452+487219953+490641917
3618+492926067+493769440+494293745+496063787+499605269+503792286+507167488
3608+509237537+510001003+509528714+508652228+508439372+508897234+509822970
3598+512439742+518103571+525494938+530908070+532205979+530924611+529719296
3588+529551336+529899257+530640554+532044300+533704431+535069685+536359820
3578+538089721+539980618+540951997+540468391+539502733+539708251+541801744
3568+544712958+546334162+545687509+544144035+544060895+546508029+550030390
3558+551836902+550555224+547292980+543992182+541743477+540848833+541442630
3548+543118370+544576215+544998508+545273798+546370229+547495079+547217302
3538+545438213+543317856+541937741+541411476+541198930+540977119+540829370
3528+540417959+538887171+536314301+533950058+532832733+533142721+534593043
3518+536617946+538403627+539365803+539556024+539478978+539572628+539810980
3508+539868562+539637983+539184909+538232123+536621055+535387259+536164375
3498+539254618+542973356+545201913+545391761+544497677+543362194+542264394
3488+541723081+542238152+543265249+543650293+543311824+543421890+544298439
3478+544614832+543681199+542711498+542494911+541937989+540168290+538235730
3468+537651199+538348843+539089830+538894758+537566566+535789715+534573952
3458+534130330+533782721+533270199+533073821+533033464+532092679+530087675
3448+528405219+528016755+528076452+527391742+526084755+524861903+524014084
3438+523800730+524623240+526440759+528823657+531301074+532996775+532716262
3428+530170566+526652683+524025152+523445347+525014938+527912472+530609960
3418+531622194+530565187+528370396+526435100+525653010+526248672+528093490
3408+530466003+531589174+529696660+525258949+521003312+519227083+520022139
3398+521988123+523726420+524636050+525145525+526036748+526950794+526320930
3388+523508340+520267767+519019854+520189414+522180210+523634884+524673982
3378+525707297+526538823+527279499+528727520+531069190+533219892+534146623
3368+534076106+533791551+533602200+533669732+534617419+536930981+540070288
3358+543015952+545533603+547974394+549859197+549873002+547772918+545249794
3348+544193534+544850759+546120124+547041259+547464857+547462245+546930011
3338+546024796+545191030+544543880+544048458+543955182+544411490+545434917
3328+547090508+548899446+549718971+548977301+547371892+546002472+545381874
3318+545164229+544410681+542734817+541487154+542551809+545748947+548867110
3308+550191136+549748944+548232272+546149973+543969609+542116769+540865312
3298+540195464+539779390+539352309+538952278+538672885+538524575+538810747
3288+540205787+542931817+546164586+548791121+550572076+552002748+553044955
3278+553070885+552415153+552548165+553940220+554974094+554114087+551874773
3268+549528066+547496260+545962176+545434295+545839860+546449763+547110718
3258+548145090+549117091+549319189+549068960+548933647+548342898+546670392
3248+545084820+545319689+546987967+547941748+547198087+545807960+544930168
3238+544698718+544719363+544490401+543833177+543499621+544765753+547830873
3228+550986596+551874337+549762500+546290820+543591405+542421720+542482909
3218+543379294+544542947+545214349+545098749+544377164+543124277+541541192
3208+540344022+539997781+540028375+539679149+538824614+537886566+537155964
3198+536465906+535533579+534441065+533435236+532357957+530969819+529885327
3188+530178588+531762792+533159884+533231396+532267044+531179256+530509408
3178+530294064+530078658+529060205+526871011+524179680+522251100+521932530
3168+522862868+523633765+523114341+521526965+519783849+518358868+517348779
3158+516949152+517291352+518010730+518216248+517119537+514894338+512661491
3148+511500388+511728697+512884048+514034176+514399539+513899702+512920301
3138+511690982+510273059+508988582+508391086+508551552+508451031+506767239
3128+503678147+501033764+500218468+500771440+501548774+502195209+502690755
3118+502455450+501036190+499181888+498306770+498985915+500311309+500691067
3108+499384018+497215625+495660834+495544083+496703165+498229693+498793704
3098+497594575+495376932+493772113+493429665+493496700+493082149+492365041
3088+491973529+492052845+492269402+492230941+491659437+490607716+489648028
3078+489329458+489393601+489116322+488445541+488144601+488689147+489551020
3068+489849598+489439866+488912637+488628798+488339797+487775693+487026311
3058+486272266+485582457+484973798+484384043+483616908+482473777+481057874
3048+479973195+479847303+480387964+480515939+479827498+479092139+478964879
3038+479195116+479334999+479247910+478764925+477714604+476383955+475327788
3028+474770431+474468185+473999596+473157747+472156924+471359691+470772331
3018+470052580+469169347+468711765+469187940+470219451+470816077+470415425
3008+469255596+467803005+466377122+465265424+464643271+464396773+464317240
2998+464297838+464272654+464304585+464591969+464982983+464834394+463805775
2988+462415616+461456674+461266577+461697669+462310712+462562153+462190572
2978+461353977+460248529+458948537+457718970+456998162+456885297+456957213
2968+456701232+455969324+455012217+454194059+453725906+453671557+453996873
2958+454376632+454211347+453257317+451998616+451016914+450414878+450150253
2948+450399425+451172810+451937240+452085269+451647617+451181049+451007089
2938+450885954+450502185+449914451+449336915+448842458+448537382+448580103
2928+448756426+448499574+447564044+446286595+445054229+443901272+442743402
2918+441667647+440859999+440525044+440863761+441726535+442425952+442446815
2908+442085338+441813469+441472326+440660605+439422145+438115624+437071676
2898+436577747+436735882+437303841+437898788+438167704+437794163+436764082
2888+435583920+434847006+434644846+434675191+434742133+434790015+434586548
2878+433803836+432456740+431006294+430013585+429796096+430286232+431047864
2868+431469037+431105571+430005999+428754387+428036471+428061748+428551293
2858+429207678+429874231+430391634+430661514+430683682+430305509+429265541
2848+427684695+426155648+425174568+424739217+424558167+424409050+424256947
2838+424144798+423969936+423480484+422681542+421995713+421681154+421376980
2828+420643456+419703542+419198824+419393336+419958435+420392822+420414898
2818+420002368+419265485+418409085+417674192+417087298+416377465+415366351
2808+414280335+413478625+413044922+412798766+412560103+412263826+411883694
2798+411414297+410952953+410607271+410257765+409637851+408732356+407880495
2788+407411315+407362438+407586674+407948711+408288796+408311058+407836157
2778+407128874+406576399+406138560+405547375+404835460+404208612+403702837
2768+403309460+403074839+402939029+402797933+402638306+402414225+402101097
2758+401912088+402031730+402223631+402065372+401386165+400271172+398975813
2748+397934819+397465671+397397019+397277532+396911796+396411649+395857992
2738+395259034+394718311+394318840+393945486+393504258+393167780+393090361
2728+393033213+392612506+391863062+391266125+391169926+391347898+391263731
2718+390768839+390315236+390311287+390518578+390363522+389630526+388579707
2708+387592813+386900765+386464698+386034353+385463098+384903067+384557634
2698+384398598+384261886+384072100+383877619+383743985+383632644+383368424
2688+382806061+382071262+381526435+381379805+381386210+381104298+380418935
2678+379600777+378933914+378552912+378504408+378688691+378841757+378750689
2668+378443468+378168458+378226694+378687572+379182496+379133899+378318477
2658+377139745+376224363+375802008+375660259+375609735+375645646+375694647
2648+375605879+375378036+375114251+374880656+374744566+374709494+374572907
2638+374082864+373222919+372206581+371277922+370603846+370296065+370451432
2628+371013142+371589932+371711253+371364172+370992248+370884079+370839306
2618+370544615+370072513+369776361+369759758+369737714+369444266+368904414
2608+368314566+367907415+367842899+368018010+368109296+367900855+367426296
2598+366852399+366441921+366486849+366999837+367539099+367582068+367082356
2588+366475780+366151863+366119776+366165357+366102924+365865411+365532011
2578+365277429+365207689+365281253+365405311+365535027+365638657+365574918
2568+365157289+364495370+364067822+364188366+364613271+364917756+364976364
2558+364868972+364650768+364380453+364131032+363939132+363854686+363895261
2548+363920508+363779288+363535899+363308305+363006525+362500905+361935091
2538+361630917+361744777+362147792+362594959+362940858+363192020+363372417
2528+363422599+363315425+363175821+363149642+363191398+363136148+362988429
2518+362961441+363175137+363478689+363662133+363716077+363777484+363915751
2508+364087752+364242902+364350356+364345039+364171266+363896878+363651002
2498+363451328+363255293+363127193+363151414+363254733+363302428+363288530
2488+363319218+363505118+363860842+364193372+364206369+363831553+363305258
2478+362876218+362618682+362516358+362550839+362709937+362985289+363333551
2468+363637228+363771608+363731903+363642980+363580049+363426797+363040477
2458+362550186+362308507+362475006+362836607+363145133+363414173+363698106
2448+363814546+363591149+363235673+363130396+363350030+363639000+363758891
2438+363665522+363479498+363439949+363730380+364229439+364596108+364670947
2428+364607083+364562155+364496831+364349392+364194398+364155253+364299614
2418+364599746+364899038+365039170+365079839+365209368+365453970+365720305
2408+366053332+366574808+367224820+367779223+368069188+368078857+367908473
2398+367702177+367560987+367517583+367597365+367863731+368373237+369066062
2388+369666202+369704196+368736331+366595516+363395922+359311199+354434529
2378+348859033+342787090+336461311+330024005+323581382+317408855+311899088
2368+307252780+303454757+300617417+299023325+298748938+299580402+301419655
2358+304539435+309329483+316087659+325011027+335426193+344832017+349957703
2348+349091571+343409118+336553157+331997109+330304859+330063585+330356130
2338+331091520+332191994+333294488+334035195+334518459+335338171+336873810
2328+338782584+340481611+341899069+343523413+345841266+348853996+352099544
2318+355006841+357231698+358880356+360469348+362447831+364738199+366939239
2308+368868627+370624087+372245633+373633335+374756661+375723283+376632540
2298+377488101+378296091+379184796+380289094+381495498+382508883+383261809
2288+384002329+384843868+385485733+385545181+384987824+384136305+383394043
2278+382978778+382821078+382723822+382604864+382491533+382369279+382217488
2268+382119765+382174643+382337534+382433080+382322392+382075273+381939245
2258+382071510+382380814+382743348+383228105+383930475+384725842+385382569
2248+385837882+386193793+386483447+386610303+386524582+386305849+386032612
2238+385700703+385274462+384711757+384016165+383327848+382794339+382336633
2228+381768238+381109272+380556859+380227905+380118399+380189289+380346770
2218+380472879+380533758+380527415+380400404+380204461+380220505+380690990
2208+381497208+382269536+382768782+383089465+383519158+384172372+384801271
2198+385140144+385336211+385717151+386270093+386752114+387176925+387778339
2188+388576566+389318144+389821960+390148645+390399154+390554459+390637443
2178+390840288+391289134+391831628+392237784+392457388+392562355+392610268
2168+392657901+392803536+393164018+393765836+394407981+394736842+394596555
2158+394256096+394193259+394646302+395397705+396019142+396308889+396404311
2148+396500852+396641046+396797222+396974851+397158356+397272713+397297027
2138+397352029+397574026+397950427+398383789+398842148+399328677+399789151
2128+400178611+400578269+401122411+401783927+402330494+402615733+402840995
2118+403338189+404138157+404957310+405599765+406191852+406971082+407953499
2108+408898108+409574703+409956203+410158581+410322032+410525188+410716622
2098+410805048+410853365+411018153+411293411+411500982+411513232+411363399
2088+411203182+411216303+411485809+411926757+412398424+412821805+413137234
2078+413269313+413222427+413101043+412960693+412774203+412612897+412695322
2068+413152656+413862799+414587121+415184337+415647143+416008869+416307664
2058+416643303+417148238+417811930+418454852+418980651+419494758+420075963
2048+420652410+421189402+421758853+422373979+422985996+423642878+424433830
2038+425298905+426076705+426720405+427363389+428222526+429471370+431075785
2028+432718100+434090474+435326602+436858913+438731186+440392529+441434208
2018+442232217+443483239+445318636+447310519+449204556+451162332+453294845
2008+455378202+457133723+458538402+459790449+461105147+462531061+463871006
1998+464846240+465424989+465906823+466603130+467548951+468645849+469951468
1988+471595711+473504952+475436144+477219275+478826208+480335698+481940672
1978+483825101+485961096+488154550+490281653+492349806+494374771+496374832
1968+498506786+501004351+503821139+506505381+508685745+510530439+512458149
1958+514580401+516739405+518879474+521039037+523199782+525439656+527985041
1948+530869392+533834458+536757550+539779452+542830519+545524959+547797667
1938+550115333+552839436+555815011+558711177+561409908+563933467+566327558
1928+568759830+571425479+574168485+576465258+578067433+579431505+581194800
1918+583442572+585692333+587510661+588866276+589914141+590822155+591804105
1908+592963654+594087944+594909894+595501203+596145618+597023783+598212372
1898+599674197+601090691+602032781+602411607+602486477+602470682+602431195
1888+602500468+602873698+603568544+604383654+605114505+605676836+606044904
1878+606266840+606427088+606414403+605988192+605211698+604446336+603844082
1868+603203336+602356512+601304791+600035301+598567692+597039391+595575887
1858+594225495+593000902+591792290+590415408+588954204+587768228+586955418
1848+586209332+585407903+584772069+584147491+582946777+581229437+579746344
1838+578824153+577887037+576295309+574322080+572793158+572042470+571593190
1828+570868930+569812048+568528380+566934040+565038915+563140494+561578676
1818+560489955+559789202+559381771+559343715+559702268+560129412+560232078
1808+560063559+559917488+559905549+560083644+560567499+561289271+561991144
1798+562520518+562890576+563287062+564148375+565730589+567434560+568450836
1788+568973494+569868947+571605813+573828027+575948694+577856194+579685714
1778+581321531+582637846+583928852+585661303+587857089+589995354+591647339
1768+592687245+593061345+592991263+593039891+593599922+594503023+595479750
1758+596779959+598703502+600924161+602994770+605107975+607647204+610281823
1748+612237329+613311126+613897647+614486220+615478617+617045472+618906023
1738+620689590+622689806+625561720+628854248+630797442+631025720+630872311
1728+631302253+632420635+633994890+635755697+637356380+638561447+639460817
1718+640372251+641640746+643361631+645315520+647250567+648968405+650281113
1708+651227929+652213487+653553493+655097838+656824319+659183836+662130309
1698+664706351+666557263+668041288+669350887+670729635+672517616+674578960
1688+676364516+677880940+680063729+683564885+687176044+689395398+690429023
1678+691570538+693881675+696928141+699161983+700335274+701818926+704472947
1668+707433163+709475602+710635897+711513316+712389615+713402782+714693850
1658+716036779+717031726+717896459+719678782+722657964+725117286+726409225
1648+727268610+728045104+728426293+728189309+727576546+726851044+726186419
1638+725983139+726825362+728362368+728908469+727821614+725985502+724151193
1628+722553868+721426407+721041735+721106220+720782987+719897049+719403244
1618+720239373+721964424+722945691+722953028+723321905+724473929+725275670
1608+724794426+723919495+724249444+726107134+728389915+729978783+730922304
1598+732085521+733922131+735985402+737643481+738939897+740424358+742462320
1588+745181572+748682666+752560284+755516583+756485723+756112680+756127418
1578+757455174+759181158+759192663+756820336+753348655+749970624+747277863
1568+745530114+744602761+744019225+743209401+742068196+741283805+741603121
1558+742091391+741239654+740008843+739929309+741289029+743164566+744282389
1548+744164239+743708366+744461852+747197459+751165866+754558386+755856979
1538+755742871+756197313+758189943+761487756+764793529+766799094+767820033
1528+769482341+773047547+777928134+782389103+785690337+788400074+791244876
1518+794714940+799236414+804641339+810015606+814701744+818845635+823045555
1508+828201805+835066939+842342114+847573296+850536310+852709461+855644492
1498+859882655+864846072+869913896+874764386+878731177+881090756+882163620
1488+883602126+886717678+891221492+896039709+900238944+903187531+904979555
1478+906891905+910343687+915164640+919926393+924239364+928957899+933612198
1468+936443071+936869779+936052492+935337188+934790962+933881269+932522296
1458+931081365+930181808+929956950+929651066+928640635+926613431+923535128
1448+919771244+915996726+913435857+913594240+916802198+921369750+925178407
1438+927802828+929750747+930577735+929753670+928079672+926793019+926321787
1428+925986055+925079783+924089313+924219838+925786506+928076438+930558520
1418+932902428+934451187+934809990+934289011+932916420+930209915+926721134
1408+924313860+924057724+925222558+926875662+929138855+932037198+934425630
1398+935274257+935417903+936545302+938705953+940175925+940008152+939085339
1388+938354115+937778041+937712499+939345704+942663790+946116256+949237217
1378+953452434+959074755+963775754+965615660+966135831+968306742+972772686
1368+977363495+979487645+979137734+979051174+981483011+985513789+988834735
1358+991256560+993932843+996589849+997617504+996843809+996401057+998020582
1348+1001273312+1004986268+1008797412+1012438731+1015259218+1017903414
1340+1022260224+1027971406+1031817373+1032124874+1030251016+1028368079
1331+1028135945+1030269671+1034540418+1040212859+1046103318+1050666393
1322+1053253877+1054829251+1056350027+1057285402+1056923738+1056291947
1314+1057311270+1060099111+1062549541+1063310924+1063320128+1064036738
1305+1066136076+1069483575+1072710187+1073741823+1072648376+1071915101
1297+1072806697+1073499429+1070910826+1064051662+1055722464+1050058107
1288+1048037619+1046390236+1041737989+1034300014+1026849106+1021734395
1280+1019041260+1017367324+1015920920+1014698690+1013657541+1013132333
1271+1013494121+1013239974+1009938864+1004046229+998157263+992995106+987695956
1261+982771653+979408982+976970056+973884228+970003687+966021536+961658196
1251+956019211+949078399+941832636+935194972+929221249+922881572+914953151
1241+905594992+896385701+888744571+882822337+877763405+872359227+865873665
1231+858981420+853383786+849976902+847903308+845894697+843895537+842533517
1221+841678298+840796464+840301292+841129274+843187073+845444981+847360813
1211+849142949+851048957+853346538+856426272+860391446+864866593+869434953
1201+873937088+878101065+881354728+883436343+884778029+886014562+887600383
1191+890228224+894844902+901293339+907435022+910737561+910939971+910453566
1181+912057794+916764514+923772298+931802825+940212365+948553751+955790933
1171+961339316+966297074+972177521+978873887+984558267+987454806+987881763
1161+988447079+991357050+995428435+997134582+996073285+996560311+1001541264
1151+1008414979+1012593631+1012482135+1009610345+1006303764+1004477974
1143+1004363742+1003778278+1000807988+997631931+998534970+1004335137+1011600861
1133+1017179342+1021903287+1028150061+1035091308+1038814710+1037043643
1124+1031569942+1026121302+1023305292+1022731083+1022325518+1021884197
1115+1023411316+1027611173+1031901944+1033149918+1031768310+1030905691
1107+1032379953+1035877440+1040729361+1045634822+1047760278+1045452250
1098+1040654864+1036262547+1033963411+1034977760+1039509681+1045338701
1090+1048651874+1047107717+1042379543+1038066075+1035627398+1034155561
1081+1033010625+1033010688+1034176765+1034388502+1032536098+1029998610
1073+1028073886+1026256429+1022600185+1015601107+1006293814+997154170+989980168
1063+985753820+984840272+986540947+988917627+990296561+990487715+989666449
1053+987802291+984940886+981394087+977920665+975961864+976891455+980291686
1043+984151582+986812692+988777837+991338146+994325287+996798228+998302961
1033+998476206+996686359+993417274+989945469+986641934+983743095+982499971
1023+983939907+987437768+991364201+994732842+997318274+998498903+996867314
1013+991719148+984634691+978102181+972957870+968116459+962681686+956652743
1003+950313501+944455254+939749591+935773161+931340859+925613758+918810747
993+911971171+905801879+900115446+894996942+891501072+890135694+889710043
983+888696130+887130457+886038938+885365483+883415512+878669739+871903043
973+865464867+860863486+857984732+855792677+853058936+848941286+843505207
963+837981200+834169061+833165595+834713173+837923742+842102768+846450250
953+850099840+853177957+856553003+860248858+863470122+866133284+868971681
943+872514998+877215998+883797322+892369412+901790501+910648389+918551004
933+925944889+932874197+938580279+942460012+944451772+944505374+942917812
923+941035497+940285121+940526271+940023139+937267074+933351460+931721426
913+934661059+940807095+946447386+948603934+946272587+940257324+933537702
903+930047988+931348072+935058665+937685946+938641966+939953803+942824412
893+946509135+950431962+954971407+959626764+962741320+964224973+966446876
883+971066228+976642283+979941029+979069145+974847399+969908234+967204093
873+968040719+971044214+973350190+973410571+972608395+972862729+974127306
863+975549583+976879453+977531330+976489123+974271387+973825340+978822398
853+989766005+1001439593+1006199605+1002186487+995473332+992681511+995221921
843+999859679+1002104093+999548883+994444370+991729160+993982963+999522330
833+1004678332+1007333845+1007340561+1005368949+1003924348+1006498773
824+1012859344+1018694894+1021144018+1022149474+1024269084+1026488127
815+1026769199+1026260160+1028136940+1033656470+1040768972+1046229179
807+1049409029+1052135805+1053721253+1050926945+1042936651+1034504849
798+1032039433+1036407685+1040892657+1038535255+1030356542+1021347298
790+1012923208+1004476606+997645239+994543367+993980290+991887730+985902813
780+979299413+977734983+981636916+984305053+979821885+970958898+964900791
770+964624009+966992480+968056886+967713505+968649377+973213696+980886167
760+988388875+992539917+993643624+995125536+998022697+998760698+994384549
750+989457137+991074361+998649575+1005560787+1009396121+1013732410+1019928815
740+1024993095+1027497811+1029144697+1029950666+1026825973+1018630409
731+1009457248+1003983672+1002843401+1003938215+1005545552+1007370533
723+1010806956+1016789136+1024103363+1030874474+1035748595+1037750055
714+1035946838+1031865877+1030323212+1033371729+1035651836+1029894203
706+1019073658+1013123814+1016371445+1024212372+1028122949+1023341980
697+1012196834+1000655139+992628592+988937899+988211525+988330608+988565167
687+987440006+982863002+974806109+965042135+956667294+953229815+955783284
677+960699752+963264414+963660714+964478187+963004235+953999468+943377789
667+946787036+963076182+977839577+984397832+983512516+977456834+969878199
657+966396444+968188655+966975255+955203665+937840723+925129281+920992665
647+923197592+929152847+938312949+950372514+963754176+975374907+980831072
637+977613911+968149230+958662909+952558972+948181828+944483672+941547646
627+937039542+930890459+928950002+935712967+946527915+949482410+939219719
617+925488706+919670319+923690837+931332278+936026437+936609663+934271475
607+928248875+916961576+899980817+880181561+867511224+871178971
##END=
