##TITLE=Sample description
##JCAMP-DX=4.24
##DATA TYPE=INFRARED SPECTRUM
##DATE=12/9/2023
##SAMPLING PROCEDURE=Instrument type and / or accessory
##ORIGIN=Default
##XUNITS=1/CM
##YUNITS=ABSORBANCE
##RESOLUTION=4
##FIRSTX=4397.6552
##LASTX=599.8556
##DELTAX=-1.9287962
##MAXY=1.8263831
##MINY=0.20241833
##XFACTOR=1
##YFACTOR=1.7009518e-009
##NPOINTS=1970
##FIRSTY=0.2156743
##XYDATA=(X++(Y..Y))
4398+126796240+126245871+125251714+124411444+124264381+124713961+125235332
4384+125258153+124987340+125458593+126819920+127768400+127269718+126027402
4371+125366590+125614214+126224259+126596562+126627522+126414852+126112581
4357+125876547+125615826+125496657+125848487+126488300+126968813+127169279
4344+127155578+127298128+127795934+127857222+127750730+128469948+128974762
4330+128409895+127844669+128117120+128865580+128993203+128033378+127298829
4317+127682512+127982427+127371725+126639270+126556343+127046650+127797966
4303+128553497+128757783+128254650+127572603+127053579+126927428+127445996
4290+127987859+127826114+127988507+129272382+130557501+130939126+130238979
4276+128908515+128327923+128883206+129253249+128490964+127355133+127041788
4263+127588109+128500224+129568329+130296071+130596223+130716154+130030094
4249+128998267+128852799+128768540+128178487+128022480+128206240+128297104
4236+128550983+128726183+128345050+127569922+126965782+127081411+127905536
4222+128494258+128322535+128132153+128511578+129136253+129414206+129407959
4209+129517203+129827192+130179399+129822619+128944022+128955997+129796355
4195+130410728+130607524+130745790+130735506+129986239+128786534+128531999
4182+129477045+129874140+129148719+128927981+129518867+129642618+129479314
4168+129983628+130399672+129766727+128893894+128729407+128917670+129102464
4155+129607952+130091592+129974815+129829628+130535013+131641830+131795375
4141+130990497+130121457+129457202+129270262+129505753+129644843+129686972
4128+129724476+129636117+129787218+130381494+130793815+130696425+130272899
4114+129909979+129797564+129196744+128243235+128374695+129670634+130841858
4101+131072232+130590844+130194248+130309729+130773167+131225795+131415801
4087+131384027+131375214+131376028+131220530+131002166+130718414+130715269
4074+131245410+131248283+130527505+130224988+130340005+130284884+130149780
4060+130349764+130779545+130885634+130567322+130055219+129801331+130015306
4047+130295764+130545622+130856970+131139627+131416563+131454987+131281468
4033+131637984+132429293+132828473+132494181+131363045+130245243+130084602
4020+130407058+130467496+130375958+130561154+130864618+130914325+131024356
4006+131400269+131735506+131873676+131625168+130989577+130565263+130609854
3993+130746605+130665019+130481653+130669381+131263780+131589793+131043910
3979+130112565+129932993+130411438+130803548+131202693+131571046+131546280
3966+131249378+130946572+130780508+130823846+131135176+131550047+131551194
3952+131054133+130811879+131207958+131109263+130515477+131206531+132316221
3939+132047239+131008141+129837118+129348905+130536380+131603100+130861543
3925+130130069+130641742+130675558+130114186+130703328+132155344+132624721
3912+132091812+131140468+128719911+125121130+123446476+124850940+127806727
3898+130886037+131722348+129444140+127597710+128794524+129119240+128200230
3885+128658263+128402773+128599200+130474093+129586209+126942488+125503972
3871+125091467+126829819+128113931+127480697+128575100+130877347+130738861
3858+126686883+119847188+119002975+127390026+132533104+132489959+129626253
3844+126148700+123689150+122389866+123512706+126665989+128556423+129296727
3831+130202816+130525219+129786990+127391147+123973428+124659847+127645683
3817+128390692+130555898+133010402+132106136+128849172+126985405+126951870
3804+125132712+125187447+128951538+130548031+131138532+132448951+132801745
3790+132520367+132120766+131628856+131551553+130773754+129752912+131195545
3777+133379989+133301977+131124900+129416352+130312874+131807158+132551668
3763+132038260+129966940+129489300+130982516+129800525+124803764+121664997
3750+124934751+126727803+125709458+129386207+133624459+132306532+128247081
3736+126496886+129445305+134402714+137261996+137139376+136654868+137862299
3723+140186184+143439118+147203463+149832485+149686605+148166573+151140810
3709+159006709+166556108+172217589+178134419+186606526+194561203+198568529
3696+198649405+195002907+188905014+184941736+185494417+185810583+183094202
3682+178219817+172273551+165537246+161293440+162693068+162777589+161054577
3669+163434327+166717634+167526157+167307355+166721611+165136840+164193213
3655+164690020+162454695+157627581+157956467+164739429+169764951+171046259
3642+170968098+171069720+170844488+169971033+168496275+165670949+163384690
3628+166662758+171121564+171410818+168533314+165633331+166011977+167764056
3615+168162185+168134239+167973169+168066679+169584187+170871470+170535103
3601+169916315+169744154+169337947+169425342+170577135+170644661+168836673
3588+168724346+171446771+173391528+173865085+173917596+173776009+173390127
3574+172866022+172062388+170473709+169296563+170901746+173443408+174414105
3561+174415874+174049301+173449978+173305886+173997456+174642368+174259657
3547+173765198+174382760+175334534+175535850+175173831+175105868+175613362
3534+176022950+175584908+174333438+173422295+173677804+174459782+174854985
3520+174719355+174559651+174625776+174377153+173661316+173401778+173806320
3507+173710077+173052498+173119025+173868397+174190450+174061933+174088215
3493+174129704+173580527+172688412+172388365+172692512+173050903+173441025
3480+173628079+173357976+173149091+173490031+174122013+174468700+174330582
3466+173820232+173155871+172836359+173145709+173680747+173946645+174054014
3453+174346036+174544058+174341218+174247182+174566765+174955555+175345887
3439+175651891+175649333+175672320+176123748+176780469+177064922+176761949
3426+176382533+176463322+176901241+177431005+178010809+178416472+178623114
3412+179022908+179384260+179425434+179695187+180430665+181106676+181313266
3399+181442694+181901971+182403508+182992073+183725588+184118005+184139486
3385+184164138+184570730+185501846+186575251+187415889+187825845+187870979
3372+188173829+188889928+189395461+189743375+190515068+191432431+191863640
3358+192037710+192527299+193288199+194039832+194641134+194962030+195318284
3345+196224994+197340607+197989075+198285477+198746156+199451778+200103891
3331+200631202+201066073+201323543+201490536+201656074+202068289+203039021
3318+203990515+204086845+203637397+203467952+203891539+204742707+205441286
3304+205531186+205223255+205267653+206144262+207183343+207947696+209097036
3291+210654597+211971053+212986148+214004449+215219125+216256366+216560723
3277+216779525+217702039+218923758+219935542+220493094+220520129+220208115
3264+219838703+219771528+220081964+220600077+221002078+221040642+221082307
3250+221181703+220865958+220395362+220300118+220430597+220355992+219851827
3237+219404236+219641838+219962577+219721418+219294712+218841936+218611552
3223+218895953+218943154+218298225+217395860+216559023+215982846+215680610
3210+215753427+216372846+216977845+216836188+215982058+214975163+214235638
3196+213642641+213004615+212487115+212179903+211959997+211516594+210639792
3183+209552423+208450372+207630496+207279796+206766204+205843077+205414269
3169+205819213+206135519+205951427+205809594+205903910+205941562+205735954
3156+205398938+205058102+204750890+204479017+204110095+203893992+204213679
3142+204419743+203643354+202342633+201297577+200516124+200008349+199831440
3129+199778159+199627619+199257313+198857519+198572506+198193492+197547967
3115+196674197+195876695+195234411+194251029+192883167+191619117+190479606
3102+189406762+188493972+187545229+186533218+185775454+185314354+184776759
3088+184074045+183588346+183451035+183409492+183181334+182580540+181754357
3075+181241167+181236524+181265872+181074718+180939737+181012712+180981892
3061+180567311+180167132+180311715+180799972+181129962+181166370+180970381
3047+180708390+180531393+180375404+180254912+180106510+179809827+179428413
3034+178918273+178396936+178056802+177850667+177766339+177621388+177288490
3020+177043897+176935407+176727311+176440948+176139272+175777569+175458442
3007+175215619+174917903+174528289+174101478+173622823+173098035+172838935
2993+173196205+173977027+174744305+175388113+175868415+176087427+176036231
2980+175771367+175675317+176058921+176520440+176479389+175996756+175592180
2966+175427798+175378424+175356890+175152000+174678917+174229171+174094470
2953+174061513+173906943+173832058+173963220+174261462+174447430+174276881
2939+174041136+173900845+173636857+173264431+172985375+172795185+172578047
2926+172359981+172164307+171831987+171193628+170372876+169756926+169554804
2912+169582733+169679589+169879888+170052768+170129843+170206146+170130578
2899+169875841+169689208+169750952+170194110+170725766+170861834+170849919
2885+171111910+171515576+171804462+171957542+172165884+172402768+172418817
2872+172348838+172411826+172553378+172644242+172462602+172091350+171975431
2858+172101057+172074232+171813503+171326858+170536767+169802639+169680360
2845+170063911+170366200+170371422+170365780+170570512+170885575+171262433
2831+171754860+172140269+172189345+172023001+171850244+171750445+171699056
2818+171763603+171944086+171972645+171840713+171798102+171814151+171854361
2804+172151587+172648552+173038831+173388778+173740669+173894328+173913303
2791+173972752+174058026+174088057+174093856+174093436+174009405+173944333
2777+174061180+174243818+174284975+174223669+174151746+173997579+173856220
2764+173960872+174239719+174368112+174215084+174061723+174194199+174510453
2750+174804857+175002634+175030790+174906094+174845629+174975880+175159236
2737+175298914+175440991+175615132+175809089+175889195+175782352+175673600
2723+175712724+175855537+176014925+176154410+176242978+176350294+176626985
2710+176939945+177064046+177056407+177061313+177208384+177519101+177741932
2696+177720346+177640030+177698743+177967672+178316970+178475500+178467773
2683+178485820+178550262+178616999+178640583+178616141+178560214+178464164
2669+178409113+178484786+178600337+178559741+178314307+178079526+178058168
2656+178135190+178073271+177934172+177948049+178007357+177913655+177765148
2642+177641975+177523236+177404321+177331328+177377076+177401079+177220561
2629+176860312+176498049+176328551+176261831+176110783+175926813+175776518
2615+175649543+175528018+175394841+175301945+175237275+175073892+174823395
2602+174643244+174536594+174358563+174181812+174215627+174351152+174348629
2588+174245974+174163572+174048162+173851174+173714860+173725215+173702806
2575+173495253+173211676+173029475+172981713+172969974+172828247+172469417
2561+172043868+171751443+171585958+171425641+171289853+171293480+171335898
2548+171240830+171054529+170890778+170774544+170678617+170563557+170396547
2534+170201521+170038786+169929543+169885373+169834807+169702962+169552054
2521+169394645+169255126+169247977+169365893+169438378+169311806+169125103
2507+169073609+169039495+168914378+168764486+168658747+168663443+168799476
2494+169012355+169211849+169366717+169536267+169731363+169921133+170110079
2480+170285096+170379989+170392307+170457888+170566833+170526290+170374418
2467+170326042+170452071+170676795+170860239+170902219+170873485+170944007
2453+171103658+171237501+171397870+171595769+171750550+171915825+172133208
2440+172352062+172544635+172716814+172868230+172954328+173046838+173288050
2426+173522568+173573904+173634579+173796911+173882256+173903351+173980093
2413+174099708+174288655+174601737+174974425+175221681+175241988+175257950
2399+175498565+175835195+176078089+176267665+176482157+176644471+176613792
2386+176202873+175137984+173190318+170309608+166702163+162763134+158823720
2372+154925164+150912127+146866518+143150863+140139727+138300140+138005998
2359+139278300+142108839+146416807+152220417+158229706+161128533+159334211
2345+155078140+152191823+151505229+151905583+152861983+154015721+155002081
2332+155874503+157247954+159191204+161002505+162439802+164045581+166264822
2318+168802892+171007661+172643348+174058622+175558154+177112877+178655458
2305+180005168+180966509+181713340+182477727+183208562+183830731+184392103
2291+184947903+185527392+186119986+186629461+186967230+187156614+187227592
2278+187218393+187248459+187337763+187448934+187629417+187843489+188039829
2264+188285560+188560534+188698424+188700404+188798574+189015344+189166707
2251+189265245+189390397+189497310+189604171+189782604+189988476+190160654
2237+190270668+190305202+190387778+190597137+190793144+190897691+190958279
2224+190992988+191085060+191249442+191307822+191270625+191309259+191431257
2210+191609516+191760634+191778610+191794590+191906776+192020330+192117343
2197+192252290+192464732+192738129+192954793+193034373+193019410+193016327
2183+193129162+193339571+193475902+193458976+193441385+193552468+193728694
2170+193874381+194002039+194168786+194350689+194429165+194401289+194486353
2156+194759015+195005202+195133683+195212527+195212738+195185387+195290881
2143+195477953+195555605+195530445+195603841+195817702+196017809+196169663
2129+196305012+196402902+196460914+196501545+196570735+196649948+196711411
2116+196792183+196872569+196955391+197080473+197197741+197268473+197334737
2102+197428597+197493092+197452583+197409044+197526662+197740698+197879639
2089+197899333+197862907+197829337+197804071+197796870+197838272+197937721
2075+198074087+198227763+198377112+198407231+198262770+198161762+198275070
2062+198449859+198578848+198725306+198848531+198895505+198871449+198753585
2048+198639173+198666383+198755425+198797493+198874690+199039405+199200387
2035+199259678+199222183+199249639+199424148+199574460+199637045+199746936
2021+199810713+199737282+199815829+200136708+200395948+200501915+200625595
2008+200863793+201137295+201317674+201362475+201333688+201390210+201516221
1994+201470965+201398340+201647120+202111601+202557089+202860290+202990996
1981+203059170+203190595+203430369+203692781+203920886+204034878+203951075
1967+203977654+204384246+204871714+205197482+205449030+205642024+205800956
1954+206061020+206384860+206542601+206458641+206241924+206063263+206410546
1940+207350003+208168933+208602437+208838637+209050570+209344572+209667238
1927+209783946+209552791+209423942+209548744+209659389+210306473+211451223
1913+212063897+212050773+212125483+212624427+213260964+213776764+214199177
1900+214525838+214663377+214774408+215037152+215073631+215050731+215729388
1886+216680286+217339863+217914708+218466461+218988060+219430587+219608811
1873+219205145+218112923+217543632+218840376+220915805+222355450+223079049
1859+223500901+223976490+224601428+225284360+225823375+225918024+225306139
1846+224404037+225029010+227295575+228894223+229570287+230273719+230731279
1832+230135110+229434429+230168435+231536210+233088217+235016855+236441713
1819+237178347+237783556+238275913+238408897+238676670+239729347+241104147
1805+241889595+241784329+241566210+242376362+243710339+243945470+243249888
1792+244235547+247283880+249518890+250365661+250853900+251340125+252162699
1778+253213221+253171136+251703860+251054603+253318768+256697984+259208669
1765+260037516+259890129+260609172+261901484+263073409+264161338+264004946
1751+262763200+262766109+264631759+266768616+268161603+268847041+269841478
1738+270707785+269927366+269880883+273091706+276560244+279278289+281073996
1724+281954705+282093804+280503145+278002185+278818294+283263977+287345363
1711+289631885+289980079+289353599+289323305+288893236+287572207+288494949
1697+291825562+296642707+301459852+303687748+304168839+303203784+300728527
1684+301692916+307524139+311966301+313624870+314215012+315603093+316660799
1670+317620772+321355262+325419075+327212031+329194388+332853607+335446535
1657+334662927+331123166+332209852+338845393+341379696+343405645+349886301
1643+356033778+358907812+359014410+357505994+359453485+366632141+372079340
1630+374521307+376452048+378777641+381686893+386222090+390232359+392534790
1616+397044757+404005312+409296994+413288551+417850451+423187898+428562315
1603+434020517+439813965+445782658+451764457+457977182+464603892+471356543
1589+478078953+484779602+491760026+499529944+507634724+514131849+519033900
1576+526448774+535422874+541575467+547844329+557324259+567003893+574793750
1562+579050890+580526576+590342593+608022161+621999828+633559953+644120471
1549+654343745+663010457+669509895+674794639+681851525+696413271+711263062
1535+721073963+730411518+741290147+750392850+758033114+765854123+773187069
1522+780845064+789768843+799785300+811340098+822562558+830866236+835069796
1508+836662312+845148137+861481674+873284499+879488814+882877579+887877082
1495+895547272+901416235+904936408+909397176+916063624+922576098+928314776
1481+933598819+937258879+938915452+938854619+938504129+942087238+948576163
1468+951909632+951448270+951809202+953054522+951196599+947575225+949705214
1454+954310846+954842923+953694108+953193218+953126709+951359894+946802971
1441+941492506+936291091+930051103+924339058+920368736+917015433+914725793
1427+912824207+910707534+910513612+912337685+915585232+921470875+928043901
1414+933881117+939549571+944034167+946228844+948176545+953281384+959209989
1400+960253398+958633689+960857801+966268766+970962634+974208218+976504796
1387+977114175+975872990+974818859+976146317+979496396+982162807+983417939
1373+985206480+987553589+988265501+988541070+990561869+991580187+989963282
1360+988532170+988032682+988225973+988286456+986766757+985875781+987423233
1346+988613467+987379010+984832863+981839791+976857739+970180848+965509898
1333+963721638+963266093+962749925+960914779+959659156+962176569+966876814
1319+969652976+970078946+970581237+972827285+976220536+979119906+982698949
1306+987589472+989785059+988850140+989881705+992746243+993137942+993251477
1292+997153047+1001976709+1005538021+1010751631+1017801577+1024190423
1281+1028660232+1031191381+1033195780+1036244218+1039617846+1041337353
1269+1042311519+1044982626+1048503920+1050126151+1049580618+1049739989
1258+1052752054+1057341636+1060836929+1062360062+1062586363+1061790490
1246+1061543445+1063034479+1064355210+1065452793+1067819315+1070799562
1234+1073249834+1073220119+1070815261+1069280354+1068984320+1068513146
1223+1067746638+1066774295+1066633006+1067182603+1066412312+1065599128
1211+1065957537+1065004116+1063662851+1064976013+1067754278+1068960281
1200+1067131722+1064039272+1062569333+1062251082+1061489550+1060123335
1188+1058033925+1056218682+1055271709+1054809366+1055430029+1054892555
1177+1051030724+1047289787+1046385845+1046824430+1046470506+1044928661
1165+1043413168+1041794651+1038135712+1034174081+1033109717+1032806114
1153+1031977372+1032044232+1029868268+1025481508+1025032901+1027057204
1142+1025637094+1022769333+1022458020+1023808816+1023823744+1022095967
1130+1020656654+1018825643+1014919588+1010077564+1006537207+1005882974
1119+1006863447+1006944184+1008037843+1010180797+1005386990+994984231+990233035
1105+990489893+988963115+988501894+993708985+1000173802+1003082633+1006763788
1092+1012130951+1011934086+1007313596+1007292291+1012157723+1015344297
1080+1017113073+1020127941+1021459956+1020896271+1023151990+1028591620
1069+1031886193+1030961086+1030363621+1033882322+1036946178+1033018538
1057+1028289489+1030814330+1036200066+1037975010+1036438491+1035967457
1045+1039139663+1043321007+1044478863+1041890245+1038117981+1035698055
1034+1035368871+1033172372+1025358301+1018998750+1019402854+1020840765
1022+1020049938+1020628691+1023925016+1027089723+1028116662+1028071948
1011+1028493643+1029031817+1028178055+1027160017+1028661284+1029865535
999+1027699593+1026645812+1028849599+1032008770+1036867825+1041399027
988+1042538731+1042685136+1042559967+1042623883+1044709859+1045906682
976+1044377522+1042761177+1041314646+1040216782+1041970491+1045801836
964+1049219546+1052451184+1056012075+1059207760+1060979270+1062701651
953+1065151783+1063695300+1059466089+1060099297+1063545601+1062428604
941+1057645380+1054409888+1054297684+1054651607+1054028632+1054222133
930+1055604678+1057226629+1058628797+1058643374+1057297694+1056957016
918+1058102957+1059123098+1059205307+1058659213+1060301418+1065791018
907+1071552893+1073741823+1072168861+1069430614+1068046177+1067916522
895+1066049838+1060992165+1056775289+1054903979+1051481433+1046795205
883+1044441719+1042048705+1037081861+1034647287+1035672194+1035538894
872+1034525902+1032538674+1028938535+1028410804+1032319732+1034193564
860+1030372942+1026810999+1029601739+1035576599+1036423423+1029840234
849+1021563890+1017579552+1017744319+1017303982+1016305707+1018367925
837+1022100242+1025224160+1026166438+1023236792+1019713606+1019183001
826+1020167259+1019566920+1017644730+1016792019+1016078846+1014218820
814+1012627075+1011282306+1008066717+1004459571+1004894301+1008344810
802+1010539276+1010287745+1008489884+1006154759+1002427559+998971303+999764302
789+1000750171+996609056+992749607+992952289+992686461+990496270+988076344
775+984357624+980352681+979565990+980433698+978528748+974821872+972714030
762+971428271+968767537+965253882+960446268+954910343+952222977+950460788
748+946943910+945000974+945425122+944404491+940537052+937130976+935350636
735+932639021+929062921+926258094+923700594+920022312+916196784+912609751
721+906974797+902071029+902865009+904369289+899538057+894445553+897069844
708+903766358+908626324+911211858+912543802+913338062+914344397+914585205
694+912455286+908419927+904528239+903901059+907121973+910779511+912752582
681+912941528+910854640+907053712+904338452+904109488+903540267+901066236
667+903557508+912079076+916290065+912529154+906405997+906708689+911569356
654+911656330+907007456+906220625+913150097+919096013+915422287+907852948
640+902500573+900168532+902682791+909146136+912630426+915177273+922804641
627+923791492+916728300+912048940+905543124+898186140+889698282+877643716
613+874221240+881459923+887711124+892609286+898655141+897092621+887379907
600+880500475
##END=
