##TITLE=Sample description
##JCAMP-DX=4.24
##DATA TYPE=INFRARED SPECTRUM
##DATE=12/9/2023
##SAMPLING PROCEDURE=Instrument type and / or accessory
##ORIGIN=Default
##XUNITS=1/CM
##YUNITS=ABSORBANCE
##RESOLUTION=4
##FIRSTX=4397.6552
##LASTX=599.8556
##DELTAX=-1.9287962
##MAXY=1.8439707
##MINY=0.22483751
##XFACTOR=1
##YFACTOR=1.7173315e-009
##NPOINTS=1970
##FIRSTY=0.22886068
##XYDATA=(X++(Y..Y))
4398+133265288+133622161+133946435+134020093+133418704+132924224+132966367
4384+133118578+133110361+133023167+133672583+134965905+135454312+134923041
4371+134192495+133774745+133717624+133905454+134631036+135478598+135510330
4357+135145335+135206585+135614670+135960888+136228267+136579752+136570876
4344+136379923+137061973+138096714+138082067+137166261+136643085+136944799
4330+136977989+136390882+136424383+137200725+137511108+137152005+136673541
4317+136401372+136389016+136371029+136646652+137554258+138087369+137441250
4303+136512602+136468644+137017269+137138078+136859410+136912400+137359166
4290+137547195+137185194+136951698+137652516+138877793+139150179+138184871
4276+137377093+137313421+137511134+137797177+138028383+138054613+138069000
4263+138280691+138593450+138656662+138427799+138448433+139011461+139515721
4249+139527608+139573596+139647081+139013258+138325828+138695187+139382374
4236+139500545+139412821+139326824+139220775+139325748+140024224+141326431
4222+141974250+141342700+140661796+140554002+140667392+140997228+141567407
4209+141783002+141382033+141005307+140489793+139603020+139475295+140504084
4195+141597038+142009800+141999405+141645282+140910112+140474027+140670360
4182+140986903+140934685+140724998+140858988+141054592+140861617+140614585
4168+140883266+141477462+141589810+141296626+141070262+140644286+140461055
4155+141037377+141418441+141079555+140674854+140615660+140764496+141202507
4141+141998719+142345649+141839593+141010938+140172842+139734709+139981429
4128+140497880+141024942+141565671+141997583+142410309+142557297+141946111
4114+141455040+142064508+142430770+141407760+140710855+141492889+142261023
4101+142082382+141957625+142729299+143574762+143534310+143112186+142805118
4087+142497174+142279496+142168579+142107945+142177967+142386509+142896712
4074+143705792+144076037+143787147+143407306+142812034+142130791+142272771
4060+142881146+142857084+142527153+142713108+143361014+144128749+144440658
4047+144042735+143866550+144164064+144088592+143782696+143739138+143757385
4033+143905743+144245723+144248421+143690043+142963316+142603198+142675294
4020+142683615+142623970+142961242+143522483+143815330+144034500+144760386
4006+145546220+145422375+145016477+145206467+145004312+143745463+142656370
3993+142813682+143593374+144027706+144333065+144737540+144783388+144412111
3979+144121070+144096020+143911019+143439193+143341856+143895418+144330982
3966+144363954+144747136+145385836+145230450+144359789+143780518+143584280
3952+143229993+142864677+142991386+143023812+142529721+142989286+144627794
3939+145678518+145275934+143535646+142281266+143275469+144406324+143486188
3925+142196883+142194106+141940983+141261918+142248910+144573884+145791057
3912+145466636+144425240+141904019+138180550+136579050+137937891+140605595
3898+143862428+144902540+142258411+140305382+142167182+142779565+141369981
3885+141294361+140743090+140949054+143376104+142915168+140082186+138227622
3871+137469884+138989049+140091392+139388439+141059225+144151699+144240768
3858+139824116+132105903+130922604+140689007+147063581+147126037+143825473
3844+140040588+137220925+135411153+136715720+140781329+143175693+143875816
3831+144627204+144892119+144428971+141951317+137065964+136270915+139486601
3817+141298127+144936875+148603892+148023752+144265107+141731696+141544196
3804+139409186+139072738+143134408+145324612+146900663+149103093+149468721
3790+148857241+148435958+148324321+148970561+148685038+147271931+147963534
3777+150010751+150311841+148465738+146785989+147590184+149135388+150202216
3763+149927869+147625638+146600910+147384922+145609154+140512310+137810384
3750+141599494+143375921+142156154+146428360+151560329+150366905+145515834
3736+142781604+146279499+153552639+158594090+159328522+158696981+159967144
3723+163147620+167397735+171823645+174625824+174054206+172343081+176623895
3709+186344379+194975857+201248599+208238455+218970842+229395147+235427937
3696+238234420+238169499+235507140+235117754+239797117+243829494+243965756
3682+241079376+236589257+230978738+227947540+231450416+233496436+233599865
3669+238852287+245155710+248307222+249965574+250866152+250350795+250753387
3655+253331129+252692316+248173094+249098142+258714138+267195696+271137052
3642+273169935+275583665+277915711+278862780+278113354+275494518+273767532
3628+278899883+285921912+288858531+288525216+287678521+289656878+292486528
3615+293435541+294515958+296590993+299251547+303389539+306971652+308148001
3601+308952387+310644769+311872832+312817680+314713346+315875221+314638690
3588+314820489+319226633+323225100+324753523+325675499+326456388+326698405
3574+327149605+327333833+325487487+323359176+325763309+330860137+333626827
3561+333926528+333589239+333161674+332901471+333775966+335121306+335284155
3547+335067752+335906464+337224143+337713764+337007705+336260344+336490491
3534+336937006+336693843+335637896+334118878+333072580+333278605+334560569
3520+335629948+335604820+335060429+334404974+333479771+332768644+332416500
3507+331281592+329700656+329814740+331160567+331454159+330670181+330084558
3493+329919835+329312971+327959197+326883084+326681432+326596537+326342616
3480+326201980+325673659+324583629+323599180+323036672+322674913+322145169
3466+321043963+319435990+318384624+318449215+318724030+318682763+318512556
3453+317958309+316571805+314811326+313751005+313336457+312963592+312581946
3439+312130468+311754306+311487612+310977026+310349789+309983206+309632866
3426+308809530+307766285+307138041+307149460+307556200+307847675+307892969
3412+307847293+307681599+307604825+307697842+307633667+307461135+307415946
3399+307604096+307972762+308072859+307842330+307667716+307674727+307863224
3385+308022394+307975122+307885958+307971061+308063036+307618292+306963045
3372+306781836+306606493+305983940+305372981+305327340+305844728+306300857
3358+306155084+305770106+305953224+306611595+306769723+306026110+305127979
3345+304863159+305180110+305278229+304458884+303449583+303037742+302660816
3331+302121042+301651030+301292117+301346678+301499774+300934663+299891627
3318+299303296+299201047+298769249+297784348+297186820+297842310+299365249
3304+300395131+299923835+298937998+299287261+300799511+301781566+301931295
3291+302511122+303689448+304585983+305129992+305638529+306001954+305745256
3277+304749942+303719158+303299889+303444551+303641552+303273824+302384334
3264+301837028+301598135+300521467+298869658+298258421+298966909+299694209
3250+299405892+298187166+296846441+296160478+296084260+295969343+295585129
3237+295088704+294712854+294477397+293803721+292758012+292179122+291921140
3223+291553377+291376298+291262804+290790206+290211525+289746302+289199725
3210+288714789+288746564+288994568+288590449+287622104+286864643+286627468
3196+286679442+286591857+286165091+285527736+284949055+284250354+283083064
3183+281778540+280660240+279698819+278833903+278027903+277309957+276729696
3169+276738998+277302738+277321914+276491532+275432010+274425347+273721423
3156+273487146+273307984+272888056+272332975+271443486+270296379+269578728
3142+269355783+269265126+269128048+268495535+267362918+266416491+265595063
3129+264675240+264278479+264052306+263031986+261880679+261364263+260997437
3115+260283795+259274859+258341777+257629505+256818264+255685370+254426174
3102+253324569+252322575+251140291+249839845+248972014+248805833+248766596
3088+248201294+247074491+245806688+245025331+244807418+244658696+244529861
3075+244281666+243544491+242767906+242484292+242457168+242288871+241937524
3061+241543002+241167378+240788647+240471037+240541216+241001700+241273236
3047+241093173+240719388+240420815+240283390+240206616+240056835+239812354
3034+239568584+239389093+239110998+238616135+238113186+237663200+237181457
3020+236842953+236673718+236499208+236241868+235836915+235322443+234893699
3007+234820014+235177156+235562586+235463131+234886462+234403192+234522881
2993+235190189+235990723+236666916+237287229+238017479+238784641+239305743
2980+239523638+239668334+239838333+239769785+239244536+238457851+237729006
2966+237192408+236692304+236180452+235890469+235753079+235460666+234874783
2953+234292717+234210720+234582475+235014811+235198814+235026768+234755545
2939+234663916+234588982+234092836+233209056+232459265+232004976+231677734
2926+231381087+230878676+230136781+229550672+229134718+228571984+227922568
2912+227440704+227245178+227284901+227338802+227192734+226891801+226591163
2899+226402908+226431074+226499552+226348626+226094044+225980845+226023501
2885+226080977+226157525+226329953+226515257+226535475+226281709+225915647
2872+225640796+225425088+225301129+225305659+225222048+224948950+224635887
2858+224277269+223755422+223154770+222561719+221911366+221267972+220784632
2845+220417616+220187174+220261171+220490467+220552195+220396496+220265978
2831+220345198+220457061+220486649+220473981+220343428+220186428+220135251
2818+220169664+220193178+220056413+219820695+219643634+219521740+219464056
2804+219560387+219828678+220125273+220158731+219880844+219713500+219890406
2791+220190332+220224381+219768564+219257684+219183496+219292218+219175774
2777+218919961+218742136+218597075+218438183+218188496+217744515+217437369
2764+217640235+218019486+217978323+217633502+217508520+217585762+217614899
2750+217627341+217612001+217526099+217444501+217344560+217215760+217145321
2737+217119776+217077311+217087029+217187942+217208732+217108305+217081979
2723+217203144+217332083+217357072+217340430+217297931+217252672+217317610
2710+217417568+217397351+217213140+216964494+216806070+216744551+216715709
2696+216640202+216523827+216567229+216771727+216883225+216828439+216606067
2683+216262148+216060080+215977962+215742643+215474283+215302324+215026155
2669+214710280+214562980+214447352+214218767+213926059+213643833+213419118
2656+213249311+213093300+212957940+212927848+212939718+212822545+212556944
2642+212211585+211898747+211700080+211512572+211217851+210924241+210747458
2629+210651282+210630718+210560695+210298409+210036592+209996660+210134033
2615+210215041+210072306+209830410+209593981+209279165+208932158+208708241
2602+208639502+208647693+208688544+208751105+208718584+208512489+208252823
2588+208016082+207736460+207468811+207348514+207285901+207076267+206709129
2575+206430044+206381471+206282779+205995451+205816481+205732645+205481361
2561+205213747+205041892+204726642+204257602+203891643+203780405+203811555
2548+203718001+203487594+203331947+203260154+203182999+203148499+203165315
2534+203152265+203072663+202982718+202945910+202859714+202645446+202503057
2521+202600343+202783721+202868720+202840468+202697334+202530251+202501253
2507+202527613+202469443+202447837+202513435+202524177+202528863+202615684
2494+202688709+202749014+202906240+203073947+203038511+202916947+203006284
2480+203198999+203252345+203202279+203122330+203045730+203022458+203023708
2467+203041652+203113740+203278740+203557252+203762062+203748787+203723519
2453+203791130+203813759+203831686+203952538+204150927+204415227+204669704
2440+204833750+204959287+205010273+205012373+205174267+205451963+205598326
2426+205594300+205621111+205758953+205909116+206050515+206275855+206515581
2413+206609830+206617032+206729571+206962859+207190768+207347456+207489549
2399+207740139+208037184+208169872+208201664+208357571+208563162+208533470
2386+208048985+206887370+204781428+201673786+197833066+193652747+189439162
2372+185213290+180921820+176787282+172973477+169796160+167955644+167700317
2359+168860908+171612518+176237546+182563374+188662698+191218435+188974859
2345+184373519+181447104+180920501+181482732+182569621+183700086+184587059
2332+185465650+186822947+188594116+190201204+191621045+193408856+195819203
2318+198515558+200829538+202424948+203789620+205474870+207338501+208984705
2305+210234599+211189304+212078776+212931579+213626011+214201777+214847965
2291+215574380+216202885+216735822+217224992+217510984+217550169+217588469
2278+217753035+217869219+217847128+217830815+217892560+217940179+217987972
2264+218196496+218551955+218878520+219087825+219192034+219308149+219534513
2251+219785987+219951994+219992012+219971743+220015666+220103511+220256659
2237+220530971+220749803+220854950+221036940+221247859+221267937+221177697
2224+221181532+221307226+221524115+221750531+221880685+221901457+221905501
2210+222023698+222240534+222424902+222541519+222631707+222704351+222799953
2197+222990655+223202927+223304152+223350088+223482810+223685451+223858208
2183+224006688+224187914+224379015+224511078+224578862+224638316+224770188
2170+225005576+225276018+225518608+225676389+225732581+225779419+225848071
2156+225897356+225980776+226185655+226449885+226627103+226733864+226917068
2143+227146660+227196344+227084637+227107128+227317127+227537816+227719164
2129+227923436+228159969+228318444+228369135+228442351+228537363+228597008
2116+228692628+228842375+228998490+229083020+229032434+228980442+229076478
2102+229261262+229400440+229446549+229471382+229543054+229663090+229799474
2089+229901810+230019087+230189780+230290085+230292983+230321721+230401462
2075+230471815+230530488+230624112+230727385+230739047+230688460+230751195
2062+230919110+230992899+230969957+231023529+231157986+231266656+231308548
2048+231286040+231253276+231183080+231096137+231175687+231339820+231403318
2035+231414511+231473740+231614219+231752373+231859585+231991613+232105507
2021+232094695+231945660+231897226+232129021+232449373+232669715+232855037
2008+233079787+233244041+233289092+233368017+233574823+233780345+233740882
1994+233332320+233067448+233508011+234216013+234688628+234991383+235254537
1981+235512572+235719707+235911554+236108451+236242145+236215767+235978714
1967+235973803+236584311+237304201+237701171+237965418+238178853+238308365
1954+238502797+238798680+238999326+238944574+238582330+238110912+238354214
1940+239501650+240471297+240850010+241051801+241292967+241571774+241859901
1927+241924787+241563080+241327276+241447972+241522212+242150907+243424941
1913+244139781+244123850+244254576+244900400+245642347+246204768+246704542
1900+247071541+247097121+247087940+247413377+247523557+247411555+248150222
1886+249403049+250205595+250742732+251363531+252043056+252617764+252929370
1873+252446915+250810637+249780322+251435775+254146395+255798587+256503292
1859+256991196+257562415+258206278+258809671+259199075+259129173+258299190
1846+257069288+257614407+260378026+262520741+263361761+264050900+264470030
1832+263593088+262551544+263386004+265005258+266660521+268789041+270492964
1819+271435503+272242007+272887726+272885314+272902685+273983171+275485164
1805+276257828+276071673+275808085+276692559+278097440+278150387+277032816
1792+277881697+281432626+284178544+285124832+285538288+285918996+286667885
1778+287855947+287867973+285923769+284561387+286724944+290636486+293854047
1765+295119039+294959800+295702649+297220001+298568117+299828840+299559682
1751+297745024+297469132+299751338+302284064+303704720+304336227+305440279
1738+306357708+305173342+304797388+308600069+312928676+316363559+318615846
1724+319622925+319678735+317533105+313930132+314429854+320085301+325536876
1711+328563493+328950241+328010807+328021914+327731237+325948892+326559192
1697+330443540+336439228+342716499+345801806+346433417+345191610+341865431
1684+342546639+349999426+356172574+358614713+359406812+361181695+362729763
1670+364142055+369118758+374742588+377272363+379579697+384075699+387672355
1657+387192903+382960853+384103500+392778172+396522370+399222491+407969806
1643+417084884+422027783+423216175+422229747+425340391+434891050+442455387
1630+446317106+449415359+452846980+456876615+462619005+467316764+469476451
1616+474036836+482196514+488788029+493262374+497773751+503217066+508827463
1603+514352271+520057282+525779125+531320246+537056424+543327552+549687775
1589+555732609+561629657+567758553+574526938+581744476+587128058+589870731
1576+595336987+604425548+611003909+616618020+624948148+633491659+640144503
1562+643384190+642923133+649786791+667016670+681850607+693775274+704208620
1549+713840981+721363322+726233231+729785912+735793608+751317257+767600934
1535+777266754+785459717+795495660+803918736+810170219+815953773+820533525
1522+824568019+830760291+839378076+850429011+860722416+866090380+867073858
1508+866038527+872022136+887572787+899245337+905515979+909389637+913299114
1495+918264815+921791952+923372749+927579324+936637411+945041189+949726314
1481+953046106+957652097+962054146+962521797+959993479+961321535+966952931
1468+969842139+968256622+966763774+966599814+964668608+961566225+963228655
1454+967420027+967985902+965495415+961932113+959101838+957069216+954038747
1441+947957401+938046475+927201357+921404336+919920026+918301883+916661527
1427+916142092+915825210+917115782+922333600+930229257+937013712+941653647
1414+945524945+948485513+950720898+952454409+953431293+955728874+959565880
1400+961837222+962765654+964701164+968914819+974314367+977306033+976851570
1387+975591125+976231898+977760148+979590633+983198499+987086527+989206265
1373+992054102+995964204+995459345+990946371+988787135+989366198+990580899
1360+992863694+995191957+996086028+995448447+993011063+989260479+987042587
1346+987527731+987370713+983303247+977148807+972625906+969353455+966931134
1333+967227955+968969796+969647082+969744680+970273209+970759881+970919050
1319+972533931+976319292+979824077+982315535+984539189+986472478+989437419
1306+993987461+997483221+997956912+997301145+997230410+996610253+995731315
1292+997383124+1002806551+1009683467+1015219903+1020050799+1025049057
1281+1028982829+1032031415+1035399243+1039792268+1045021540+1048937402
1269+1051281769+1053513267+1053922748+1051760805+1049601291+1049417618
1258+1052567759+1058626962+1063954318+1065215527+1063718514+1063668812
1246+1065589607+1066686925+1066779664+1068487700+1072209130+1073741823
1234+1071176368+1068472221+1067055938+1065347208+1064910932+1067290701
1223+1069815270+1069047536+1065238712+1061716643+1060325627+1060193946
1211+1060405246+1059330210+1056041307+1054006949+1055673891+1057695407
1200+1056755800+1053785861+1050772538+1048610456+1047332657+1046877291
1188+1047199587+1047373195+1046566033+1045190150+1043535702+1041478924
1177+1039830307+1039435125+1039825934+1039922907+1038447760+1035030856
1165+1032742299+1035119013+1039262836+1039012802+1033879254+1028630407
1153+1027796727+1031265069+1034411948+1033778740+1031487060+1030668652
1142+1029728628+1028747233+1031039955+1034750278+1034518639+1030233139
1130+1027879610+1029714259+1031598610+1031812757+1031172955+1029445552
1119+1027729047+1027486718+1027450553+1025391900+1022770565+1022842757
1107+1024844559+1025814570+1025176851+1024224540+1023511089+1021831374
1096+1018978054+1017919191+1021439802+1027064881+1030226961+1031523225
1084+1033104022+1034739311+1035496355+1036088538+1037508014+1036123801
1072+1031344411+1028803529+1030062447+1033211547+1038679816+1046944833
1061+1052774479+1053721097+1055315152+1055355274+1049334458+1043435605
1049+1041260681+1040050076+1038620049+1037364671+1038987396+1042545561
1038+1041796707+1039353701+1040166833+1041126432+1039211885+1034430898
1026+1030399389+1029215718+1027940903+1027084386+1028106390+1028766322
1015+1028547247+1028425006+1028042319+1027738002+1028470612+1030002541
1003+1031387657+1031358849+1029976441+1029898557+1031957557+1033942144
991+1036747915+1040883756+1041288934+1038597351+1040124698+1046366880
980+1051461902+1052680559+1052097609+1051966483+1053145226+1055211932
968+1055222552+1052524375+1052255668+1054551374+1053624193+1052064775
957+1054840976+1058784882+1059410593+1056337503+1053548113+1053738103
945+1053724012+1052692082+1053626622+1055543043+1055663410+1056042904
934+1060378730+1066064547+1066313123+1060797096+1056690758+1058884146
922+1064012696+1064431896+1059134111+1056165769+1060097875+1065898575
910+1068371082+1066494992+1061991528+1060368179+1061513464+1058550952
899+1053554986+1054612807+1058327018+1055551304+1049992378+1050538885
887+1057021383+1063975837+1066389550+1062523250+1055880541+1051140092
876+1048612191+1045710904+1042610950+1041221045+1040548271+1038789354
864+1037041612+1036459217+1035660662+1034484348+1034512253+1034093678
853+1032088683+1031953045+1032869537+1030219673+1026008725+1024059471
841+1022636524+1020060101+1018909055+1021134235+1024450835+1025149709
829+1022443410+1019614801+1019860393+1021372400+1020975205+1019894198
818+1019871152+1019828878+1018162075+1014347073+1010477649+1009972513
806+1013141536+1017217193+1020754741+1023368301+1022322419+1017346583
795+1012649866+1009531864+1006654178+1003340911+998080472+992881465+991541331
781+991639692+990564170+988841279+985462761+981688783+980574319+981679621
768+982270346+982390712+982744661+980752994+975789722+971624866+975795831
754+986838575+985153862+968512626+956727761+954089906+952863266+949894369
741+946123306+943346620+943839053+945217435+943150036+940014472+936606383
727+930170393+922325548+916286337+913381996+911712971+908560817+904891240
714+904564085+909325636+914559559+916570940+918253848+920644168+920741558
700+919788623+921435365+923855672+923356784+920659856+917982433+916034290
687+916012771+917994165+919163190+918357277+916532554+915310009+916620642
673+917099122+910123914+900135868+904311969+915755934+918035259+917825902
660+921401282+924882673+923480621+916516796+908743171+907074355+912309319
646+918307506+919105575+914469111+910716930+909779266+905579425+903550065
633+912835766+920040184+907312103+884115066+874278415+887898484+905861321
619+907314186+909943225+924529488+928879266+916878589+903081789+894128657
606+888912574+885860586+890739935+905884714
##END=
