##TITLE=Sample description
##JCAMP-DX=4.24
##DATA TYPE=INFRARED SPECTRUM
##DATE=12/9/2023
##SAMPLING PROCEDURE=Instrument type and / or accessory
##ORIGIN=Default
##XUNITS=1/CM
##YUNITS=ABSORBANCE
##RESOLUTION=4
##FIRSTX=4397.6552
##LASTX=599.8556
##DELTAX=-1.9287962
##MAXY=1.8247168
##MINY=0.20146324
##XFACTOR=1
##YFACTOR=1.6994e-009
##NPOINTS=1970
##FIRSTY=0.2144873
##XYDATA=(X++(Y..Y))
4398+126213549+125133885+124636239+124712139+125055127+125988400+126926444
4384+126855867+125879566+124867052+125067131+126474867+127695782+128338372
4371+128659903+128496003+128043233+127808483+127626152+127116247+126719753
4357+126970251+127759380+128636798+129291865+129702090+129660843+128903211
4344+127805695+127559923+128596455+129325922+128622664+127676781+127718300
4330+128254142+128444155+128404425+128470969+128605802+128717574+128883508
4317+128891102+128186545+127173987+126969322+127821496+129272592+130578316
4303+130490175+129076941+128374191+128743993+128943143+129130657+129449251
4290+129609135+130151273+130938937+131137316+130986971+130891447+130757965
4276+131031840+131221712+130301048+129419552+129526010+129698215+129441798
4263+129196184+129705931+131050964+132062154+132200985+132216962+132302402
4249+132189236+132012638+131519323+130784235+130681416+131005210+131020747
4236+130967593+131154668+131559790+132014041+132261961+132452448+132842163
4222+133154234+133087093+132914486+133087198+133472310+133081964+132024125
4209+131805158+132373523+132812166+132885839+132673151+132616375+132629633
4195+132622057+132908541+133324360+133750964+134019569+133890874+133643340
4182+133595139+133700650+133805565+133696135+133328034+133172367+133495240
4168+134187564+134828383+134701292+134160663+134027285+133887226+133269267
4155+132879947+133145588+133520002+133926965+134246752+133722168+132842339
4141+132912820+133867523+134575657+134477573+134040718+133933033+134186231
4128+134190090+133764432+133819998+134776026+135555553+135524723+135275838
4114+134985575+134566398+134293453+134025768+133918530+134590722+135525161
4101+135869167+135832155+135729283+135480740+135286001+135385690+135544706
4087+135564488+135493428+135223806+134934534+135011714+135282555+135819090
4074+136724979+137025791+136493535+136009708+135582586+135073830+135002595
4060+135595713+136475420+137069230+136941280+136175748+135547109+135326091
4047+135000604+134722012+135104458+136026999+136699603+136739316+136525076
4033+136368497+136318034+136390234+136511958+136587744+136609946+136493246
4020+136176835+136084854+136430472+136600897+136252086+136150626+137110696
4006+138252555+138156654+137408912+137265600+137546648+137643803+137383203
3993+136890923+136641635+136781510+136852219+136762359+136823239+136913353
3979+136743630+136545611+136664100+136897008+137045660+137129373+137130180
3966+137160712+137295808+137889338+138693522+138648530+137814911+136779765
3952+135759184+135276426+135830524+136336860+136067185+137081576+139190002
3939+139516926+138006388+136127223+135281108+136297805+137136905+135842782
3925+134519390+135074584+135132368+134070014+134903178+137796497+139331981
3912+138872969+137729199+134517408+129166160+126236189+127755092+131714913
3898+136242660+137567832+134175753+131643818+133948237+134594150+132657376
3885+133131970+132961257+132472729+134836204+134491901+131209849+129009555
3871+128217112+130206918+131645370+130692140+132648239+136627360+136434813
3858+129903055+119734683+118549631+130757710+139099967+140138831+136872106
3844+132382116+128371473+125182831+125976756+130602947+133541915+134858511
3831+136510371+137314634+136893887+133896021+127902587+127017268+131058443
3817+132919948+137034051+141801151+141355423+136724673+133624689+133652906
3804+131298594+130574888+135051716+137568043+139216947+141974267+143315293
3790+143552068+143444067+143057771+142987852+141697701+139729632+141245431
3777+144565425+144911709+141798258+138980497+139737997+141707697+143424092
3763+143604811+140714306+139105746+140447701+138481315+131216109+126638478
3750+131067957+133812229+132863094+138345877+145121162+143967958+137723955
3736+134348852+138935058+147489986+153203144+153968861+153235991+154623463
3723+157863962+162726402+168203091+171073840+169436764+166739719+171430946
3709+182918238+193519090+200743567+207388376+218185274+230082966+237457647
3696+240292305+239370211+235995730+236241511+243375304+249817369+251189707
3682+248746492+244004320+236928890+231842100+235110008+237876711+238165983
3669+244550526+252842180+257525235+260201867+261483486+260733325+261218643
3655+263970789+262164359+255610899+256001167+267305637+277887092+283573366
3642+286752871+289361162+291281881+292049772+291653489+289067786+286830332
3628+293112653+302053437+304767108+302407895+299942197+302529531+307151609
3615+309396446+311161893+313557969+316742998+321856076+326139340+327147681
3601+327138842+328102674+328853326+330150185+333625591+335653005+333672555
3588+333648004+339385503+344602541+346174309+346329862+347011383+348276746
3574+349506894+349149876+345939103+343153321+345928160+351022439+353483261
3561+354199225+355012765+355604568+355376938+355420184+356345961+356918753
3547+356998967+357814191+359498616+360807330+360764680+360087824+359617693
3534+358881947+357998609+357265424+356457882+356052848+356309133+356855445
3520+357408455+357715142+357795742+357546717+356464686+355278205+355173720
3507+355099188+354299817+353907551+353838209+353149147+352158975+351850254
3493+352293027+352016083+350298688+348759714+348259595+347868485+347386394
3480+346884486+346283845+345763137+345068919+344253309+343546499+342955504
3466+342704515+342449667+341663906+340693831+340224542+340278345+339925186
3453+338633588+337050526+335594502+334281544+333494485+333502762+333895836
3439+333807765+333041821+332242205+331965086+331913177+331169855+329960611
3426+329165625+328621382+327895843+327164376+327072623+327681471+328295440
3412+328670731+328841752+328825092+328849679+329163590+329756094+330116093
3399+330008171+329823261+329752727+329589844+329243769+329155032+329386099
3385+329079974+328325464+328305717+328918564+329280036+329385328+329170535
3372+328443172+327666284+327309547+327495334+327859506+327882690+327615392
3358+327362754+327333783+327690520+328411114+328914355+328516792+327729137
3345+327398775+327177739+326713290+326531853+326961263+327283417+326383700
3331+324902703+324403531+324473854+324107823+323290986+322006929+320589030
3318+319664376+319063980+318279412+317329715+316453357+316096550+316594495
3304+316971996+316483135+316048744+316146250+316472473+317104821+317902823
3291+318507147+318820848+318826249+318808467+319291680+320076214+320217071
3277+319337908+318024459+316928890+316355747+316285774+316427367+316722304
3264+316889081+316233724+315351054+315027426+314137039+312288538+311094340
3250+310789794+310095926+309253976+309104386+309025084+308523982+308052764
3237+307643591+306812655+305751107+305310719+305378762+305097153+304612572
3223+304477327+304281369+303513039+302625458+301937272+301240248+301021878
3210+301680075+302348970+302243889+301764007+301417126+300750370+299401672
3196+298269801+297993033+297798197+297094053+296119033+294933674+293635167
3183+292529057+291681057+291288808+291311273+290940962+289773456+288345684
3169+287179055+286395380+286011128+285988102+285957745+285660160+285686624
3156+286075786+285726766+284457703+283032211+281973907+281484380+281412303
3142+281432909+281201737+280470147+279295609+278206388+277462961+276504390
3129+275428006+274802322+274153139+273111162+272223511+271844484+271779492
3115+271511633+270699285+269561294+268120264+266372723+264757445+263418427
3102+262349216+261472473+260484843+259475170+258756716+258220821+257484373
3088+256824282+256654629+256210874+255062764+254103386+253590921+253033859
3075+252568796+252271510+251856568+251426894+251041344+250691604+250505151
3061+250246569+249827383+249660922+249891428+250157919+250078494+249755060
3047+249540513+249331262+249044778+249003724+249006126+248562915+247831816
3034+247166533+246719955+246535834+246397923+246040502+245467885+244842762
3020+244343695+244180514+244370878+244529359+244426470+244164485+243580399
3007+242801442+242520342+242707058+242805440+242877237+243030141+243079385
2993+243378636+244375332+245646061+246812620+248113968+249310217+249846393
2980+249862439+249885693+250034091+249881817+249108928+248016007+247062381
2966+246308485+245676330+245069323+244286455+243520177+243168456+243195024
2953+243338196+243579241+243986134+244222164+244104211+244058948+244230442
2939+244192930+243728148+243105094+242509206+241868475+241124241+240340830
2926+239794571+239410301+238600987+237294150+236068632+235179542+234365441
2912+233645917+233440822+233712996+233839841+233522159+233055447+232720439
2899+232449001+232020661+231591321+231510458+231662223+231819547+231968734
2885+231986902+231744384+231397134+231196985+231184726+231133466+230839213
2872+230519637+230382322+230266087+230035196+229600840+229191124+229233353
2858+229372298+228930139+227910592+226719867+225618510+224593895+223708086
2845+223247670+223251300+223389579+223397436+223348929+223374287+223432720
2831+223478965+223389842+223006589+222574970+222515379+222688767+222738028
2818+222702183+222577846+222295693+222046721+221937746+221925505+222072711
2804+222432113+222663654+222407702+222019697+221898937+221883592+221907530
2791+221982939+221802606+221328074+221003710+220973529+220914166+220630751
2777+220247446+219969818+219878573+219874224+219785452+219571045+219354954
2764+219214448+219106613+218894556+218461867+218008378+217811473+217869152
2750+218064795+218127454+217868731+217605922+217586298+217665916+217745341
2737+217727348+217590279+217493633+217394374+217213673+217066292+217006000
2723+217021345+217115694+217244152+217307110+217248466+217109153+217018451
2710+217051175+217050527+216891642+216674622+216557668+216623764+216734598
2696+216603579+216175239+215790846+215729905+215823395+215776606+215545364
2683+215281695+215064307+214861211+214616167+214308587+214095688+214059579
2669+214019419+213870215+213653037+213434123+213212807+212837112+212401301
2656+212193470+212059260+211812901+211651613+211547935+211212610+210698005
2642+210358876+210285273+210272997+210195484+210025165+209746397+209450846
2629+209371632+209473153+209397446+209126255+208885297+208675748+208483753
2615+208372095+208357644+208442839+208539345+208494924+208265698+207910276
2602+207513327+207175951+207031253+207033077+206947251+206825668+206865775
2588+206977380+206981466+206780615+206384104+205972091+205655198+205383918
2575+205234854+205235924+205198027+205068814+204864158+204582286+204290646
2561+203964827+203611667+203238358+202785764+202474378+202529321+202662584
2548+202540141+202316492+202226317+202188700+202097684+202065784+202135844
2534+202136125+202025554+201913388+201829631+201765428+201691352+201631533
2521+201674762+201784561+201839732+201766252+201622397+201556773+201557755
2507+201550705+201599283+201704557+201793715+201867704+201886258+201808587
2494+201739842+201765989+201808569+201800169+201853095+202097315+202459857
2480+202770542+202869766+202679420+202427449+202420223+202553855+202493949
2467+202248203+202178617+202406650+202621039+202607676+202500315+202414173
2453+202350023+202442934+202764071+203078368+203224890+203355856+203541169
2440+203647601+203717977+203890400+204103422+204240368+204286455+204329315
2426+204436063+204556963+204664377+204850619+205152097+205379674+205436407
2413+205502398+205686045+205932247+206183096+206420073+206552827+206534361
2399+206602931+206911914+207245064+207394602+207433902+207457630+207296149
2386+206653349+205249971+202851738+199378331+195054820+190417554+185820887
2372+181102215+176205876+171616294+167614235+164173166+161860303+161374389
2359+162690047+165768697+170792056+177587824+184302203+187380800+185194467
2345+180281362+177076236+176345558+176754362+177903332+179198174+179954105
2332+180394423+181474560+183357154+185235801+186842433+188783723+191456269
2318+194512156+197202484+199128798+200706002+202413700+204178322+205819712
2305+207311407+208528174+209419596+210234258+211080837+211880681+212634683
2291+213293898+213864901+214473504+215060607+215336481+215218229+215019465
2278+214983760+215073970+215185523+215285308+215426516+215559463+215641484
2264+215836144+216120681+216285301+216422037+216712712+217012980+217168743
2251+217360966+217667810+217846109+217861208+217942001+218134750+218290758
2237+218393490+218541116+218706490+218834475+218885016+218858553+218866427
2224+218905166+218982013+219190580+219365845+219383838+219444989+219626549
2210+219812599+219971326+220113831+220245218+220359577+220446911+220554956
2197+220706879+220869008+221036837+221211190+221380211+221542516+221652806
2183+221719218+221878050+222110871+222228176+222196417+222140439+222173303
2170+222325699+222554504+222831360+223138380+223382617+223519563+223635903
2156+223786651+223970544+224132884+224195035+224217149+224301519+224444165
2143+224591107+224699713+224748852+224785574+224947616+225246762+225483370
2129+225547556+225558306+225664615+225855926+226020615+226138446+226244931
2116+226313115+226355800+226411286+226460828+226539797+226694193+226844450
2102+226918105+227012401+227210621+227422170+227549173+227556731+227519640
2089+227605536+227815945+228010290+228125560+228183783+228239480+228318169
2075+228368184+228384827+228454256+228533453+228465251+228338459+228416779
2062+228636587+228801523+228984784+229232564+229409968+229386205+229210976
2048+229102930+229105596+229093145+229109314+229247032+229424243+229606575
2035+229814195+229961312+230051102+230154044+230210671+230164917+230132052
2021+230136542+230030548+229991581+230314717+230735131+230900031+230974213
2008+231155878+231368479+231567488+231732038+231836418+231962579+231980536
1994+231555335+231098199+231362358+232045020+232634911+233125490+233484033
1981+233715030+233885753+234038657+234216903+234448303+234551105+234313199
1967+234204768+234745187+235474532+235904468+236186059+236400168+236544953
1954+236786928+237091072+237242872+237162518+236693667+235874164+235889684
1940+237263583+238484489+238852958+238999129+239290892+239686929+240069673
1927+240072146+239389783+238826180+238753226+238577786+239215904+240929827
1913+241951074+241873263+241886205+242602713+243540485+244262254+244805952
1900+245150694+245093436+244950106+245177806+245085579+244772755+245724293
1886+247365052+248374375+249005285+249578919+250088333+250593766+250896647
1873+250069498+247596575+245895594+247822399+251272025+253428003+254375087
1859+254956104+255526424+256105687+256662959+257069431+256881628+255583962
1846+253573752+253753120+257065310+259818509+260867675+261652472+262053525
1832+260685484+258935978+259625234+261513860+263526806+266162998+268213543
1819+269226636+270048524+270591275+270198745+269863456+271087449+272996207
1805+273839157+273141694+272212340+272952435+274620060+274560575+272702972
1792+273235096+277710548+281486204+282683804+282829816+282882708+283556005
1778+284900196+284651715+281664906+279311322+281745769+286715377+290830690
1765+292326137+291745664+292317947+294132883+295697549+297045335+296327863
1751+293433877+292678893+295602148+298880193+300511236+300948187+301988971
1738+302883883+300807471+299428785+304001409+309703904+314022348+316693544
1724+317802125+317670142+314615623+309539443+309548843+316221519+322956381
1711+326739701+326926961+325062956+324405039+323604512+320788180+321016932
1697+325828620+333455553+341425333+345165723+345678539+343855326+339001970
1684+338814850+347881778+355872883+358891136+359415421+361166172+362719596
1670+363929051+369748518+376716201+379640140+382154801+387776065+392337536
1657+391356413+385194588+385653320+396537640+401706977+404969133+415164320
1643+426060388+432196784+433683463+431782070+434730490+447004403+457321857
1630+462281873+465544977+468928735+473176504+480368976+486853375+489465085
1616+494161871+503616752+511520032+516757272+522021484+528317396+534308971
1603+539674967+545294268+551105528+556370301+561255329+566374019+571581411
1589+576609821+581530063+586744750+592683644+598652878+602079741+602461626
1576+606004164+614226056+619653326+623111196+629977199+638388771+644673389
1562+646233056+642215337+645873689+663764412+680009116+692611813+703523875
1549+713987272+722083809+725916268+726543460+729588860+745842753+764779662
1535+775264735+783759011+795304438+804508049+809498790+813158965+816072066
1522+820212685+828779844+839321456+850847312+861575517+866758744+864736451
1508+858976539+864900597+885272100+899414261+904892880+906631986+910317134
1495+917714298+922724680+923246650+925692005+934698290+944721228+951258519
1481+955123596+957171774+956086236+952345250+951210748+957681609+965943625
1468+967926004+965227205+964949139+965961723+961613537+953427421+954233911
1454+962892894+966777122+964056367+958409603+955770640+956323897+955142115
1441+950123596+940731568+929742764+924954680+923394802+918661154+914135143
1427+914413770+919007053+923167874+921893217+919607168+924086741+932578912
1414+939500683+943619135+946275144+948752276+950966353+953856305+957506590
1400+960369114+963502830+968033961+973547163+978658838+980129348+977860205
1387+975131383+974815998+976789889+978847887+980875652+984590192+988924699
1373+991461106+992818537+994384097+995738442+995766431+994052859+992299092
1360+992708265+994508750+994520324+992085913+989664548+988139884+987063606
1346+984679841+980843524+978094078+976497302+974625687+970858255+965242497
1333+961491760+961305798+962474532+963619906+965321624+967646955+969449966
1319+970373182+972531773+976360794+978604825+978883312+979789201+981941899
1306+985364484+989512959+992616581+994306584+995393385+996808829+999350426
1292+1001902967+1003659891+1006828400+1012966268+1019890845+1024864049
1281+1029290029+1034998172+1039289257+1040685059+1041728720+1043421458
1269+1044786395+1045527648+1046353288+1048653226+1051973325+1054013085
1258+1055006449+1056613537+1058499182+1059335695+1059869590+1062028321
1246+1064571602+1066583583+1069883059+1073107686+1073741823+1071895882
1234+1068151950+1065344281+1065768956+1066748010+1066383872+1065254141
1223+1063842766+1063961737+1065218015+1064122516+1060342738+1057225156
1211+1056566748+1057643378+1059758687+1061061613+1058808464+1053456041
1200+1048306766+1045535434+1045305770+1047023551+1048367654+1047136208
1188+1044916169+1044527339+1045228607+1043995478+1040629432+1037309825
1177+1035905745+1036916085+1038915790+1040176768+1039654026+1037950766
1165+1037232592+1037918918+1037262896+1033997021+1031086656+1029292905
1153+1026416982+1024315633+1026102650+1029457612+1030795192+1031084832
1142+1031740575+1031477029+1029898000+1028798503+1029306584+1030038296
1130+1029036865+1027783182+1028719025+1029287503+1027889246+1028066439
1119+1028194950+1024399530+1022025656+1024799864+1027841545+1028164226
1107+1024945841+1019953978+1020172840+1025771201+1027462677+1024025782
1096+1024254955+1027538366+1027833268+1028081381+1030860008+1034717580
1084+1039116693+1041787503+1039500543+1034866574+1034140474+1037237221
1072+1040064602+1040014656+1037136349+1034858858+1035159862+1036911946
1061+1039583387+1044724174+1049767034+1050190236+1049668757+1050611264
1049+1050607125+1050874599+1049853597+1045285637+1043358816+1046707675
1038+1049622109+1049567674+1045686042+1037171353+1028814707+1026312252
1026+1029387394+1032489824+1033557054+1034643855+1033822002+1028705276
1015+1024160045+1026313164+1031307061+1031277669+1028005762+1026592142
1003+1026827488+1028840802+1033149705+1034987228+1032013801+1030736408
991+1035548271+1041927168+1045930367+1049376100+1050841419+1048510616
980+1045581732+1043823405+1045160634+1050512145+1054612078+1053550390
968+1050681271+1051126921+1055897748+1061801884+1065406081+1065985573
957+1064038408+1060220680+1057754141+1058715447+1059726559+1058112807
945+1055623540+1054390691+1054939247+1057237011+1062254548+1068372144
934+1069750058+1066261184+1063042379+1060769938+1059075306+1059274316
922+1061452758+1065732199+1070470337+1071630512+1068416337+1064159203
910+1062517041+1062805840+1061986934+1061521292+1061352446+1059555047
899+1060330322+1063463967+1063104109+1062701600+1066290646+1068028489
887+1064025080+1057289061+1051313795+1047808436+1046140530+1045716135
876+1045705332+1043604614+1040547640+1040270415+1042819168+1044054823
864+1040011640+1033892781+1032132982+1033931433+1035355785+1036351675
853+1034234682+1027413503+1023367725+1023842065+1023804816+1026013562
841+1030360836+1029330153+1025474616+1025378934+1025996656+1024669459
829+1024506786+1025232606+1024717510+1024246958+1024069835+1021516172
818+1016819000+1014585983+1015834615+1017320136+1018978783+1020890312
806+1019755179+1015096309+1008841153+1004036374+1005420181+1010346807
795+1010500080+1006329508+1003438995+1002269139+1000321273+996622235+991685298
781+987235398+985778216+986647208+986254310+983928417+981399656+979132266
768+977799808+978554599+979593068+977613846+972874726+966888236+958214592
754+949965834+949600504+955199707+958661995+958239214+954901438+949618742
741+944538563+940139590+937292569+936133726+934381221+931533849+928623414
727+925199076+920022794+913344506+906448620+902174019+903455550+906468682
714+905438560+902993346+903837716+906377560+908753538+912537034+916133094
700+915521896+912403823+911868665+913664100+914363965+913258435+910286760
687+906876452+905524071+905482403+906323897+909190490+910796595+908255348
673+906275845+905295599+900968808+900842051+909036866+913702821+912331501
660+912381586+917411610+921447848+920918652+918188076+914169024+910364905
646+910099746+909371331+903501076+898913967+903563718+912140488+912438336
633+906733280+891408144+867757930+863468458+877285414+886242034+895706596
619+901556156+892337393+884190700+886216150+889816700+886214536+881743311
606+888385473+902382498+906399236+894319281
##END=
