##TITLE=Sample description
##JCAMP-DX=4.24
##DATA TYPE=INFRARED SPECTRUM
##DATE=12/9/2023
##SAMPLING PROCEDURE=Instrument type and / or accessory
##ORIGIN=Default
##XUNITS=1/CM
##YUNITS=ABSORBANCE
##RESOLUTION=4
##FIRSTX=4397.6552
##LASTX=599.8556
##DELTAX=-1.9287962
##MAXY=1.9623463
##MINY=0.34105647
##XFACTOR=1
##YFACTOR=1.8275774e-009
##NPOINTS=1970
##FIRSTY=0.34648687
##XYDATA=(X++(Y..Y))
4398+189588064+191015564+191867947+190989146+189184694+188061370+188125815
4384+189119173+189748525+189044209+187943062+187390189+188343677+190601186
4371+191886619+192159973+192733295+192734078+191612612+190527788+190036703
4357+189257945+188263250+188647753+190074878+190658848+190543492+190668828
4344+190829843+191041900+191450113+191503306+191263610+191592082+192102295
4330+191532887+190563044+190475932+190620706+190580036+190851580+191297430
4317+191836442+192337752+192209856+191463811+190863354+191415607+193146547
4303+194206797+193472688+192458082+192313471+192172774+191484896+190978074
4290+191419423+192555516+193537899+194424185+195116026+194776400+193863648
4276+192990718+192142280+191893370+191938165+191245215+190103839+189541932
4263+189735317+190046357+190465871+191211835+191601100+191315058+190867447
4249+190699061+191059250+191749053+192342367+192578819+192298338+191940938
4236+192155864+192830811+193170421+192636073+191819760+191541302+191715412
4222+191848118+191991343+192662066+193742030+194529936+194764121+194825061
4209+194838775+194606514+194274666+193197735+191198072+190520352+191971106
4195+193391267+193964572+194723957+195260702+194548184+193202220+192249156
4182+191946254+191948276+191864327+191880227+192366828+193213292+193642607
4168+193615048+193908786+194046042+193375384+192300752+191509275+191714971
4155+192483831+192686429+192495604+192524826+192688467+192883385+193247781
4141+193852478+194502084+194841286+194763387+194326017+193780368+193222978
4128+192184662+191258457+191880112+193827577+195506384+195785446+194897725
4114+193974291+193714977+193810177+193653761+193313923+193019760+192566393
4101+192179525+192654174+193829371+194626849+195038356+195377803+195038617
4087+194096202+193663577+194344819+195166611+194633747+193391952+193240835
4074+193799138+193755598+193516293+193707460+193827838+193342933+192598029
4060+192484956+193069383+193664377+193720897+193154032+192825691+193135263
4047+193400219+193679460+194171427+194369606+194277716+194149689+193970312
4033+193733225+193466866+193624702+194345047+194763208+194428164+193759658
4020+193069154+192480080+192534578+193634616+194812374+194641688+193325158
4006+192486586+192654239+193181265+193931502+194420598+194119945+193793283
3993+193901317+193818967+193497833+193825767+194732551+194926637+194152331
3979+193628077+193797784+193831980+193873987+194566285+194967307+194534323
3966+194394441+195010112+195502242+195100176+194404584+194467578+194508835
3952+193422087+192385988+192485200+192682825+192756402+193724386+194970470
3939+195462909+194940596+193374568+192354989+193313613+194394539+193814907
3925+193157473+193741509+193788717+193156185+193751195+194980874+195112472
3912+194506389+193847113+192264566+189874774+188930713+189975812+191787342
3898+193629512+193892887+192139753+191316510+192652787+192605986+191710585
3885+192441204+192703812+192975552+194451434+194014749+191836948+190033605
3871+189347520+191085684+192803399+192866230+193845303+195383739+194853255
3858+191524033+186680900+186616699+192665409+195555125+194658093+192536421
3844+190713101+189311758+187892788+188198658+190760506+192345156+192665882
3831+193329235+193972905+193993990+192393212+188948552+188186379+190424712
3817+191878482+194249244+196163719+195204769+192551162+190996452+191149216
3804+190507959+190963675+193164893+193599197+193728854+194449151+194410145
3790+194226414+194219043+193967149+193866518+193583396+193223859+194155723
3777+195469889+195420478+193895887+192601975+193207601+194456294+195447564
3763+195297638+193371030+192151249+192410873+191304084+188270996+187184966
3750+190090581+190812965+189488738+192047960+194800551+193439079+190393761
3736+188982063+190737073+194098665+195977020+195371394+194364632+195025262
3723+196639329+198367025+199918066+200418006+199165253+197507270+199275406
3709+204087099+208051611+210033157+211943719+216664680+222443916+225976112
3696+227040471+225961436+223382124+222372850+224171497+224856098+223120837
3682+220181319+216621205+212284160+209546882+210906348+210920372+209170598
3669+210965690+213985503+214794641+214347258+213732353+212578469+211654547
3655+211664934+209928123+206453328+206908457+212200261+216070517+217151004
3642+217291472+217570338+217598827+217159646+216257803+214374784+212953530
3628+215311605+217991711+217751134+215945818+214837822+216101142+217769594
3615+218016938+217731696+217259152+217084047+218142894+219276818+219398696
3601+219069866+218731316+218285303+218329381+219057586+219063147+218222684
3588+218902018+220975356+221791636+221612993+221671404+221718010+221284129
3574+220906801+220655853+219588249+218382460+219329196+221395196+222485124
3561+223043819+223487712+223270160+222454141+221942068+222104307+222187652
3547+222118526+222762735+223815042+224156185+223760985+223624756+224080781
3534+224412091+224359892+224174905+223947586+223802225+223901518+224245270
3520+224493218+224478102+224457163+224272160+223760300+223516542+223787826
3507+223917564+223734502+223905024+224473373+224760996+224691316+224605818
3493+224388837+223893838+223577906+223747939+223941210+223964920+224256815
3480+224674601+224643585+224314705+224348526+225017179+225856631+226163757
3466+225743477+225073454+224781037+225057718+225663507+226214097+226441694
3453+226438318+226361708+226173802+226049135+226240156+226586044+226868334
3439+227116706+227461551+227823974+227993371+228106574+228465084+229084082
3426+229540140+229580989+229705314+230109434+230408684+230751343+231369591
3412+231741684+231526350+231356659+231846766+232881120+233870955+234264492
3399+234389926+234843293+235369635+235723040+236139913+236689557+237263808
3385+237644609+237724465+237918045+238583045+239290639+239550915+239717296
3372+240205544+240770109+241317828+242036478+242541865+242587231+242677425
3358+242927526+243343909+244233342+245016421+245139735+245229440+245801734
3345+246521183+246902572+247064565+247323358+247669083+248281411+249247552
3331+249968061+250069670+250064615+250253890+250360766+250403964+250531468
3318+250665920+250530751+249900045+249351787+249602001+250158266+250209747
3304+250045845+250239296+250794044+251647145+252711650+253607150+254133899
3291+254809775+256096186+257735660+259363018+260801346+262134281+263357812
3277+264221089+264989866+266037412+266935961+266997813+266652349+267216523
3264+268685263+269593449+269383072+268951475+269047980+269543305+269810658
3250+269385013+268453442+267438934+266924285+267280707+267917790+268392617
3237+268836429+269067467+269020144+269136722+269422079+269188840+268372038
3223+267616126+267518904+268239299+268619562+267783453+266770885+266398205
3210+266408511+266476446+266228547+265715675+265513941+265568683+265311734
3196+264872309+264732020+264764585+264553654+263945467+262894546+261562361
3183+260617712+260348989+260038112+259201612+258334519+257902237+257775466
3169+257792213+257879341+257851375+257721848+257533095+257198328+256990479
3156+257191740+257416777+257165959+256610281+256158544+256023751+256338248
3142+256735910+256784212+256575498+256008911+255184380+254738889+254633170
3129+254270421+253535986+252736567+252072366+251525772+251100420+250668838
3115+249928696+249047335+248348123+247533131+246512198+245687536+244888313
3102+243720683+242373398+241329325+240865211+240571424+239827563+238772370
3088+237979914+237597629+237262340+236858269+236691090+236706598+236520143
3075+236220274+236205548+236335157+236227498+235928949+235685078+235618675
3061+235566656+235514800+235637706+235712685+235787062+236029400+235918219
3047+235406668+235241136+235381196+235128552+234641494+234425443+234259796
3034+233925486+233610076+233455942+233467145+233447560+233139390+232643722
3020+232238982+232045712+232146766+232369080+232307309+231878549+231379407
3007+231116669+231011929+230815348+230556768+230322142+230020202+229727132
2993+229895698+230665389+231495236+231899340+231994964+232153289+232379370
2980+232494627+232606575+232834449+232945158+232699346+232337085+232183751
2966+232010423+231497242+230995720+230857094+230863095+230908216+230935808
2953+230719561+230324050+230090681+230218821+230545940+230863339+231131166
2939+231256469+231117745+230898106+230816114+230683799+230474613+230404982
2926+230399063+230163785+229557882+228918060+228553533+228349695+228094703
2912+227749386+227593670+227701818+227825653+227962861+228230736+228435340
2899+228277912+227902133+227688414+227860192+228380043+228811461+228844352
2885+228763421+228933568+229307390+229695562+230014397+230141950+230110543
2872+230146956+230333231+230633150+230858301+230766166+230560029+230496954
2858+230325844+229983772+229810102+229728209+229357208+228745352+228318125
2845+228272808+228389648+228505754+228772732+229254441+229686789+229890855
2831+229961317+230013891+230181119+230449419+230524121+230311086+230229812
2818+230554534+230702846+230341613+230179799+230441249+230583430+230578423
2804+230807537+231302389+231720093+231890045+232026551+232197416+232355039
2791+232654387+232923600+232859872+232656703+232563622+232585392+232630400
2777+232765976+233121436+233376576+233211386+232856415+232593986+232452670
2764+232463383+232598992+232728062+232866998+233073804+233295644+233456888
2750+233592807+233792290+234011815+234173467+234197389+234069738+233930818
2737+233940423+234102042+234166259+234071222+234072494+234249555+234457111
2723+234594106+234784817+235097063+235276440+235202684+235156404+235333808
2710+235632553+236024068+236354953+236391187+236434597+236661378+236721241
2696+236617154+236687567+236938826+237156100+237424057+237854595+238190405
2683+238325557+238384638+238416208+238477408+238503712+238323340+238009707
2669+237949860+238264586+238527634+238519008+238388519+238185855+238035162
2656+238041816+237983355+237803635+237791421+237991117+238152768+238136249
2642+237993302+237863074+237849964+237888236+237822030+237708973+237701472
2629+237655176+237392307+237059025+236835847+236767977+236864922+236993813
2615+236962031+236815023+236696716+236548583+236356046+236249267+236137450
2602+235929487+235800401+235796862+235760938+235688469+235698629+235716110
2588+235630188+235553904+235543875+235457366+235244413+235098726+235126938
2575+235152213+235084670+234991214+234874130+234726600+234522763+234211185
2561+233839613+233539352+233383278+233287849+233176799+233154328+233230302
2548+233176570+232965688+232850316+232835346+232745837+232656572+232589192
2534+232396182+232148511+231976766+231851022+231718169+231597057+231576298
2521+231647886+231660850+231533297+231313967+231013723+230681272+230551044
2507+230636868+230664557+230630410+230694578+230769754+230714636+230531524
2494+230364639+230451098+230773977+231041657+231161040+231331660+231609271
2480+231709755+231582462+231515750+231534014+231585952+231751484+231880163
2467+231842706+231788958+231766813+231775032+231908651+232064334+232147353
2453+232238379+232347864+232504102+232711315+232838526+232864992+232922442
2440+233083832+233277706+233369238+233396095+233536270+233747968+233826013
2426+233786942+233868656+234100933+234267281+234315925+234338624+234427823
2413+234703591+235150974+235512549+235607766+235610718+235676940+235764085
2399+235926177+236226796+236528313+236683654+236768483+236865281+236855953
2386+236538864+235602010+233774075+231223627+228249375+224882972+221280770
2372+217684129+214138430+210685829+207313555+204316751+202372923+201930758
2359+203088866+205711946+209687073+215076654+220559332+223136785+221411650
2345+217370463+214661771+214199794+214751590+215574980+216527766+217640458
2332+218753510+220019488+221730224+223523995+224998034+226460431+228373814
2318+230641303+232717039+234343109+235791432+237223872+238563591+239842762
2305+241091699+242216964+243141180+243869435+244423710+244874224+245325488
2291+245841181+246444801+247005159+247414008+247723890+247894543+247935947
2278+247962315+248044943+248296006+248629484+248781579+248791690+248906491
2264+249165740+249428772+249618634+249787004+250030223+250346416+250619265
2251+250815129+250976535+251075780+251152912+251276030+251365816+251451722
2237+251643525+251817749+251912313+252098458+252342459+252409090+252326903
2224+252329071+252479911+252667670+252811172+252920967+253010509+253089663
2210+253164251+253209242+253293174+253476090+253624745+253701094+253873019
2197+254161588+254395170+254468649+254462534+254555353+254731469+254766790
2183+254685271+254743601+254975585+255208710+255327458+255356451+255387288
2170+255503280+255755680+256063556+256270965+256341493+256387429+256507824
2156+256632263+256696105+256794697+256980988+257170835+257290773+257385500
2143+257530437+257667840+257694469+257670383+257734861+257881543+257997029
2129+258067638+258172933+258338286+258559980+258810276+258972254+258994839
2116+258997856+259089061+259261687+259449804+259546864+259550924+259576135
2102+259589392+259559746+259623767+259794600+259955925+260090115+260216348
2089+260269068+260277646+260374982+260481810+260497122+260524860+260575901
2075+260600133+260691893+260892779+261059502+261055017+260957942+260944456
2062+261055376+261242401+261404526+261480696+261559100+261704346+261900536
2048+262019088+261922501+261743418+261698280+261817664+261998623+262192497
2035+262383647+262485648+262500259+262495040+262519419+262611440+262723958
2021+262796541+262838385+262968775+263295780+263673108+263910114+264098280
2008+264386963+264648658+264740238+264791133+264935988+265166862+265388931
1994+265437591+265430677+265650316+266001847+266315724+266610799+266921578
1981+267220698+267459416+267650453+267783958+267882387+267950029+267906815
1967+267939282+268274212+268680632+268954557+269229346+269530439+269752997
1954+269915496+270044713+270102570+270118323+270075517+269977023+270225085
1940+270907501+271549198+272048926+272416861+272603495+272796684+273127276
1927+273393961+273410039+273451932+273580872+273652590+274134690+274987286
1913+275470300+275577469+275811475+276322537+276907893+277401898+277806018
1900+278131767+278329049+278528321+278860136+279077117+279228609+279757412
1886+280487869+281082683+281585396+282032534+282463006+282902611+283271182
1873+283283151+282786668+282596039+283651461+285219771+286310547+286943716
1859+287494501+288096589+288653636+289105927+289482032+289762806+289736193
1846+289461975+290142336+291975896+293300840+293860171+294437015+294952740
1832+294739608+294418001+295177516+296440983+297797563+299356611+300561080
1819+301345512+302089405+302663216+302799576+303064988+304059879+305335120
1805+306248182+306541708+306638148+307407480+308588401+309033093+308864805
1792+309835952+312131490+313920663+314888190+315533752+316033236+316872166
1778+318019658+318316413+317452304+317184674+319156191+321961453+324047837
1765+324862764+325028704+325927416+327252034+328417137+329467863+329646947
1751+329119774+329499629+331161738+332995037+334234630+334905990+335881149
1738+336815606+336622009+337187406+339962631+342617086+344752978+346262681
1724+347142313+347581591+346778047+345308036+346325691+349944869+353229916
1711+355278728+355948425+355826774+356108657+356090589+355314310+356069259
1697+358707929+362712507+366755014+368757613+369511421+369289254+367883003
1684+368917161+373676199+377540112+379213472+379883657+381200872+382414994
1670+383625855+386956757+390369293+391845501+393433804+396545866+399025543
1657+398888727+396523297+397439621+402553629+404798420+406798116+412170101
1643+417282610+419932596+420424840+419651888+421451236+427120954+431574138
1630+433914879+435927000+438268296+441247521+445672330+449508489+451800015
1616+456058004+462670431+468000475+471998627+476182908+481019730+485889231
1603+490829929+496233126+501763322+507078038+512506152+518347029+524298435
1589+529993398+535471085+541395422+548287840+555258108+560520119+564795491
1576+571867711+580167979+585803746+591234633+598796258+606371582+612940893
1562+617719760+620787500+628822942+642152944+653841482+663929389+672818405
1549+681414417+689073493+694803450+699184231+705928418+719126203+731000902
1535+738721880+747125403+757001059+764920852+771762164+778983169+785894601
1522+793757580+802313868+810191849+819665635+829365566+835145749+837630350
1508+841107265+852398565+868059360+878148963+883342811+886648307+891472442
1495+898382505+903703352+905693459+907409674+913112953+920964386+928364507
1481+934267058+938370293+942172696+944911882+943992493+943747366+948631511
1468+952897033+952645710+951502262+952122124+950904839+945307425+942025476
1454+944264037+946235033+947462885+947204974+945559336+944551823+943044925
1441+941157422+940769510+938655731+931490692+923782303+916856586+911445463
1427+909921019+911771342+915319552+917610491+919608230+925987271+932466112
1414+935741603+939232412+942961955+945258895+948206029+952747857+957099480
1400+960818913+964481794+967694536+970481273+973182366+974663825+974170114
1387+972947023+972980616+974691025+978745861+984678547+989483375+992946657
1373+996703597+999432020+999277756+997259144+995613245+994829334+994877538
1360+994872189+992887430+989949951+989923990+993050174+995398449+994470776
1346+990388935+985310411+980173964+974365798+970480490+970794759+971876370
1333+970251083+968043114+966787801+965189583+964703373+966432047+969175147
1319+971959732+974646279+977215872+979127771+981230658+983651401+984082167
1306+982710486+983345547+987291452+991478244+993646424+993788360+993603112
1292+995817604+1000217366+1004363586+1008220389+1013528517+1020154120
1281+1027194769+1033117866+1035229950+1035251410+1037771952+1042477503
1269+1044826886+1043245758+1041513106+1042858956+1045738057+1047106671
1258+1047961028+1051221256+1056078918+1059748452+1061377196+1061945789
1246+1062866483+1064170456+1064254927+1063302336+1063252176+1065113458
1234+1068603941+1070527385+1068748030+1067199973+1067743453+1066545344
1223+1063729580+1063436511+1065949486+1068953563+1070294391+1069867930
1211+1069770414+1069793700+1068311850+1065815247+1065000548+1066951649
1200+1067803071+1066095336+1067171403+1071696076+1072976046+1070265886
1188+1068142583+1066953476+1064928863+1061409875+1056935949+1053683419
1177+1054759812+1059527394+1063112001+1064206201+1064022845+1061892171
1165+1059301118+1057929568+1055894323+1053519957+1053135960+1053532220
1153+1053519174+1053475602+1052179912+1048287103+1042495897+1036461847
1142+1031770516+1030915833+1034540620+1039541719+1042843888+1041977856
1130+1037402631+1035117497+1037270087+1040049715+1042053781+1041829397
1119+1036279665+1026760872+1019453179+1019076487+1022881826+1025176222
1107+1024256637+1022287859+1020996997+1017924234+1012504697+1009198353
1096+1010214932+1013169697+1016390462+1019625838+1019869073+1018142618
1084+1020804704+1027633036+1032608696+1031598444+1025552066+1023327986
1072+1031620687+1042438822+1044439040+1040074241+1036964364+1037318226
1061+1039639235+1040805382+1038878415+1036931554+1038162733+1040217416
1049+1041257608+1043782585+1046775900+1044432778+1037996923+1036096961
1038+1039021265+1038464348+1034453932+1034308539+1039322096+1042924380
1026+1038241463+1029793780+1027815153+1032457302+1032898765+1024403009
1015+1018985886+1023629926+1028127008+1024809706+1019276868+1018826534
1003+1023503188+1025609793+1021896817+1021102796+1027100514+1032065151
991+1034678056+1039371278+1041781780+1039906083+1039284525+1041820200
980+1047060816+1052627442+1054228399+1053599079+1052699649+1050184195
968+1048856609+1051002872+1055119479+1059066297+1059600254+1057240695
957+1057020811+1059670961+1062646664+1065783611+1067473017+1065382785
945+1062707587+1062635902+1063370826+1064125058+1066962347+1071414682
934+1073741823+1072241839+1069536506+1068664146+1069373501+1068629054
922+1065489106+1063349757+1063896890+1063837532+1060871679+1058668863
910+1059802983+1060269559+1057357975+1054402297+1058093030+1067767196
899+1069689335+1062316415+1060270342+1065263678+1068049698+1065967685
887+1063488758+1063732646+1064759857+1063786589+1060828433+1057174488
876+1054307390+1052745048+1051558224+1050456457+1048666795+1045054010
864+1042216851+1042857847+1044736610+1045403632+1044627941+1040594761
853+1034432276+1031138130+1030936380+1031311637+1031762819+1032016556
841+1034029558+1039227124+1042238181+1040622222+1039661543+1040444736
829+1040679883+1037644953+1028987757+1020690947+1017760773+1017012346
818+1016994408+1017882945+1016812748+1014086673+1016017162+1024857714
806+1032001358+1031089535+1028224328+1027798520+1026244918+1022064258
795+1017207313+1012924244+1012010856+1014427555+1012820662+1007069506
783+1006477888+1010586341+1011125255+1006132440+999702912+997454828+999766966
770+1000343125+998384654+997672689+995523165+990553375+987659860+985530164
756+975714975+961852256+959640243+970686350+978971876+977203022+972606990
743+969481784+967604651+965041776+959973688+955472562+955606997+958512058
729+959721452+957453603+951161641+942083399+934564432+930156191+926740199
716+925690484+927855011+929159311+929496083+932956366+938901836+943833663
702+944032086+936246990+925373541+920919314+925663349+934695802+939948746
689+938220072+932686908+928609765+930309281+935283050+938932167+940002559
675+937663090+933536047+925336948+913791846+919211513+940212267+950990744
662+949080867+943131874+940591894+944472637+947687596+941025922+930877287
648+926785924+930533796+940443957+949417183+952947389+948983221+935089909
635+923555701+922479634+930389186+952391190+976180312+979555798+970162764
621+956320462+945846143+943838881+939877778+935629215+933444336+928089180
608+925075840+923159114+915282698+912180192+924945254
##END=
