##TITLE=Sample description
##JCAMP-DX=4.24
##DATA TYPE=INFRARED SPECTRUM
##DATE=12/9/2023
##SAMPLING PROCEDURE=Instrument type and / or accessory
##ORIGIN=Default
##XUNITS=1/CM
##YUNITS=ABSORBANCE
##RESOLUTION=4
##FIRSTX=4397.6552
##LASTX=599.8556
##DELTAX=-1.9287962
##MAXY=1.8510842
##MINY=0.24958876
##XFACTOR=1
##YFACTOR=1.7239565e-009
##NPOINTS=1970
##FIRSTY=0.26751202
##XYDATA=(X++(Y..Y))
4398+155173299+155602332+155641989+154353507+152670187+152475637+153528598
4384+154290392+153960639+153216358+153162249+153563121+154332331+155896231
4371+156949435+156559626+156201799+156831986+157408392+156978028+155998744
4357+155196827+154695932+154575872+154878882+155209672+155249017+155020619
4344+154995812+155684204+156261025+155758902+154859866+154556199+154599279
4330+154370708+154585294+155866134+157148185+157373886+156624263+155921384
4317+155891581+155743361+154822940+153717080+153503584+154625867+156325714
4303+157245391+156903727+156186587+155806943+155492490+155144084+155271387
4290+155855676+156419082+156972841+157472492+157724920+157928372+157950275
4276+157320020+156479068+156204479+156140810+155870733+155870370+156175194
4263+156292090+156127603+155775325+155735582+156356710+156652649+156495647
4249+157357481+158622573+158196617+156824293+156701312+157469346+157560588
4236+157051567+156886976+157009663+156685114+156324106+156724442+157587124
4222+158348796+158706139+158667692+158597904+158621881+158482875+158686103
4209+159494036+159344278+158325044+158294324+158748666+158680692+158630369
4195+158568862+158069332+157767774+158230690+158905737+158911390+158158534
4182+157405245+156921084+156715487+157098709+157691417+157757350+157497542
4168+158088175+159259467+159316843+158629194+158130459+157269143+156519036
4155+157085485+158382472+158764086+158107640+157750159+158015344+158249965
4141+158550970+159056170+158979968+158059011+157117086+156733310+156759967
4128+156788007+156908706+157359901+157657655+157448774+156890710+156509061
4114+157065397+158236188+158649489+158024454+157683430+158069678+158354829
4101+158410045+158220646+157585464+157027832+157212442+158003157+158580427
4087+158776273+158935263+158695352+157832774+156974605+156761679+157319017
4074+158069003+158184585+157691054+157208535+156928655+156700188+156621514
4060+156857951+157335077+157863943+158040929+157795157+157298739+156407776
4047+155854587+156462905+157293553+157329441+156955952+156681345+156540023
4033+156624298+156818104+157037634+157447495+157704832+157586640+157398763
4020+157224231+157134234+157257250+157530335+157836093+157982689+158115834
4006+158623472+159140548+158960693+157831460+156214073+155231367+155349352
3993+156112563+156986498+157473979+157528209+157429205+157478076+157912952
3979+158425672+158500906+157968876+157335129+157339485+157664847+157735862
3966+157854746+158288412+158958912+159342756+158849519+158127469+157898915
3952+157916513+158328587+159099681+158992916+157884757+157323079+157769711
3939+158223015+158034446+157454583+157314228+157946247+158436148+158038526
3925+157805841+158224899+157710087+156596967+157064481+159085264+160448530
3912+159915394+158134729+155812216+153649851+153394519+155011872+157078120
3898+159038018+159238688+156681847+154239913+154945593+155548638+154668186
3885+154999114+155482964+156048168+157672799+157038740+154391660+152474064
3871+151747813+153161505+154418300+154079489+155264230+157425869+157410967
3858+153867444+146969329+144776711+152727356+158768736+159517374+157347869
3844+154654079+152229174+149836630+149596010+152224506+154311309+155321416
3831+156507436+157288643+157155774+155032599+150929335+150427160+153031471
3817+153977512+156863241+160580068+160378188+156576343+153631509+153606270
3804+152642666+152894764+156478463+158643421+160056059+161574944+161771966
3790+161532746+161394363+161148781+161226193+160575383+159447153+160822348
3777+163520494+164056500+162263319+160794515+161804207+163501063+164612161
3763+164558104+162726114+162035682+163741960+163956321+161103765+160112329
3750+165231975+169166949+171077475+178154166+185961880+188608338+188775954
3736+189919759+192838490+197818092+202898860+205313652+206036238+206859418
3723+207815157+209318933+211307527+213167834+214667495+217366126+225090826
3709+236722392+248141274+258011105+267894402+280374612+292979497+302270934
3696+307769912+308601044+305198342+302063419+302233075+301720580+297518208
3682+290461587+282071278+272484974+263986932+261525879+260323713+258180432
3669+259790887+261988259+261547315+260365962+259498769+258031123+257078255
3655+258117732+257294776+253311468+252788496+258886803+265020359+268200333
3642+269550634+270587310+271912925+273462857+274400945+273418723+271994641
3628+274593213+278084356+277990297+274686650+270923788+270157413+270550523
3615+269814902+270053275+271974553+274407930+277102342+279245812+280385814
3601+281470653+282615184+282943364+282859124+283140351+282842511+281281756
3588+280539756+281615675+282221123+281738760+281114071+280840121+280800136
3574+280767809+280501707+280063149+280311462+281767750+282944747+283209344
3561+283696427+284617211+285029735+284627514+283968476+283548674+283474460
3547+283805786+284016828+283858858+283901090+284027909+284128607+284430285
3534+284464375+284013007+283648507+283818700+284143664+283765628+282928912
3520+282486533+282239171+281848585+281455872+281205710+281316763+281679586
3507+281810864+281754802+281784778+281632547+281266993+280936307+280624291
3493+280432040+280275678+280044911+279900356+279710958+279700084+280175516
3480+280249574+279556134+279100306+279136367+279184149+279081463+278674454
3466+277987254+277388980+277202383+277289631+277308249+277200654+276945029
3453+276548617+276116731+275758766+275566982+275505388+275517956+275501049
3439+275517541+275817283+276212381+276256481+275808570+275023940+274226155
3426+273692863+273371944+273267927+273712761+274601304+275470433+276035412
3412+275786391+274586005+273676406+274090399+275065637+275587174+275480719
3399+274950868+274588373+274706254+274946598+274929362+274815526+275045307
3385+275225768+274725495+274114376+274177215+274532743+274477579+274323845
3372+274752981+275581227+276109419+276247267+276489356+276817639+276863606
3358+276797604+276963336+277373266+277762884+277852380+277576598+277131574
3345+277049927+277523388+278005700+278210224+278485592+279085906+279801543
3331+280270630+280337721+280396480+280703812+280408702+279385268+278978708
3318+279531033+280341697+280971676+280921492+280066053+279215594+279071367
3304+279358939+279574648+279907236+280590840+281200368+281451049+282057829
3291+283419591+284355414+284597538+285298222+286280997+286832181+287312401
3277+288165281+289108641+289917145+290593730+290745788+290347146+290047421
3264+290434481+291192108+291431743+291027119+290281662+289535704+289186088
3250+289186382+289178758+288934508+288514758+288008192+287301804+286343386
3237+285725664+286138188+286866755+286436668+285122861+284759657+285557391
3223+285871412+285206496+284697665+284733329+284667465+284484134+284448696
3210+284207713+283409115+282329860+281484621+280979853+280478162+279731823
3196+279088793+278907416+278668352+277675636+276440347+275733077+275264180
3183+274458201+273155059+272070290+271864521+271660549+270387972+268884075
3169+268799109+269501815+268960968+267454824+267255209+268588482+269223699
3156+268090024+266552261+266699081+267775795+266927116+264522748+263880979
3142+265953883+267051998+264783127+262084722+261913509+262960852+262050337
3129+259535279+258869845+261281422+262718676+259743763+255912529+255715369
3115+258302705+258446240+254311409+250825573+251679110+253773156+251422292
3102+246121130+243904622+245957749+247709199+244815033+240264342+239668920
3088+243570703+245890883+242035966+237105061+236347278+238464403+238953249
3075+236320103+234112134+234771657+237187469+237495128+234525643+232163576
3061+232759379+234840684+234828376+232219189+230318586+230534520+231525179
3047+231455840+230366334+229462630+229086461+228998314+228570767+227458736
3034+226371097+226168111+226574221+226439243+225540811+225130742+227844758
3020+238810440+257621123+269419994+263663282+250245571+239818921+233417587
3007+228920677+225831478+224326751+223695372+222938211+221531295+220127007
2993+219872211+221282516+223025788+222860886+221250327+220573154+221987123
2980+224078144+224091663+222201398+220799166+221008307+222459339+222803319
2966+220862628+218955646+219082828+221649073+223953054+222300522+218749687
2953+217230819+218759471+221488924+221435213+218636231+216795493+217472044
2939+219929224+220917981+218555068+215803124+215256988+217257113+219743370
2926+219087685+215987872+213947450+214314059+215956530+215799096+213199849
2912+211189387+211491117+213326028+214418525+213338302+211650141+211051037
2899+211748402+212958503+212904775+211341669+210085238+210394799+211968467
2885+213014514+212330461+211122053+210924928+211814318+212663792+212348353
2872+211341479+210880033+211158564+211703334+211936296+211460311+210726972
2858+210454284+210664341+210665741+209861663+208648640+207840638+207663617
2845+207763157+207780600+207716585+207724572+207983257+208481560+208903885
2831+209055407+208948123+208700087+208516998+208462423+208373740+208169077
2818+208026319+208042414+208055725+207896337+207646105+207557751+207653798
2804+207786028+207988633+208297157+208557640+208697061+208753867+208739242
2791+208714124+208648951+208441626+208191222+207971484+207686972+207421839
2777+207339189+207316387+207236780+207182930+207084065+206873317+206785913
2764+206943711+207068645+207003023+206971491+207009903+207007327+207127923
2750+207408130+207658915+207809054+207858202+207777263+207552755+207267793
2737+207076649+207181703+207564406+207784472+207649269+207463415+207415477
2723+207440475+207467477+207478437+207454633+207410447+207375630+207386245
2710+207509675+207643564+207624617+207538199+207615490+207859913+207929926
2696+207756104+207670826+207760633+207840655+207745489+207564233+207521828
2683+207536366+207470710+207431796+207499268+207562228+207508984+207455082
2669+207522312+207541311+207375008+207155305+206928705+206658524+206471425
2656+206443334+206426409+206280817+206125336+206117367+206190249+206131197
2642+205804296+205473506+205424998+205437601+205325269+205184932+204947821
2629+204596373+204340367+204167962+203940567+203739863+203672910+203671319
2615+203564675+203344367+203225846+203225103+203134535+202962113+202776985
2602+202540358+202323681+202132502+201943190+201897431+201913975+201748969
2588+201499965+201408810+201389863+201137781+200684011+200390665+200259784
2575+200065856+199888853+199823697+199831390+199808554+199642528+199479821
2561+199407665+199182067+198759724+198427171+198329827+198392839+198425719
2548+198266297+198030275+197830816+197647468+197570419+197568448+197470326
2534+197334173+197301275+197307896+197281741+197207147+197042435+196911726
2521+196943690+197046653+197115870+197097166+196962810+196821798+196790025
2507+196792358+196760878+196713702+196662186+196656741+196646749+196573019
2494+196569250+196720461+196923136+197089507+197288759+197557419+197773319
2480+197836469+197765142+197702407+197773872+197844369+197757864+197641331
2467+197655334+197788445+197914244+197963737+198054443+198204167+198268509
2453+198240487+198220002+198309826+198522026+198757771+199002402+199221672
2440+199366971+199582213+199853985+199981218+200013735+200099289+200252592
2426+200391460+200432949+200473453+200624335+200796688+200921242+201031932
2413+201173186+201378090+201547764+201673822+201917588+202166938+202239683
2399+202328452+202901608+204570615+208220835+215270264+227361617+245382830
2386+268753349+295552208+323417148+350981188+378661052+407603640+438209564
2372+470232207+503015242+534483865+562426632+584203932+597067658+602511525
2359+600662005+586459146+560711953+531090394+503795274+488039232+492256989
2345+511458951+521365292+512643052+500003126+490858077+487266185+490721578
2332+496513504+496794732+492164918+488824346+487957913+484932797+476215260
2318+462200140+447519187+441155747+445193649+448516484+440382388+421258496
2305+399268633+382853847+372724467+363913440+354000115+342568458+328872321
2291+314279360+301187305+289896435+279727709+270910891+263821200+258166724
2278+253450076+249415718+245797515+242393291+239367761+236836038+234691686
2264+232790219+231015881+229386877+227904728+226513007+225226583+224040787
2251+222974808+222070845+221216997+220382529+219724735+219232137+218789879
2237+218377926+217961997+217642305+217609131+217689689+217607990+217423035
2224+217270942+217246810+217383119+217543803+217637361+217692317+217745060
2210+217877687+218136718+218436616+218720056+218983737+219182834+219324035
2197+219504755+219800539+220147129+220407353+220614470+220880693+221125531
2183+221281928+221438550+221609036+221765052+221891197+221913878+221836898
2170+221787837+221823172+221872094+221866684+221765173+221589605+221467886
2156+221432862+221345942+221129178+220821830+220530195+220334781+220196934
2143+220255814+220644688+221143976+221600530+222041820+222504182+222964833
2129+223312824+223557023+223814342+224099373+224326716+224510928+224773832
2116+225149343+225526895+225845446+226143165+226356593+226506455+226714904
2102+226968385+227241540+227594215+228049750+228503693+228987146+229613737
2089+230282698+230909306+231578769+232390194+233360332+234536309+235904139
2075+237332059+238791770+240371384+242173450+244214512+246583839+249279720
2062+252096180+255066184+258249132+261579971+265032581+268623609+272324307
2048+275940627+279400498+282804807+286201009+289356747+292036863+294400675
2035+296505353+298175708+299315382+299990722+300328894+300364574+300102432
2021+299634468+299026928+298079937+296756605+295284810+293696845+292083296
2008+290571533+289015343+287263029+285452873+283765507+282195573+280727305
1994+279317727+277974064+276845800+275899829+275005806+274219690+273562138
1981+272938002+272381753+271967569+271635258+271296603+270915645+270560014
1967+270421561+270593655+270908385+271199414+271488992+271872922+272330237
1954+272729449+273084562+273480819+273892703+274267160+274730629+275676496
1940+277032450+278220303+279089052+279751254+280328421+280960993+281616712
1927+282163211+282596704+283117186+283576835+283752196+284224481+285131694
1913+285740341+285973666+286247927+286637441+287071608+287567162+287980792
1900+288190779+288299567+288486857+288768707+288744539+288590320+289163787
1886+290184404+290864689+291310663+291861087+292347063+292507419+292545278
1873+292327875+291292443+290272362+290946457+292579230+293596096+293803784
1859+293585239+293222520+292889673+292663937+292503097+292169939+291106398
1846+289336746+288691243+289654155+290067543+289645304+289450305+289175940
1832+287548215+285293001+284711322+285264131+285663897+286072773+286361227
1819+286415094+286190862+285496419+284376764+283489673+283600587+284138080
1805+284292679+284003015+283211401+282573678+282674514+282154983+280597755
1792+280649634+283007240+284960966+285791995+285936809+285616617+285646420
1778+286135456+285579294+283249278+281559284+283738020+287620666+289930940
1765+290113873+289538850+290092748+291377184+292371750+293141028+293067005
1751+292024727+291618859+293027728+295170542+296388284+296298287+296461374
1738+297042361+296294761+296396029+299947850+303550668+306027297+307626256
1724+308516649+308559866+306649531+303782109+304631531+309513496+313785846
1711+315843745+315734248+314701824+314684744+314509245+313011208+313353494
1697+316434205+321482922+326870605+329686201+330685744+330007915+327231700
1684+328023452+334821007+340131521+341762738+341870852+343192421+344776997
1670+346504919+351230746+356288728+358731578+361252185+365877643+369716154
1657+369802175+366245237+367137151+375074588+379136000+382067557+389498307
1643+397020092+401217035+402199430+400792497+402401690+409858371+415851243
1630+418341356+419704414+420995973+422585251+425860754+428561563+428665459
1616+430308189+435523001+439702761+441902172+444301043+447896566+451855777
1603+455840814+460098954+464489860+468758372+473130262+477875520+482880431
1589+488133343+493652236+499522750+505986007+512775195+518059156+521342404
1576+527193902+535814424+541699390+546764910+554956606+564172878+572052368
1562+576584061+577474246+584948871+601668810+616561288+629312786+640590656
1549+650840977+659535177+665696600+668991395+674181970+690318018+707743550
1535+718564625+728075816+739514733+749346844+757344025+764932676+771200034
1522+778840270+790460288+803236886+816214016+828146516+837384709+843223207
1508+845597979+852665249+868358953+881306211+889102930+893458535+897908528
1495+904333960+909387068+912743613+919268688+930237741+939066296+943315620
1481+946234523+949358314+950751522+949992753+951654119+959053994+966928851
1468+969765122+967397472+964845748+964984944+963517540+957966770+955832634
1454+959664231+962230407+961952983+958900277+954958457+953350059+953422043
1441+951071265+943738188+934156396+929071756+926590149+921180926+917549791
1427+919408023+921206580+920601252+919781564+921243713+927055796+935203929
1414+942735463+948498727+952272239+954197130+955416705+957142448+958606671
1400+959617002+961187230+962476715+965434410+973005705+979530434+979833859
1387+978101616+979750535+982515513+984686020+987286425+987487924+984734494
1373+984845616+989085673+992957998+994414892+993624038+992403979+994112850
1360+996784201+996809302+995521132+994452370+994329770+994441237+992121507
1346+987829450+983892125+980700914+978164333+975621806+973103481+971906794
1333+970701464+968310787+967567232+969820579+971711380+971120505+969890419
1319+970648150+974509827+978815645+980613856+981201204+983606610+989363651
1306+994846448+994773151+991971385+992106778+994843060+997593794+1000181129
1292+1003473436+1007580520+1011859509+1016748734+1023233288+1029401487
1281+1032937335+1035354980+1039089768+1043636639+1046333713+1046294506
1269+1045776928+1046447947+1048241525+1051521799+1055232455+1056380253
1258+1055118913+1054821988+1056130143+1056765550+1057619674+1061403834
1246+1065838338+1067060679+1066265539+1066692048+1068519716+1069865349
1234+1070474756+1071929091+1073741823+1072607647+1068895193+1067677140
1223+1069928897+1070824441+1068155372+1065171469+1064241073+1065033724
1211+1068034984+1071947830+1071527821+1066762787+1063966484+1064054648
1200+1064131058+1064247919+1064001888+1062654181+1060852996+1059101115
1188+1058245124+1057908923+1056983091+1055796708+1053815114+1049777939
1177+1045157356+1044039291+1046921823+1048396625+1046189746+1043353475
1165+1041162361+1039332549+1038246570+1038414947+1040077557+1041880954
1153+1040543204+1036185386+1033612779+1034134506+1035155002+1035473639
1142+1035050795+1034082368+1032691927+1032113705+1032779607+1029932203
1130+1022004932+1017112387+1019721643+1024539714+1026236138+1024525608
1119+1021703513+1018501860+1014596067+1013651220+1016111529+1015213081
1107+1011965099+1013081850+1015508484+1015215985+1015286102+1016653862
1096+1018660764+1022062325+1024751724+1023974009+1022417265+1023130464
1084+1023975392+1024963111+1028060142+1031577734+1035229890+1038203421
1072+1037888794+1038425595+1042156028+1042715648+1039429150+1038039608
1061+1041322579+1047639793+1049808088+1046265602+1043508368+1042475564
1049+1042085219+1043207502+1044359104+1045091527+1046327075+1046945056
1038+1045798157+1045790689+1049699248+1051373683+1045281962+1037813837
1026+1033335977+1029179728+1025626316+1024502512+1025378211+1028668719
1015+1034002363+1036822522+1034687211+1030058538+1026355904+1026971119
1003+1029617646+1029986554+1030818966+1032756788+1033228382+1035685165
991+1041697503+1044557975+1042641797+1044080435+1049778008+1051160636
980+1046583340+1043173688+1044501896+1047335470+1048367306+1049298877
968+1053825279+1059885261+1062315698+1063193333+1064697662+1063093551
957+1059906973+1060737587+1063123769+1060128733+1054100560+1053616312
945+1059477560+1066217135+1070265581+1070399453+1069123660+1068685534
934+1068026548+1066818728+1064292382+1062955254+1066368501+1070829973
922+1070617756+1064557290+1058973743+1061050485+1068020117+1071577608
910+1068229222+1063350508+1064049393+1067528332+1065122166+1058852664
899+1057597201+1060512577+1061842168+1062903323+1066803999+1071026839
887+1072306158+1072286797+1071926048+1068517849+1062601420+1057020017
876+1052106105+1048164839+1045835082+1045298143+1046362133+1048073148
864+1048950022+1046961514+1043654687+1042178916+1042177533+1044184296
853+1048411769+1050491622+1045082883+1034480733+1028697554+1029860635
841+1030788748+1030269580+1032226902+1036363444+1038035735+1034461303
829+1030350829+1029473748+1028560778+1028995308+1034903232+1039428459
818+1036389236+1031680904+1029701800+1029833528+1029951219+1027797239
806+1025919991+1025588284+1023745334+1019184980+1013139935+1008158327
795+1006982799+1012676431+1019952115+1015670776+1003556137+997565858+998840683
781+999994705+997340572+993424199+991299329+991123761+990041446+986366195
768+983078314+982511917+983236941+982195908+978007781+973391762+973718144
754+979100814+981335353+977465448+970839070+962611140+957103172+957031396
741+957646127+955795778+954420688+955578790+955716880+952074819+947149637
727+943038680+940013771+938138529+934819116+927728682+921047607+918461101
714+917397526+917570674+922205294+929081575+932901486+933039230+931392247
700+928961395+928697731+933947290+941521835+944184750+940166313+933751807
687+928930140+927824798+931377587+936058122+938132997+939117397+938979999
673+939531114+946099545+954496406+952668530+947930809+947655598+945548638
660+940844385+939271599+939827900+938941414+938488628+938658803+937613898
646+934971174+929390739+919711240+907796579+901444099+910662653+937955354
633+965020625+964217463+942524490+923862372+915259933+910630015+904269306
619+904396955+918335251+934534362+933370452+918176278+911116545+918974599
606+927208269+923207327+916915836+921462361
##END=
