##TITLE=Sample description
##JCAMP-DX=4.24
##DATA TYPE=INFRARED SPECTRUM
##DATE=12/9/2023
##SAMPLING PROCEDURE=Instrument type and / or accessory
##ORIGIN=Default
##XUNITS=1/CM
##YUNITS=ABSORBANCE
##RESOLUTION=4
##FIRSTX=4397.6552
##LASTX=599.8556
##DELTAX=-1.9287962
##MAXY=1.8931732
##MINY=0.2642116
##XFACTOR=1
##YFACTOR=1.763155e-009
##NPOINTS=1970
##FIRSTY=0.27966473
##XYDATA=(X++(Y..Y))
4398+158616078+157891082+157011053+156954175+157259795+157628310+157869176
4384+157561392+157000471+156608106+156567742+156994471+157921794+159160316
4371+159842633+159862916+159988555+160009312+159688783+159181445+158241900
4357+157210506+156749515+156632885+156596206+156999947+157450966+157040819
4344+156300491+156354529+157030542+157539959+157919783+158602100+159200359
4330+158751808+157623206+157742675+159099449+159386510+158480095+158447861
4317+159485544+160044030+159442932+158227972+157728054+158478506+159372582
4303+159833674+159949239+159766317+159529592+159125446+158766294+158848002
4290+159297128+159830074+159799903+159472309+159829229+160423888+160602889
4276+160668235+160335114+159627139+159614394+159920183+159245135+157893786
4263+157165595+157723879+158892896+159367105+158830863+158346833+158704818
4249+159288947+159509512+159382386+159174582+159326674+159282388+158593293
4236+158459778+159461592+160063908+159343475+158779275+159149701+159447478
4222+159534697+159986797+160624744+160889662+160529480+159752051+159347904
4209+159765522+160236249+160318887+160671430+161738219+162889403+163078529
4195+162072624+160709901+160296761+161023972+161507343+160958186+160245901
4182+160181974+160470861+160481932+159881002+159259316+159342241+159679385
4168+160016986+160442751+160309371+159771928+159671914+159658037+159457079
4155+159700024+160353386+160697021+160387564+159818834+159285803+158928798
4141+159449642+160507083+160635173+159833134+159309839+159507855+159891262
4128+159944016+159877047+159916059+159943306+160173337+160294919+159657648
4114+158790736+158417555+158604754+159082952+159479239+159953685+160598088
4101+160837788+160765562+160939103+160939103+160589755+160571247+160869210
4087+161028012+161233348+161548467+161395006+160862719+160437495+160092626
4074+159978329+159947295+159828959+160182397+160530950+159700463+158636548
4060+159089882+160591107+161744709+162083172+161716059+160847524+159822214
4047+159423476+159694733+159857406+159946788+160134697+160202461+160170396
4033+160199672+160454059+160847726+161082642+160972858+160699015+160699505
4020+160832345+160719992+160738940+161062561+161095319+160898756+161107743
4006+161334562+161063525+160908002+160918786+160358575+159611385+159626834
3993+160484704+161423082+161766480+161770807+161819741+161610484+161197378
3979+161215211+161400939+160936027+160177698+160030626+160384335+160696395
3966+160790122+160667052+160632756+160694063+160461057+160185524+160039652
3952+159549960+159115287+159667334+160295004+160290169+160798590+161480755
3939+161300486+160717152+160077177+159752473+160392516+161014760+160279588
3925+159274005+159265959+159034086+158302700+159067046+161388245+162552614
3912+161838706+160545098+158557967+155809430+154421031+155448622+157843703
3898+160457271+160982188+158546118+156651749+157772931+158052335+157017932
3885+157312582+157198911+157677210+160037337+159934821+157424834+155078737
3871+153811819+155126335+156163274+155753887+157566750+160402962+160378419
3858+156737429+150909382+149851602+156512098+161058319+161339024+158857552
3844+155674376+153420281+151999801+152551526+155061107+156777016+157762840
3831+158619358+158690721+158646250+157439421+153827690+153123958+155847258
3817+157382594+159956237+162236227+161153228+157758952+155712543+155751842
3804+154146174+154026569+157480901+159068787+159588127+160787671+161456076
3790+161580836+161084586+160195057+159996043+159656634+159151155+160462054
3777+162227928+161969145+159574486+157427927+157975731+159493572+160589603
3763+160413138+158176267+156766367+157393733+156455186+152476511+150101426
3750+153452718+154938494+153345334+156558090+160850431+159710013+155560603
3736+153375979+155756338+160232193+162820203+162646155+162172436+163314560
3723+165550704+168598252+171569737+172570352+170597418+167968858+170497945
3709+177643535+183865741+187646280+191421157+198482605+206337590+210997720
3696+212119257+209654197+204342464+201005117+202795432+204363153+202356499
3682+197804717+192041778+185505231+181211387+182302093+182606581+181518055
3669+184081826+187124557+187815460+187698104+187177683+185512263+184398417
3655+184739398+182670879+178221731+178534501+184973924+190071313+191777722
3642+191713813+191440392+191257115+190758025+189473460+186511559+183933335
3628+187145432+191612480+191789825+188940902+186463386+187407527+189340384
3615+189618469+189521971+189332997+189185013+190292436+191227772+190689602
3601+190172663+190362769+190266169+190420712+191413770+191355489+189481708
3588+189221371+192001127+194124884+194552543+194476784+194246078+193947506
3574+193801888+193218131+191489242+189940401+190951224+193069995+193991386
3561+194437790+195220323+195722591+195742655+195995521+196275027+195652681
3547+194992473+195487861+196180945+196219095+196038657+195931493+195854467
3534+195895169+195922771+195740660+195589278+195595448+195684137+195799313
3520+195687484+195404852+195234234+194973626+194621084+194827214+195433231
3507+195324850+194585216+194430657+194807218+194730395+194384039+194489647
3493+194964364+195241181+195167401+195199685+195494082+195744565+196050777
3480+196397978+196273150+195723267+195290301+195186585+195338068+195619568
3466+195763479+195494217+195181903+195472902+196236387+196855436+196972438
3453+196777210+196561428+196504415+196953050+197575091+197734468+197716957
3439+197836494+197932113+197955304+198045852+198390383+198916551+199293485
3426+199356313+199227868+199280013+199784022+200495986+201043976+201308235
3412+201447244+201766015+202301108+202805996+203194626+203643802+204134829
3399+204512709+204881614+205419597+206150391+206718022+206933550+207147794
3385+207420690+207777661+208396153+209064356+209567131+209863302+210130435
3372+210667185+211261336+211471388+211557102+212185397+213113363+213731399
3358+214419665+215540188+216516141+216803709+216719432+216792503+217037712
3345+217599427+218498776+219106771+219352995+219836382+220621925+221133388
3331+221231374+221646845+222701008+223684922+223985387+223863585+224000650
3318+224606397+225158190+225114294+224554286+224045798+224135924+224821063
3304+225555120+225823030+225735050+225981139+226741124+227561486+228680404
3291+230444620+232142426+233347057+234321050+235201755+236320250+237654306
3277+238657354+239331558+239975691+240524104+240892991+241236711+241569527
3264+241712238+241768558+241939057+242121692+242178030+241992504+241663287
3250+241658943+241978086+242165606+241963888+241365713+240870122+240860251
3237+240997011+241152839+241480568+241715872+241651625+241504975+241549075
3223+241586870+241119946+240511866+240363104+240237432+239713106+239016912
3210+238361927+237862465+237504496+237074945+236596476+236234586+235887486
3196+235562681+235457005+235548821+235534944+235193946+234473665+233163138
3183+231614364+230718430+230390227+229995546+229638051+229503437+229247663
3169+228901358+228948415+229183111+228998295+228576688+228403468+228411226
3156+228522582+228611558+228267417+227708592+227415818+227363706+227455861
3142+227416190+227054368+226583066+225940842+225193095+224681395+224147637
3129+223358207+222843533+223012054+223391539+223238112+222307915+220812116
3115+219308270+218353970+217886150+217347389+216332813+215007563+213813276
3102+212852434+211986857+211117679+210242399+209581093+209116569+208607202
3088+208214295+207887496+207309808+206798024+206612937+206386101+205963074
3075+205599156+205409405+205258665+205062829+204967581+205080137+205018510
3061+204456507+204064632+204395437+204763902+204671190+204548611+204740221
3047+205064688+205161136+204927758+204585036+204357609+204192214+203874999
3034+203417608+203083726+202922017+202644591+202159175+201642269+201312326
3020+201319763+201458603+201471162+201320270+201014227+200730412+200449453
3007+199974077+199616853+199597736+199540131+199148729+198584073+198395335
2993+198777103+199173305+199350194+199738739+200495716+201067099+200962910
2980+200574669+200586586+201052411+201374275+201179858+200947275+201043503
2966+201097254+200904477+200629198+200220842+199715887+199475376+199529448
2953+199462327+199118895+198792603+198760792+198987763+199213162+199288819
2939+199326479+199410520+199351766+198979244+198512590+198124670+197794947
2926+197717954+197791498+197539393+196914495+196244990+195754250+195495485
2912+195408942+195380630+195426386+195564009+195692200+195836161+195924310
2899+195770359+195566848+195685912+196129054+196470001+196424262+196304522
2885+196513052+196908224+197104956+197217225+197671370+198263291+198403618
2872+198188326+198114241+198164899+198071342+197928935+197943168+197986861
2858+197835632+197535691+197225558+196960335+196702499+196308291+195976100
2845+196064417+196356380+196601353+196941607+197314636+197481467+197580382
2831+197851656+198110404+198070226+197769626+197584912+197719391+197797178
2818+197665944+197697147+197947529+198082802+198063347+198187194+198464992
2804+198724214+198897502+198856022+198767806+199050320+199617140+200017078
2791+200196671+200332418+200327702+200212593+200135500+200021642+200021000
2777+200303142+200555789+200504793+200251385+200014408+199918129+199892386
2764+199883275+200013275+200251301+200403967+200523606+200746909+200994028
2750+201196186+201358437+201391634+201274278+201158155+201188310+201316805
2737+201307779+201228538+201416937+201697372+201796964+201945827+202207179
2723+202374331+202416352+202436043+202481275+202452726+202421456+202602841
2710+202900212+203179143+203476785+203664457+203690876+203794643+203924761
2696+203931285+204078830+204407269+204646850+204809033+205018408+205203613
2683+205180878+205015670+204962494+205020437+205056761+205022127+204898026
2669+204804841+204962460+205331212+205582050+205496928+205223490+205032404
2656+204916332+204795172+204752611+204818684+204924767+204950222+204871776
2642+204797809+204730790+204643013+204564246+204482774+204351980+204182478
2629+204072627+204027496+203924355+203674041+203302669+203015523+202966843
2615+202966066+202850281+202786507+202826482+202787301+202576117+202233615
2602+201970793+201924733+201882644+201774821+201798198+201918428+201963930
2588+201882273+201734812+201650214+201601888+201469624+201309554+201172032
2575+201022662+200904951+200816515+200744019+200738255+200688679+200470210
2561+200204429+200002373+199771936+199468716+199239379+199139314+199029141
2548+198890065+198788698+198629829+198372466+198149264+198017557+197905643
2534+197797482+197823901+197961237+197880610+197546340+197354290+197372612
2521+197285698+197051966+196895056+196847745+196762504+196618120+196549005
2507+196598344+196651199+196647058+196631660+196627214+196638471+196671043
2494+196749405+196895073+197007714+197100189+197345990+197631395+197805038
2480+198000823+198199787+198232916+198102240+197928428+197871280+197924946
2467+197908280+197896296+198087467+198325932+198390214+198354059+198361902
2453+198407218+198421755+198459617+198565682+198680368+198884521+199249554
2440+199614757+199852208+199964865+200008170+200065640+200152571+200296617
2426+200554301+200783521+200797178+200747687+200867173+201048709+201134119
2413+201170579+201247301+201419388+201646377+201829941+201960972+202109616
2399+202341083+202612982+202803139+202947067+203185465+203416932+203421445
2386+203064406+202039232+199992248+197016926+193561513+189947365+186190016
2372+182149528+177882626+173784195+170177704+167241259+165330410+164937216
2359+166302847+169340321+173919012+179885410+185705513+188369890+186525250
2345+182190010+179111564+178417854+179099343+180360836+181584618+182391069
2332+183027664+184256399+186101158+187865594+189439857+191319385+193681557
2318+196141224+198264389+199940846+201326541+202619676+203951079+205378236
2305+206770878+207890623+208826111+209799190+210655995+211255741+211751569
2291+212232218+212694646+213156026+213566545+213872639+214118524+214310135
2278+214432123+214572399+214709515+214753851+214829475+215056192+215335799
2264+215524502+215582699+215628827+215805039+216092133+216385212+216570873
2251+216638298+216719482+216843312+216993629+217172495+217273050+217345394
2237+217549513+217773662+217881468+217949637+217987516+217980451+218059996
2224+218253280+218456553+218623705+218734419+218774445+218783319+218821621
2210+218915567+219079710+219275208+219429075+219558669+219686049+219793923
2197+219900005+220024782+220146313+220215057+220260982+220365255+220490556
2183+220597669+220754866+220906281+220926548+220911758+221013006+221179905
2170+221320333+221491137+221752809+222064633+222312783+222341839+222229030
2156+222210961+222273214+222322621+222420404+222587725+222774113+222995100
2143+223243065+223410116+223450902+223447555+223486821+223615485+223832467
2129+224014663+224058965+224047471+224071490+224150764+224270572+224363351
2116+224446547+224590745+224719342+224761819+224841702+224986272+225019672
2102+224997326+225125111+225305329+225397856+225455782+225487846+225493407
2089+225513234+225513471+225465298+225473766+225636203+225849550+225994086
2075+226075676+226156489+226283835+226332261+226198560+226100946+226257838
2062+226538222+226740313+226828698+226788418+226654784+226598566+226710564
2048+226846581+226904946+226934628+226921190+226926700+227079096+227318998
2035+227487570+227561875+227668853+227791855+227824782+227826692+227893509
2021+227980237+227972530+228002887+228301087+228687114+228862329+228920424
2008+229094388+229354692+229576829+229762050+229915781+229998943+229953559
1994+229745198+229650474+229993991+230532059+230925134+231204268+231455799
1981+231653833+231829808+232041837+232245009+232446221+232535180+232377426
1967+232338871+232727332+233213204+233548404+233856408+234145649+234359909
1954+234580914+234812990+234971555+235066279+235034197+234836536+235035685
1940+235878224+236620326+236944843+237108835+237321557+237683362+238048818
1927+238061445+237678697+237524036+237761132+237977928+238521996+239464533
1913+240046987+240113280+240252999+240864933+241635854+242170035+242523557
1900+242849275+243061085+243199012+243454616+243531271+243480410+244100017
1886+245170254+245925406+246401795+246826175+247232570+247656341+248048047
1873+247862133+246744247+246064550+247379405+249464843+250810782+251496091
1859+252039162+252663198+253282907+253838537+254282879+254339233+253727891
1846+252829437+253370649+255590837+257282084+258034666+258727683+259185817
1832+258631708+257965449+258726297+260092621+261540078+263331289+264771005
1819+265694982+266498238+267035089+267020942+267107129+268079668+269396331
1805+270234391+270426542+270465706+271186342+272270845+272390483+271709451
1792+272652849+275637670+277942812+278896014+279390253+279772781+280493247
1778+281649875+281864152+280450669+279543781+281583937+284900273+287382557
1765+288261572+288201093+288928186+290210942+291394682+292516320+292489242
1751+291459656+291648867+293588636+295621913+296774585+297307295+298358144
1738+299323093+298530452+298383431+301596119+305196390+308011084+309844028
1724+310752217+310917392+309357700+306793167+307362455+311608008+315639910
1711+317942313+318369143+317869495+317989100+317722373+316310378+316736938
1697+319685401+324393315+329291149+331719309+332461174+331790943+329423667
1684+330119760+335764969+340307134+342069424+342545948+343714881+344698119
1670+345567703+349165235+353221139+354883330+356483319+359911755+362526928
1657+361751832+357979693+358413927+364694143+367182984+368842572+374941218
1643+381127859+384117802+384324084+382960127+384852805+391688042+396802976
1630+399044360+400923482+403148944+405833081+410246344+414197281+416380790
1616+420872110+428100812+433873063+438211819+442591817+447386341+452229985
1603+457346338+463140057+469045131+474485951+480151985+486521042+493007168
1589+499314665+505505532+511928273+519054441+526452476+532196533+536257372
1576+543071988+552024678+558192489+563705586+571925977+580978867+588519764
1562+592561976+593831379+602312141+618253343+631535052+642790246+653220582
1549+663423676+671559012+676648456+679978653+685552398+700069704+714975979
1535+724006422+732745324+744108020+753620667+760593899+767300133+773921516
1522+781720080+791350641+801037454+810761792+819791626+827426570+833026345
1508+836156007+844356182+859763457+870955975+876431954+879732740+885793489
1495+893803541+898438976+900080917+903529164+910960936+919064900+925812716
1481+930538344+933564087+936329459+937073251+934212142+933620813+938982663
1468+944469392+946621597+948695034+951856541+951746402+947336857+946054338
1454+948903615+949284132+947420222+945946430+946974798+948477934+946340807
1441+940570786+932558098+923255519+919137177+920977490+921144693+918890598
1427+917366841+914924651+912548856+913476416+916952722+921881589+927555804
1414+932092526+936192546+940880717+943813833+945360442+949043165+954882690
1400+959320361+960303159+960631818+964032804+969868408+974800859+978320030
1387+980335051+979629188+978767684+980227616+982564400+984492878+987152844
1373+990964569+993795321+994198488+993501820+992336674+989363465+987301657
1360+988815204+990021053+988706080+986549616+985437950+986436164+987733490
1346+986030766+981445770+976432726+972495447+970338442+968827734+965646349
1333+961227136+958708478+959519138+961924547+964856784+968208887+971092985
1319+973685947+975315313+974327038+973759171+977034062+980585686+980593664
1306+980589945+985311922+992437956+995346055+993797755+993122588+994412275
1292+995286692+995897426+999335057+1006437630+1013786646+1019122872+1024212249
1279+1031032746+1037512821+1041028273+1043097181+1045503672+1047989065
1267+1049089575+1048208734+1047268801+1046584507+1046079044+1047399562
1256+1049378411+1051005613+1054293621+1059122085+1062383860+1063366185
1244+1065026044+1068355565+1070636366+1070334887+1069369667+1069815159
1233+1070845082+1070482212+1067923122+1064511386+1063153277+1064417744
1221+1066418094+1067777690+1067272769+1064837746+1063530007+1065303859
1209+1068495723+1071912868+1073741823+1070646170+1064962083+1062904873
1198+1064589883+1065836704+1067043296+1069589404+1070443133+1067560185
1186+1062145665+1057090905+1055114558+1054546217+1052886290+1051963531
1175+1052217682+1051262807+1050001382+1050373785+1050777560+1049097823
1163+1045729629+1042396660+1040366020+1039625203+1039781993+1040002068
1151+1038968088+1037895434+1038624081+1038607314+1035965806+1034251047
1140+1034028876+1032374020+1030894887+1030605510+1029159303+1025725796
1128+1020976166+1016413279+1012337058+1009057975+1008773264+1011256764
1117+1013533779+1013692598+1012406766+1010668207+1009282918+1010357871
1105+1011270489+1007297173+1004026136+1006644656+1009728274+1009254995
1094+1007506903+1008056516+1011322144+1012905805+1012899112+1016844301
1082+1023116066+1024976595+1024196563+1026364318+1029213190+1028356486
1070+1026247823+1027001149+1030145145+1034167412+1038883641+1043142886
1059+1045261555+1044689631+1042893873+1041168499+1039522366+1039303846
1047+1041197640+1044367666+1047541883+1046488228+1039809511+1032500454
1036+1028922190+1030880012+1036739618+1040986760+1038358436+1031049244
1024+1028994129+1034525008+1039464829+1038913593+1034979627+1033135324
1013+1036195279+1038891687+1036415692+1032107023+1029626836+1028255745
1001+1027108786+1027519323+1030548311+1034903496+1038062772+1038454580
989+1037589560+1037500584+1039038066+1042043120+1043791887+1043816768
978+1043587498+1042532491+1041630758+1043075004+1047969187+1053837176
966+1056967041+1057704748+1057210374+1056987865+1058684031+1061394097
955+1063357531+1064945181+1067793579+1069118694+1066413767+1063195196
943+1062607924+1064200103+1064664864+1063359018+1063641566+1064805428
932+1064242563+1062890607+1063213857+1064913944+1065284725+1064747214
920+1065304941+1067729146+1071510986+1071837279+1066641008+1063327985
908+1065534481+1067545986+1066988125+1066503893+1066213772+1066404098
897+1067917173+1067468977+1063920328+1061812341+1062296235+1063334475
885+1064291446+1065583973+1069548905+1073610522+1069653838+1060202988
874+1054982107+1053796880+1052111329+1048907497+1043170336+1037430673
862+1035089968+1035956746+1038750379+1038761806+1034983819+1033633417
851+1034585588+1033719283+1033918128+1036646855+1036874435+1034269505
839+1033422402+1033398468+1029246860+1022406011+1018870952+1020246167
827+1023810637+1025357517+1024919937+1027040634+1031347072+1032651565
816+1029568487+1025184297+1019397306+1012569303+1010724190+1014693111
804+1021172983+1029450303+1034986726+1032398563+1023667707+1016142698
793+1015276259+1018176313+1017424610+1010346039+1001632559+997001857+996571917
779+997653631+998046115+995579923+991508908+989121822+987609762+984133118
766+978930695+973700754+969521088+967480578+968194013+971062019+973255398
752+973176699+973133766+971072431+963369807+955273348+951518011+949836111
739+948938705+949568438+949416988+945477951+938306888+930290480+924519243
725+923081555+923592697+922217144+920126601+919697337+916648876+910068737
712+908090834+912829849+918607915+922958367+927537414+930252280+926064839
698+920993717+923816017+928538873+926077279+920462832+919564007+920779862
685+919431354+920865729+926748592+929668050+927187390+923642527+922531402
671+920055271+913101038+916997818+932407933+937185757+932915221+928972127
658+924920516+924569343+932527064+940516427+938249756+927761681+916895725
644+907044278+903767764+913831376+921067413+915898255+917093015+922629979
631+923265255+930514815+941427558+947256062+946811990+933429878+912874337
617+899138280+896362969+899321507+906510689+918159787+920283933+910152304
604+906469108+915270010+928982674
##END=
