##TITLE=Sample description
##JCAMP-DX=4.24
##DATA TYPE=INFRARED SPECTRUM
##DATE=12/9/2023
##SAMPLING PROCEDURE=Instrument type and / or accessory
##ORIGIN=Default
##XUNITS=1/CM
##YUNITS=ABSORBANCE
##RESOLUTION=4
##FIRSTX=4397.6552
##LASTX=599.8556
##DELTAX=-1.9287962
##MAXY=1.8452291
##MINY=0.24457985
##XFACTOR=1
##YFACTOR=1.7185036e-009
##NPOINTS=1970
##FIRSTY=0.27292705
##XYDATA=(X++(Y..Y))
4398+158816689+158443402+157870161+156796968+156379129+157766005+159119307
4384+158343824+156959445+157086979+158134298+158926100+159540649+159702415
4371+159326770+159408034+159752551+159778616+160011363+160313114+160061031
4357+159276495+158522863+158510065+158945662+159150263+159526584+159898449
4344+159172010+158228240+158687560+159756453+160008589+159670939+159637643
4330+159704826+159023198+158341708+158836858+159699502+159900080+159939741
4317+160461805+160920605+160652290+160238908+160312317+160456984+160400501
4303+160465447+160648526+160851671+160997517+160764232+160586962+160880407
4290+161183649+161420333+161565035+161778290+162392579+162329766+161061683
4276+160181974+160399148+160554914+160207432+160315213+161151775+161596129
4263+161018952+160002779+159541481+160482980+161818488+161466185+159848990
4249+159079785+159878940+161143485+161666538+161419258+160790592+160164060
4236+160039319+160443700+160438306+159443967+158762617+159479917+160651891
4222+161281371+161876359+162781213+163164853+162921146+162821152+163308654
4209+164230226+164469650+163450771+162187700+161676041+162180607+163095485
4195+163245702+162730193+162591786+162800636+162762796+162466785+162236119
4182+162321234+162373815+161803939+161113726+161133704+161593042+161911268
4168+162021858+162099551+161968549+161324987+160639092+160521080+160985482
4155+161750803+162237524+162077457+161761849+161984712+162784682+163517451
4141+163507012+162900318+162408100+162343206+162410094+162373641+162263034
4128+161826258+161347288+161563058+162049224+162143287+161942848+161494071
4114+161167833+161756942+162669028+162462814+161487291+160830722+160401992
4101+160229665+160757746+161485227+161775289+161996036+162400816+162748177
4087+162987514+162853686+162006962+161056896+160954006+161358699+161288655
4074+160845272+160378945+159844620+159840111+160451434+160627768+160335902
4060+160472019+160968383+161217397+161545074+162486555+163181797+162548934
4047+161524732+161611772+162118852+161737605+160857845+160495379+160798309
4033+161151098+161448895+161795736+161750317+161555549+161614026+161233507
4020+160540520+160852677+161647028+161361006+160566343+160620155+161449364
4006+161889192+161211344+160320138+160307322+160788182+161117611+161172099
3993+160943445+160869776+161247277+161551959+161376666+161182817+161485140
3979+161840114+161684851+161189147+160897853+161289106+161973474+162238096
3966+162304811+162532945+162740078+162656576+162471138+162547044+162360132
3952+161633241+161382961+161867150+161888880+161311547+161537600+162407493
3939+162332714+161476660+160880094+160746596+161099454+161504268+161091650
3925+160652637+161178655+161285707+160474950+160395714+161532779+162262548
3912+161798649+160809096+158728175+155236290+153126356+154107134+157133785
3898+160850960+162067589+159103422+155932104+156892835+158092816+157629003
3885+158083191+157591458+157019778+158875548+158697896+155966199+153641900
3871+152315270+153926448+155635712+155048650+156609379+159790721+159613329
3858+154579583+145668681+142321411+151548753+159469755+161036294+158305585
3844+154397301+151311444+149372121+150585768+154430701+156599338+157417119
3831+158848737+159976593+160031151+157591857+151969366+150034170+153024992
3817+154851315+158505469+162987948+163325839+159953007+157346103+156925143
3804+154289728+153187244+157425287+160236636+161815800+164297339+165566671
3790+165440213+164667089+163848736+164082177+163963506+162953645+164291079
3777+167207608+167746684+165221999+162619759+163073305+165110888+167203220
3763+167680317+165200078+164027463+165984822+165696892+160985881+158265594
3750+164062286+169405032+171546338+178885013+187646426+190366331+188828250
3736+187841576+190900969+197857564+204899013+208459416+209152456+209426633
3723+210489126+212734467+215535377+217605285+218034622+218963252+226494146
3709+240094833+253351749+263543463+272798396+285035688+297605669+306111687
3696+311046428+312469653+309281912+305446239+306451278+307482296+303170480
3682+294633247+284417878+273109962+264217374+263634699+264011385+261973646
3669+263764851+266694421+267142643+266993397+266715873+264976919+263240567
3655+263442740+261184515+255008796+254333030+263460464+272088205+275885379
3642+277083591+278026737+278980566+279477328+279072825+276904726+274708238
3628+278436702+284282489+285052059+280593079+275258517+274297665+275031163
3615+274142922+274598515+276978065+279661240+283251575+286406124+287500544
3601+288039152+289155406+289717253+289902431+290646906+290378972+288121197
3588+286978306+288675812+290212610+290439582+290201979+289921975+289812131
3574+290256191+290569214+289431352+287877490+288848556+291201123+292207896
3561+292248234+292260963+292450823+292647828+292469310+292256038+292461818
3547+292966714+293623144+294215408+294226438+293617386+293191813+293191119
3534+292937960+292144251+291590659+292191595+293253169+293528526+293194622
3520+292908757+292649042+292097982+291262756+290661664+290610072+290663572
3507+290365948+290252133+290931801+291363305+290674255+289720305+289284465
3493+289244821+288930254+288070923+287509215+287740627+288332024+288875142
3480+288986026+288462263+287684525+287170577+287006105+286832772+286572035
3466+286400921+285985181+285667458+286294528+287090544+287070392+286576439
3453+286034311+285392899+284750307+284642197+284980072+285205362+285413865
3439+285484048+285189009+284815722+284398646+283957188+283770397+283832516
3426+283647702+282887566+282354265+282830338+283612029+283814844+283614544
3412+283407983+283012897+282266896+281623073+281811720+282676167+283003168
3399+282690388+282722644+282927800+282626673+282075336+281878035+282208436
3385+282816291+283103752+282786636+282466606+282586752+282954593+283286190
3372+283496878+283737863+284039718+284421659+284741151+284602692+284118191
3358+283625730+283404688+283917370+284928479+285443867+285095327+284545776
3345+284731335+285593546+286027929+285705679+285584459+286251225+286896226
3331+287014013+287381525+288052193+288288236+288023752+287515631+286993290
3318+286703886+286527587+285986100+285078297+284631515+285146226+285925680
3304+286047178+285540306+285192980+285474805+286118680+286743270+287356154
3291+288236314+289397795+290793238+292343199+293519993+294081528+294221270
3277+294268544+294540606+294966006+295416621+295808516+295910313+295705469
3264+295524141+295457895+295460739+295607279+295672138+295532119+295211569
3250+294427987+293365927+292866789+293024116+293357603+293649053+293374251
3237+292612520+292163570+291934412+291422858+291010395+291201712+291261022
3223+290582082+289889546+289610200+289130763+288582079+288681362+288642672
3210+287828030+287076861+286668300+286105014+285719310+286028605+286170151
3196+285613489+285144440+284807449+283888895+282926534+282742899+282429911
3183+281158879+279541112+278638373+278628089+278403180+277471654+276670296
3169+276624947+276791170+276463961+275692796+275275738+275632637+275470645
3156+274062612+272964688+273524177+274364501+273202239+270812301+270433308
3142+272617449+273342554+270725834+268076389+268229779+269783451+268916159
3129+265640234+264199615+266473137+268344653+265872392+262133834+261671999
3115+264021600+264001136+259667938+256101829+256958594+259135642+256957484
3102+251702158+249583258+251983862+253953777+250835699+245938608+245159275
3088+249219562+252158808+248535558+242971336+241728399+244209487+245279559
3075+242412750+239368740+239798353+242635664+242954271+239514569+236765373
3061+237230070+239652750+240228106+237872054+235972825+236162478+236941152
3047+236459616+235155773+234417662+234269891+234225686+233761284+232669986
3034+231479092+231004718+231421378+231625268+230853114+230193771+232627446
3020+243842426+263657764+276051585+269532997+255106709+244157391+237788223
3007+233762221+230850288+228952845+227860749+226867502+225407911+223966963
2993+223618076+225112836+227127563+227226378+226029449+225685210+226956328
2980+228788928+228568581+226329605+224783390+225009027+226396371+226886422
2966+225291529+223440563+223354650+225820044+228047713+226240501+222807579
2953+221551150+223110527+225878816+226042629+223281797+221223472+221897470
2939+224730514+226017084+223525521+220406039+219629030+221495118+223714532
2926+222798960+219628683+217717193+218363270+220210022+219958407+217202326
2912+215195005+215454546+217218801+218268583+217061960+215439805+215164049
2899+215977945+217103546+217124252+215757285+214667669+214819602+215655990
2885+215968788+215373749+214893531+215136233+215899628+216649983+216510987
2872+215616919+215039568+215178651+215596906+215587177+214933470+214250264
2858+214082202+214227615+214174288+213655970+212790638+211969961+211598773
2845+211684928+211790992+211697744+211626000+211763383+212011305+212114681
2831+212055891+212080239+212258099+212402177+212352648+212136237+211843972
2818+211544440+211281813+211098733+211049863+211072391+211145418+211298895
2804+211405028+211574165+211928826+212092812+211973603+211963111+212108143
2791+212115184+211797859+211358083+211262130+211421381+211295721+210901710
2777+210630863+210636048+210770848+210727180+210405971+209965658+209694047
2764+209801290+210075103+210258339+210369172+210432782+210435990+210411816
2750+210437014+210471958+210411330+210357639+210372571+210339950+210282600
2737+210286329+210309134+210302821+210348223+210537927+210705329+210664506
2723+210555807+210544760+210652107+210779813+210766495+210697924+210698271
2710+210707168+210730562+210703959+210508827+210335493+210407255+210523464
2696+210475305+210449379+210510752+210489647+210439892+210505861+210601416
2683+210534250+210338442+210217568+210241638+210358090+210424285+210307538
2669+210118909+210036569+209967999+209733552+209443802+209229125+208970763
2656+208690638+208551294+208556913+208646225+208674995+208518900+208342757
2642+208260920+208117172+207932184+207832190+207702628+207487726+207301871
2629+207178119+207052961+206858644+206588369+206296641+206118036+206154853
2615+206197323+205998879+205697821+205447472+205195128+204989070+204905412
2602+204880128+204732408+204392383+204088066+203889604+203663724+203508842
2588+203429294+203229636+202979442+202910421+203010138+203002542+202754620
2575+202453702+202232313+202142048+202225047+202263096+202092398+201807243
2561+201439905+201042651+200747559+200610210+200590874+200606551+200603031
2548+200530090+200380429+200193291+200014304+199961688+200032201+200017252
2534+199903974+199902361+199956728+199835039+199583615+199399859+199391170
2521+199492535+199477811+199275152+199061412+198973575+198954863+198914698
2507+198871482+198846960+198837596+198893801+199017155+199081494+198999761
2494+198858493+198816334+198938127+199189708+199477031+199678909+199798864
2480+199879660+199913477+199946774+199943722+199902084+199966076+200061821
2467+200035322+199993580+200037664+200152815+200311754+200347201+200209766
2453+200132524+200209662+200348849+200486995+200676734+201007308+201321181
2440+201481647+201683439+202000659+202265732+202380362+202365951+202334302
2426+202313977+202261188+202292091+202541192+202909225+203129572+203134272
2413+203133041+203256221+203467291+203683893+203787806+203797240+203953734
2399+204355219+205007279+206455165+209940234+217042086+229242214+247361572
2386+270846153+297664979+325447345+353025526+380717402+409333919+439528803
2372+471229633+503283304+534174644+562497665+584888605+597602595+602420624
2359+600479705+586326605+560662671+531570184+504902216+489441633+493469455
2345+512342220+522388209+514020338+501497076+492190343+488258803+491474984
2332+497142252+496924679+491621871+488396637+488661276+486720358+477986917
2318+463438939+448578042+442449130+446872697+450291156+441937506+422726120
2305+400868308+384628617+374629694+365852447+355856056+344296629+330516417
2291+315973192+302977186+291588335+281267128+272551012+265619077+259873406
2278+254943278+250741861+246984748+243502349+240542482+238171204+236114076
2264+234284007+232680044+231099492+229458088+227907971+226540206+225334797
2251+224291068+223387566+222520829+221663335+220918201+220392269+220043209
2237+219681160+219282051+218950870+218671525+218456848+218374196+218376069
2224+218391677+218444709+218571080+218745055+218877236+218933927+219006417
2210+219165165+219390646+219629082+219857355+220083529+220328902+220595483
2197+220867007+221213900+221636212+221923171+221981856+222019263+222206938
2183+222474023+222703648+222843599+222893093+222916712+222946523+222971565
2170+223058431+223214735+223308642+223283774+223151836+222907972+222628141
2156+222416152+222258496+222101429+221900661+221637513+221426530+221408078
2143+221655046+222036154+222344651+222658958+223052119+223459206+223821671
2129+224106358+224409427+224782176+225141694+225429363+225678030+225957098
2116+226337651+226743489+226979774+227117903+227282930+227453784+227688005
2102+228002104+228329122+228699929+229146295+229565452+229979926+230520148
2089+231169086+231847332+232567859+233447307+234524697+235758287+237034400
2075+238346826+239950720+241872962+243861485+245871702+248150877+250732063
2062+253453876+256376804+259509015+262883269+266493913+270163761+273873081
2048+277615367+281294979+284746579+287914584+290865606+293580933+296003717
2035+298006686+299547212+300665911+301412277+301827133+301935971+301774864
2021+301272813+300436372+299331478+298036133+296608156+295027050+293439422
2008+291882803+290221541+288506329+286833049+285199657+283656425+282231275
1994+280760793+279305312+278196776+277435253+276743601+275933087+275083710
1981+274382763+273822789+273359844+273022593+272760972+272450602+272063007
1967+271865222+272095506+272459966+272688239+272931218+273267064+273622645
1954+273986203+274457784+275069229+275582327+275781032+275885466+276577308
1940+277956641+279266414+280230578+281000026+281674544+282422904+283220117
1927+283720972+283836244+284081582+284423636+284468604+284998385+286232547
1913+287025459+287086763+287130794+287576086+288118596+288531613+289032278
1900+289583823+289736780+289632901+289767597+289614154+289170095+289691274
1886+290930760+291834002+292476004+293065771+293401305+293447642+293451250
1873+293008612+291279058+289507258+290275631+292623584+294213154+294684996
1859+294549173+294242358+293913380+293570667+293302802+292782888+291110944
1846+288406699+287436291+289091240+290151809+289770545+289452752+289162533
1832+287168357+284263725+283585357+284467338+285242092+286159225+286819627
1819+287014932+286930095+286307673+284949064+283656408+283627811+284251065
1805+284354667+283739389+282533564+281807003+282116887+281512986+279357390
1792+279127192+282112586+284669528+285540132+285512437+285077274+285167071
1778+285798355+284910513+281553514+278998636+281500795+286297961+289305674
1765+289651509+288727127+289104438+290500210+291535650+292412983+292057506
1751+290036190+289015161+290723541+293263782+294518477+294282383+294592944
1738+295427581+294075701+293235411+297270101+302041237+305392444+307382788
1724+308269138+308090654+305247985+300619816+300563628+306289512+311779198
1711+314646215+314601715+312900186+312240599+311392262+308511718+308024893
1697+311683366+318025932+324994996+328627316+329450265+327796391+323177483
1684+323091432+331487328+338294799+340194166+339945031+341085199+342414534
1670+343736794+349187841+355528014+358205171+360444442+365349979+369382207
1657+368582428+362885089+362532075+371693309+376014697+378361835+386844823
1643+396158424+400870320+400868724+397764780+398979034+408260275+415708811
1630+418151018+418845843+419705175+421110919+424691908+427652572+427140774
1616+428408684+434542556+439672846+442181265+444424594+447723428+451332614
1603+454888144+458876393+463154842+467208158+471467150+476458183+481647297
1589+486692368+491866602+497571190+504115582+510838771+515571721+518102580
1576+523573155+532081878+537326174+541648638+550147303+559947278+567534203
1562+570503573+568378517+574406880+593502594+610252974+623501791+635024106
1549+645613768+654060164+659339144+661599711+665350373+681322234+700422249
1535+712244581+721993432+734183069+744814628+752713225+760013799+766291957
1522+773214058+783246625+794828874+808151985+820986189+829006179+831345826
1508+831172406+841357721+862859466+877978863+884764795+887501158+892308643
1495+901151755+908286193+910993768+913669849+921574203+932070773+941195588
1481+947375937+950343850+950378881+948123656+947695585+953083543+959424479
1468+961402440+961197874+964109391+967916103+965346362+955395165+952058491
1454+959556417+963971764+962129834+957524140+953509463+951014293+949574697
1441+947957034+943928274+936914329+930317564+925244329+920359776+917273590
1427+916292795+916613553+917100448+915281270+914178109+920305738+931473652
1414+941495050+948561507+953729776+956383243+955946016+954755175+954583211
1400+955612703+958534833+963436382+970555211+977318876+978170855+974811775
1387+974479849+977309997+978335327+978825065+981506766+984292865+985966578
1373+988517867+991869039+994248295+994867543+993660955+992292670+993013265
1360+994335351+994399864+994051359+992994120+990669318+989244081+990228206
1346+991876045+991647061+987507313+980283529+974588896+972561614+971368274
1333+967868239+963493957+962433527+964677446+967720623+970454211+971762493
1319+972032196+973861779+977906771+981522998+982842379+983361876+984992165
1306+988570864+993498564+997291403+998259087+997218219+997317901+1001125030
1292+1006896176+1010876933+1011979469+1012742934+1016066428+1022037077
1281+1029232073+1035940313+1039719486+1040813490+1042775289+1046147132
1269+1048135984+1048876211+1051361253+1055226373+1057001225+1056799572
1258+1057351811+1058497217+1058230496+1057271136+1058419316+1061210480
1246+1063477428+1065914676+1068620725+1069902785+1070295062+1071280644
1234+1072941246+1073741823+1072107026+1069645499+1068800457+1070179009
1223+1072582891+1073397688+1071986672+1069287907+1066427930+1064993190
1211+1064310400+1062871706+1060785461+1059308962+1060480381+1063923188
1200+1065724954+1063708355+1060226216+1057013919+1054181967+1053199230
1188+1052639846+1050748802+1050932003+1053710264+1054936206+1053261730
1177+1050603407+1048296433+1045630132+1042699747+1041727761+1043137112
1165+1043926521+1042485607+1040506328+1038626314+1036157574+1033279492
1153+1030762055+1028305871+1025667872+1025751807+1028663532+1030236454
1142+1030015239+1028235878+1025440275+1024870902+1025633188+1025728916
1130+1026008885+1026811405+1027694807+1026594560+1023657169+1022074744
1119+1021533673+1019552521+1016936789+1017331841+1020045242+1020450283
1107+1019304807+1019642769+1020151722+1019168638+1016501782+1012844489
1096+1011369654+1012595111+1015380586+1021949049+1028325640+1029226246
1084+1029001563+1028994418+1027314462+1026524984+1027631613+1030258790
1072+1035938926+1041871284+1040928572+1035444956+1035694195+1043311504
1061+1049365117+1048711046+1046953883+1047053426+1045054932+1041691759
1049+1039915936+1040445076+1045316033+1049989985+1047307383+1041494546
1038+1038519002+1038889913+1040666499+1040897425+1039243690+1037133375
1026+1035108520+1032909691+1030640453+1029406464+1030316504+1033829165
1015+1036273904+1032623270+1027438908+1027898819+1030792022+1029808661
1003+1024564434+1020747178+1024599187+1032189165+1035698912+1036192952
991+1037027796+1037998464+1038500966+1039667668+1040747798+1040064662
980+1041253561+1045582892+1047430788+1046503615+1049761070+1058273297
968+1063068712+1059178064+1054216998+1053828468+1053796073+1052286831
957+1053511594+1057350562+1061951400+1068494752+1073425990+1072438744
945+1068597833+1065864939+1065863135+1067713182+1068575289+1066819652
934+1063364775+1062004050+1063702736+1065163836+1064887820+1062683511
922+1059101066+1056285069+1056044292+1059093297+1062695858+1063358185
910+1063136554+1063853473+1062868793+1059749519+1056887600+1056551095
899+1059526500+1062469580+1062980961+1063241300+1062190720+1059220518
887+1058722247+1059660936+1056989779+1050851120+1047018603+1048793386
876+1050403835+1048188357+1045047579+1042296857+1040123347+1038665161
864+1038041403+1037498736+1036669510+1036168395+1035627116+1035345621
853+1034429893+1031879922+1029430396+1028525420+1028903060+1028931779
841+1028407633+1029058306+1030801457+1032525184+1035282634+1039170993
829+1038207470+1029458005+1020498077+1017925631+1020683775+1024001928
818+1025421476+1025660380+1025529691+1026569934+1026900335+1022213411
806+1017044934+1017198168+1019077211+1019598165+1019777482+1018409820
795+1016614713+1016514407+1014799559+1010350152+1006332352+1004238963
783+1004418834+1004755824+1003332946+1002277650+1001870459+999505979+994910829
770+989610830+983976755+979558494+977874029+975893085+972149012+971702490
756+979054812+988530561+987277566+975070934+962420070+954365742+951790036
743+953508561+956533425+956429373+949754638+941536741+939223385+940784929
729+938853514+931944453+924639995+921456208+922339333+922650171+920010161
716+916219751+913809903+914112279+914653489+913301366+911848452+913134328
702+919536863+927281670+928362425+926236640+927907439+929184714+927565038
689+928713288+935001019+941180189+940670611+934517454+927588693+921484025
675+919992611+928241655+940571900+943887070+936494444+933501767+934188303
662+929440613+919285195+912530825+913391753+919423307+925798303+927639540
648+924106207+921872971+926229217+931482601+934118102+938716789+940323701
635+935051311+930343577+913931367+880627822+867649193+890224826+913923667
621+911456314+897800861+890204779+886528756+878936212+882136994+906036655
608+925936276+922574907+912862197+906890438+900139744
##END=
