##TITLE=Sample description
##JCAMP-DX=4.24
##DATA TYPE=INFRARED SPECTRUM
##DATE=12/9/2023
##SAMPLING PROCEDURE=Instrument type and / or accessory
##ORIGIN=Default
##XUNITS=1/CM
##YUNITS=ABSORBANCE
##RESOLUTION=4
##FIRSTX=4397.6552
##LASTX=599.8556
##DELTAX=-1.9287962
##MAXY=1.6737816
##MINY=0.11296548
##XFACTOR=1
##YFACTOR=1.5588306e-009
##NPOINTS=1970
##FIRSTY=0.12765835
##XYDATA=(X++(Y..Y))
4398+81893665+82494125+82444179+81856374+81017488+80456909+80259033+80018452
4382+80069938+80629031+81000874+81240237+82310962+83943060+84934434+84768592
4367+83938051+83963258+85050282+85583800+85373889+85056075+84627909+84694565
4351+85573571+86338144+86361258+85756754+84892498+84689270+85694724+86861271
4336+86942228+86283972+85628393+85060338+85045196+85651546+85996489+85788902
4321+85443805+85517879+86081671+86376085+85973470+85493121+85871990+86981784
4305+87751528+87874192+87915764+88215617+88592297+88815045+88751983+88202760
4290+87451341+87163485+87436906+88025408+88613891+88703327+88513615+88726499
4274+89136942+89154301+88819175+88579517+88557014+88681389+89001058+89381934
4259+90047178+90909713+90868981+89943929+89382871+89765745+90631435+90988223
4243+90855952+91040550+91168452+90778570+90537860+90911367+91638200+92084662
4228+91923742+91778663+92131578+92390241+92149263+92076881+92631993+93189246
4212+93317559+93824435+94788690+94818189+94255899+94322689+94123102+93274762
4197+93108537+93723949+94301343+94913169+95324368+94797580+94020503+94266481
4182+95285911+95984975+96090556+95756969+95023358+94555034+94980696+95898397
4166+96486221+96327270+95610436+94869025+94789321+95496013+96074172+96000241
4151+95826082+95884498+96136517+96654281+97102339+97324275+97692667+97818562
4135+97292959+96851831+96943771+96871580+96134567+95683287+96645850+98198645
4120+98898607+99129012+99515079+99314002+98458167+97867333+97683873+97744784
4104+98171286+98593717+98477113+98134206+98161937+98535568+99115314+99773636
4089+100032375+99872144+99834318+99958903+100072801+100405461+100895235
4076+101040889+100875792+100728743+100774780+101369285+101954222+101814113
4062+101859060+102313972+102028793+101192268+100919420+101152674+101181810
4049+100738923+100046761+100032375+101141050+102361415+102755789+102335165
4035+101755457+101781468+102294022+102557684+102665177+103079406+103431079
4022+103368437+103085877+102797429+102747463+103159120+103782886+103984690
4008+103873115+103936387+103796890+103470902+103490374+103329742+102609543
3995+102167162+102596485+103332533+103639861+103864320+104493392+104920927
3981+104696964+104193960+103693392+103422877+103544097+103955439+104330799
3968+104229099+103702550+103414455+104184926+105431751+105689935+105065653
3954+104012402+102421972+101332157+102139536+103101019+102491563+103087292
3941+105368823+105867334+103683413+100168326+98508869+101139071+103886976
3927+102345355+100000801+100693106+100934208+99386346+100446938+104614067
3914+107365260+107420932+105484364+99653420+90807277+85519122+86904526+93105803
3898+101126635+103986573+99030094+95178246+98630978+99227892+95618609+96033402
3883+96032914+96269523+101226175+101189161+95394351+90450556+88009425+91352151
3867+94597257+93334326+95856690+102127817+102615326+92632461+75622672+72468091
3852+92466810+107301968+109805626+104866458+97559469+90824713+85679812+86769875
3836+93646385+98342281+101190595+104518303+105469022+103964023+99048839
3823+90062291+88848713+94848502+97818476+104977488+113188481+112807298
3809+105533183+100531757+99992618+95792864+95321232+103255734+107663363
3796+111033189+116044509+117916390+117489448+116575742+115599729+115780589
3782+114784063+112951202+115839120+120665336+120754285+115938603+111971528
3769+113465831+116759403+119736814+120242734+115795588+113114999+114901449
3755+111829718+100467614+92918931+99855635+104310563+102577816+111760739
3742+123717223+122813421+113134309+106860630+113416773+127954947+138404023
3728+140285368+139130627+140938844+145670194+152627202+160031160+163632872
3715+160580048+155494090+160851759+175748020+188135471+193954858+197542653
3701+206763411+219285972+228299965+233210999+233483436+230213160+234005885
3688+251410726+268523534+277063219+279761607+278661841+273647968+273995866
3674+288824658+300726196+308220736+324912080+342004794+351595570+358100294
3661+363689898+366605107+370757773+378648083+379692865+372802140+377854212
3647+402497426+425476806+437483954+443727483+449886165+456295373+461701020
3634+465174104+463255077+460462493+474074897+495042220+505396928+506087866
3620+505087669+510677387+519369484+525424582+531257869+537322182+544118882
3607+553864593+562677671+567377964+571011375+575528284+578486663+581531533
3593+588126840+593045427+592191600+593308381+601831433+610708558+614993676
3580+616059908+617347569+620220068+623834016+625088603+620822374+615746749
3566+620406052+631979213+639940873+644163971+648819297+652466244+653077726
3553+654270178+658089955+659141160+654656446+651125739+653582069+659372645
3539+664231315+665981488+665647528+665535341+665438908+664645419+664618424
3526+666457689+669837896+672781668+673704627+674234436+675010260+675096828
3512+675086121+676094348+677393481+676622245+675322960+677147542+680307046
3499+681027350+679452149+678517489+679960927+682423145+684528997+685192864
3485+682306370+677965044+677446401+680824543+683645345+683736502+683262442
3472+683416078+683282479+684310283+685627310+684021213+682298417+684224250
3458+687166416+687785087+687668006+688394505+686997792+682734775+679820216
3445+678962641+678807706+680297028+682264004+682948977+682394621+681309920
3431+680320123+678598627+677090646+677481578+678356589+679583912+681592413
3418+681831470+680106609+678410808+677548646+678897333+681817399+683566425
3404+684007295+683365299+681326362+679749936+679488779+678965242+678281033
3391+679008373+680869738+681804704+680784929+679391276+679091958+679335373
3377+678952317+677631849+676204547+675213756+674328498+672694259+670733324
3364+671445140+674806993+675943772+674033998+672428360+670954945+669906110
3350+671957130+674565795+673974884+672540776+672040792+671002588+670177897
3337+670375505+670188986+670238464+671610552+672208040+671142152+670754584
3323+671135346+670208180+667959017+665140432+662385244+660090043+658173617
3310+657670880+658602404+659452407+659516492+658731491+658251849+658865779
3296+659031650+658185393+658758563+662418280+665997471+665312268+662558915
3283+660508277+656808335+652793168+652554112+655078886+657105817+657040279
3269+655711857+653738228+651246950+650781685+652602596+652902908+650579412
3256+649048106+649991560+650027273+647113020+644347125+643577189+643251947
3242+643362604+644619906+644503360+641403161+638293977+637782828+639005792
3229+639524398+638594900+637404666+635846824+634738569+635893472+637324598
3215+636911106+636442591+636884378+636245671+634477603+633360592+632468758
3202+630902427+628805140+626913376+625536662+624271980+624255615+626200414
3188+627355470+625498004+622743580+621224816+620307669+619425508+618833794
3175+618733767+618492187+617479601+615841614+613302731+610779563+610066715
3161+610158254+608618153+605565598+603201456+603375663+605297252+605551565
3148+603562297+601907601+601148104+600337981+598493401+595429680+592978054
3134+592766451+593577338+592493517+589318565+586802127+585532934+583843099
3121+581766192+580239398+578898970+577024756+575051854+573730544+572325840
3107+570391786+568576381+566251126+563360656+561499176+560589676+559532659
3094+558580831+558367852+558581519+558236814+556823851+554472366+551789675
3080+550208508+550397053+550733805+549492333+547503983+546038253+544675036
3067+543339043+541844253+539474988+537285627+536219281+535302630+533546951
3053+531388638+529879777+529164750+528936170+528548105+527096217+524830956
3040+522600759+521332483+521285184+520800877+519130351+517665042+516720670
3026+515696192+514414611+512754370+511174656+510140428+509821839+510234070
3013+510111101+508552799+506687189+505600233+505176913+505036967+505238245
2999+505988986+507109820+508786579+512143729+517182685+522104713+525931755
2986+528580033+529737001+530028289+530653995+531302376+530158829+527031865
2972+523607762+519925408+515213606+510220802+505928457+502496325+499519478
2959+496681774+494540209+493596908+493020986+492332992+492334445+493123384
2945+493816349+493425837+492031916+491118783+490764290+489530504+487672580
2932+486541498+485728470+483984299+481669866+479445863+476659779+472756493
2918+468374215+464490163+461320755+458669800+456475354+454363078+452027768
2905+449926848+448427241+447269622+446321351+445611256+445035295+444594502
2891+444235994+443723277+443117874+442752369+442442231+441578959+440128371
2878+438607886+437151485+435402574+433215163+430894191+428773083+426831267
2864+424988446+423262668+421342953+419093101+416941939+414917570+412398875
2851+408929615+405128728+402420914+400945625+399560422+397976578+396383138
2837+394688713+393155725+391854872+390545874+389241006+387759332+386188680
2824+385167261+384700428+384009146+382531371+380695395+379139349+377591334
2810+375866970+374477943+373589130+372557387+370809737+368983664+367928635
2797+367282548+366400388+365214895+363821012+362317733+360828679+359398509
2783+358028256+356636705+355092896+353364556+351682826+350424837+349349122
2770+347990149+346601848+345483346+344593768+343714552+342596661+341467721
2756+340666010+340180901+339841932+339464344+338919928+338074322+336924810
2743+335752127+334823776+334133259+333443123+332512134+331557936+331062808
2729+330901831+330617961+330160038+329668619+329125619+328504501+327922575
2716+327279739+326510988+325983971+325719028+325323431+324582096+323484625
2702+322401683+321624482+320788588+319706278+318741583+317985967+317263636
2689+316615619+315921583+314871009+313626211+312494651+311468988+310643647
2675+310023103+309385619+308723703+308057599+307395472+306807410+306200611
2662+305566684+305102643+304809481+304426999+303980451+303724609+303448864
2648+302948823+302630005+302690533+302806659+302864798+302891754+302694548
2635+302290577+301952162+301769410+301679840+301630974+301580367+301547006
2621+301609905+301702648+301627456+301327622+300999264+300862051+300788235
2608+300620548+300412635+300102497+299709366+299278628+298785374+298453995
2594+298294032+297924741+297333142+296804920+296210740+295441683+294814600
2581+294328401+293701872+292924213+292198651+291631906+291044704+290392365
2567+289843400+289405876+289020392+288728836+288592905+288476589+288239540
2554+288012872+287900456+287778385+287593434+287488761+287494133+287666198
2540+288226539+289010240+289450575+289364427+289211710+289266694+289310571
2527+289341217+289470553+289545574+289555286+289568420+289455450+289276941
2513+289123784+288822345+288422522+288119954+287890304+287635188+287295015
2500+286860129+286389951+285988637+285665001+285415525+285217898+284886443
2486+284480043+284277694+284303657+284367474+284234315+283895919+283561673
2473+283246755+282887788+282534232+282191592+281885698+281703882+281657960
2459+281538489+281110963+280518924+279954664+279435906+279036504+278726557
2446+278419286+278136334+277898425+277704373+277509691+277192364+276731076
2432+276247610+275828000+275559692+275393362+275189369+275015908+274868065
2419+274657859+274463845+274358408+274264039+274150017+274203453+274400200
2405+274426622+274259202+274158448+274202402+274261726+274274669+274203912
2392+274033644+273810303+273419523+272528071+270635810+267422028+263115039
2378+258085661+252569338+246916988+241324593+235779115+230580214+225871089
2365+221571288+218419163+217492036+218960175+222510287+228034735+235355394
2351+242458562+245478024+242669954+236711480+232626665+231736532+232287945
2338+233183297+234063259+234745976+235223152+236253767+238220934+240189286
2324+241657463+243423868+246024810+248892510+251274355+252999081+254423401
2311+255919816+257442538+258840876+260243744+261652655+262768977+263462286
2297+263945427+264505462+265187357+265790905+266220342+266634102+266982860
2284+266963646+266699449+266482800+266297887+266124464+265871872+265455550
2270+265051808+264800726+264667872+264537236+264420251+264448431+264500032
2257+264360563+264100859+263947530+263979821+264047672+264000488+263903118
2243+263893042+263969248+264078300+264168615+264118257+263985384+264044116
2230+264268910+264400387+264417861+264410443+264409411+264450171+264561593
2216+264726967+264788356+264629311+264435641+264456499+264718479+265071710
2203+265309829+265363686+265379191+265430925+265495851+265614328+265757391
2189+265909898+266083378+266178531+266219884+266315896+266381090+266322721
2176+266207858+266013902+265704184+265522732+265568903+265591309+265570834
2162+265687131+265839428+265903991+266018739+266223172+266391337+266521055
2149+266696237+266937511+267198898+267483571+267770212+267896872+267905437
2135+268110252+268551696+268990329+269338971+269580341+269732562+269920534
2122+270095907+270132537+270113629+270179817+270363354+270580691+270676379
2108+270634586+270648294+270804243+271063889+271405803+271707567+271921521
2095+272118096+272295515+272500942+272768561+273025168+273236560+273426214
2081+273618641+273832346+274081000+274306425+274455548+274636121+274798819
2068+274653347+274411117+274597789+275044700+275383899+275707190+276067381
2054+276370235+276604225+276717635+276653627+276582621+276602198+276614511
2041+276746600+277090520+277500113+277829866+278041144+278255958+278469873
2027+278612650+278762844+278905562+278846161+278496773+278343080+278905103
2014+279716048+280115202+280284610+280571175+280829617+280918690+281016136
2000+281254007+281599075+281665263+280934654+280245971+280881008+282207976
1987+283201521+283817572+284263738+284720189+285187385+285610227+285957416
1973+286232817+286235226+285643550+285300585+286250826+287594982+288237590
1960+288456380+288586902+288637470+288689414+288712509+288517445+287872734
1946+286455355+284550189+284160671+286019628+287729404+288067321+287810045
1933+287586207+287510957+287452723+286817725+285159912+283774881+283249756
1919+282727843+283620462+286110364+287282970+286504948+285842706+286567886
1906+287856541+288749121+289232051+289335386+288843700+288207631+288112536
1892+287535868+286586794+287643084+289821509+290985666+291571874+292072527
1879+292476250+292821299+292811223+291172166+286899570+283565057+286002517
1865+291100090+294059482+294878494+295138676+295560179+296140212+296670843
1852+296702484+295558784+292623672+288564323+288243478+293389401+297623646
1838+298728191+299231578+299151721+296125625+292357009+292629006+294941126
1825+297513734+301351673+304290819+305258132+305703170+305837267+304721403
1811+303658287+304904500+307209030+307839707+305953812+303653660+304203180
1798+306479472+305911561+302140593+302112546+308583412+313973496+315299375
1784+315229115+315130044+315917970+317783064+317087843+311683152+307101202
1771+310515917+318253300+324710304+327056742+325942216+326618854+329297493
1757+331611391+333895311+332888652+328259288+327258403+332325998+338201460
1744+341718172+343436417+346209309+348689423+346093146+344891097+354344870
1730+366172841+375777917+382630443+386875909+389113831+386304346+379896208
1717+382397198+396927400+411719790+421097587+424253382+424114430+425961381
1703+427398051+425811607+429770872+441055345+457188622+474806443+485711760
1690+491136755+492469382+489164005+494525412+514811432+532589235+541793513
1676+546747966+553957011+560858671+566437148+578603055+592291704+599243416
1663+604836767+614605420+622350583+620298951+607865845+604341868+620267482
1649+628475845+631204612+643881095+659164178+666683133+665723696+659010772
1636+659583712+675881446+690920808+697795932+702721440+709491565+718530661
1622+732876790+747485683+756881298+768699594+786010603+799298568+806580225
1609+811418170+815961081+819034017+820102046+820750465+820024426+815899137
1595+809639167+802710358+795105448+787696538+780328772+771633502+762334243
1582+752856113+740588381+724285141+712535824+710278860+705400537+696658847
1568+693706051+694732861+693357714+685491493+667972553+660899898+680002223
1555+698990908+711931836+722215003+732166351+739754514+742484313+742354767
1541+748086918+776639230+811012249+831569177+847752430+867519845+882985776
1528+890321118+892834803+891227788+887380863+886080966+884774798+883042902
1514+881918664+875711384+860670263+839998931+834327806+853559371+869610325
1501+873809564+872561898+875638505+883968461+887498862+884507217+886506465
1487+900613538+917394202+929023151+936021626+939008606+936428695+930871440
1474+930113510+941050373+955792788+961813167+960456298+961532280+963291630
1460+956138143+942705872+940919527+950554657+955873239+954565618+950370356
1447+948535832+949943939+950148888+944971248+933578756+922736644+920804387
1433+919938324+913805146+908256456+906901574+907960121+910176401+909825387
1420+908432422+916072587+929250506+937938665+941871699+944618169+946586139
1406+946435028+947000320+949660834+950954537+950761442+950592970+952131924
1393+956856688+960856942+961625272+960978765+960825435+961701210+962758457
1379+963419188+963563494+963290024+965466691+970130888+973013864+972745671
1366+969143997+963857917+963032538+967465785+971175134+971701655+971131774
1352+970975997+969634881+965783903+961367480+958528782+955296858+950066526
1339+946791394+947309273+947861336+946752775+945396976+945073493+945860176
1325+946020694+944327799+943078222+945061716+949098524+952014154+953985948
1312+957155317+961117641+964144616+966039783+967572466+969288609+970883541
1298+971048571+969890379+969453486+970740000+972846540+974672116+976629456
1285+979564893+984053584+990220333+996338292+1000732997+1002850090+1003067581
1271+1003439319+1004611276+1005279961+1005334945+1005478180+1006482278
1260+1008491467+1009243890+1007325322+1004696926+1003255783+1003344262
1248+1004269363+1005043351+1006012730+1007544648+1008621931+1008432047
1236+1007798999+1008342879+1009797482+1011073596+1013058696+1015515561
1225+1016229059+1014965869+1013180824+1012598631+1014205187+1017267799
1213+1020459652+1021828069+1020940823+1020361383+1021231499+1022897551
1202+1025767068+1029476417+1031993161+1032577495+1032688229+1033720392
1190+1034867954+1035044990+1035512396+1036800211+1038276762+1040307975
1178+1041990929+1041948333+1041280948+1042225243+1044454141+1045714884
1167+1046421729+1047477599+1047863867+1048357427+1050580207+1053159659
1155+1054722702+1057084816+1060330659+1061070158+1058876744+1058136174
1144+1060888457+1063212717+1062402939+1060736045+1060449269+1061603026
1132+1063025281+1063043787+1061058840+1058252032+1056558678+1057194403
1121+1059132472+1060457146+1060309170+1058937923+1056998172+1054473321
1109+1052529364+1050863235+1046800120+1042613806+1043383053+1048964550
1097+1053403992+1053341819+1052245647+1053269857+1054484257+1052894908
1086+1051316494+1052122372+1053464177+1054951663+1054952428+1052092165
1074+1048277130+1046176249+1047253531+1050654157+1055227580+1058687243
1063+1060812060+1064933678+1069755946+1070214558+1066355244+1064192649
1051+1064769183+1062543650+1058597845+1057773919+1058101150+1055829733
1040+1052837247+1053624771+1055840745+1052973981+1047968635+1045869207
1028+1043538141+1040148299+1039242240+1039769219+1038266209+1035352337
1016+1034388388+1035552545+1035458636+1033583275+1032628503+1033892916
1005+1038392084+1044245063+1045619598+1042935759+1041552582+1042662749
993+1044955272+1047126050+1047953264+1047780816+1047795729+1047866467
982+1048990169+1053166006+1058094649+1059971157+1057945373+1054162151
970+1053011759+1054760862+1056900591+1060877521+1066439977+1068965821
959+1067119521+1064232721+1063640587+1066846663+1071760470+1073741823
947+1072577743+1072015127+1072731072+1072448808+1071353325+1071053319
935+1069543044+1066617472+1066254834+1068106106+1068659239+1067674795
924+1067131298+1066659074+1063229694+1058643423+1058392055+1060526508
912+1060154770+1060470682+1064326172+1066132477+1063292479+1061909073
901+1064332978+1065715696+1064094533+1062728181+1063291791+1062842279
889+1059787391+1057066692+1054665882+1050085346+1044750935+1041553882
878+1041614143+1043340610+1043130384+1039386469+1034832623+1032474332
866+1030999693+1027868790+1023842841+1020764781+1019085193+1018695178
854+1018604939+1017085027+1014820034+1014510852+1016696924+1018585668
843+1017696739+1016255901+1017112328+1018760180+1019461213+1018318546
831+1014617303+1011000181+1009537242+1008854257+1008697945+1009066242
820+1008343337+1006220967+1003975399+1003117442+1004102651+1005420748
808+1006173401+1006967120+1007441791+1006482278+1003677075+1000533248+999378115
795+999888653+1000939705+1001439995+998170904+991545696+986611853+984978302
781+984215478+982435404+978881984+973438980+967754626+963391964+959982162
768+957530267+957250756+958703983+959774307+958472498+956931403+965072775
754+978963429+973265462+952018513+940449062+937538173+932560663+926096355
741+921942772+919422816+916159078+912546010+909358057+906716738+904101267
727+900764956+897342918+893069271+887506127+883267352+881085562+879225037
714+877698625+877151992+877711396+879224043+880896213+881970284+880434543
700+876359497+873888408+874457524+875540313+873998606+869717618+868201989
687+873007280+879525960+882274419+881273763+878456554+875108925+874182907
673+876984974+875071530+865003559+868165434+884416214+888928917+885989657
660+886438250+886687248+882547583+877673160+873742037+871447373+873858507
646+879044177+881510525+880786168+878604684+873679864+868897439+872003870
633+879880033+884341652+885867758+880631156+866685518+855525812+853079041
619+853711477+852003517+848419738+844528000+837529983+827105034+821109968
606+823881063+830822642+837116643+839658853
##END=
