##TITLE=Sample description
##JCAMP-DX=4.24
##DATA TYPE=INFRARED SPECTRUM
##DATE=12/9/2023
##SAMPLING PROCEDURE=Instrument type and / or accessory
##ORIGIN=Default
##XUNITS=1/CM
##YUNITS=ABSORBANCE
##RESOLUTION=4
##FIRSTX=4397.6552
##LASTX=599.8556
##DELTAX=-1.9287962
##MAXY=1.7532223
##MINY=0.13714978
##XFACTOR=1
##YFACTOR=1.6328156e-009
##NPOINTS=1970
##FIRSTY=0.14661486
##XYDATA=(X++(Y..Y))
4398+89792668+89729433+89904791+89705249+89706399+90673341+91603204+91276245
4382+90417574+90373642+91148151+91742951+91761240+91555420+91070598+90487188
4367+90573639+91114850+91163072+90731465+90646611+90659917+90162976+89980984
4351+90259584+90154452+89727015+89213647+89143860+90339373+92111014+92836234
4336+92437946+91943669+91471223+90816702+90249637+89975645+90008773+90178727
4321+90529405+91477082+92452940+92242977+91408417+91259434+91607274+91885126
4305+92203662+92667895+93037783+93235700+93488893+93602722+92935726+91641241
4290+91018242+91601999+92573011+93569111+94542395+94828497+94272291+93298414
4274+91954557+90990773+91578061+92916279+93415857+93238757+93370993+93839342
4259+94013230+93929261+93905479+93665838+93114013+92787145+92913130+92769550
4243+92147728+92057353+92468691+92301712+91918454+92408213+93363200+93802345
4228+93805996+94007134+94687819+95279662+95041736+94166447+93412407+93251451
4212+93514190+94121319+94926702+95122219+94741352+94403296+94389552+95239772
4197+96370544+96117734+94780174+94339140+95047741+95356001+94890344+94721111
4182+95119162+95041919+94107876+93511133+94056396+94757451+94504531+94141214
4166+94568350+94905384+94697638+94392199+94170627+94232045+94618187+95111067
4151+95657517+96320698+96712023+96390549+95706852+95322399+95411323+95198586
4135+94357930+93828309+93834058+93995325+94242559+94261942+94149190+94577987
4120+95421334+95814202+95520891+95111003+95297676+95827407+95576021+94790432
4104+94696963+95162529+95453878+95668285+95797611+95545896+95370703+95634300
4089+96031803+96233973+96210455+96442330+96842160+96738936+96446975+96597473
4074+96839268+96514672+96129863+96300274+96020980+94954181+94461721+94972123
4058+95742234+96246467+96313041+96205062+96262720+96248520+96151756+96441463
4043+96994237+97419438+97367739+96640064+96011087+96035427+96004444+95537427
4027+95308336+95756890+96367606+96535954+96274611+95841799+95550797+95670074
4012+95920301+96017731+96476543+97255644+97294931+96636824+96240024+96155790
3996+95926233+95503140+95375357+95980059+96974826+97578742+97369701+96611974
3981+95872098+95541534+95694432+95928351+95874060+95852185+96042207+96131214
3966+96180914+96496849+97199646+98015333+98451303+98116121+96980238+95829890
3950+95446139+95835548+95959160+95393308+95630056+96535616+96457068+95418816
3935+94302307+94311844+95807321+96710408+95613064+94554797+95062744+95206407
3919+94755269+95866394+98243165+99257316+98357806+96669861+93789240+90019870
3904+88411002+90021558+93174573+96319785+96874814+94104335+92295497+94142793
3888+94776624+93996183+95018510+94977900+94621993+96132646+95383115+92646001
3873+90562742+89546228+91374952+93050961+92576224+93782314+96197368+95746915
3858+91028363+83995881+84234053+93783965+99014143+98613053+95688089+92617884
3842+90231585+88341543+89261586+92765215+94669530+95304211+96296559+96816589
3827+96469827+94170216+90073404+90023457+92902361+94138458+97229872+100013993
3811+98596124+94461858+91965472+92058430+90806801+91589195+95658858+96965125
3796+97494126+99098833+99565493+99218658+98921796+98730359+98876130+98289315
3780+97490348+98958711+101027697+100861858+98678587+97083736+98234970+100328021
3765+101887344+101715619+99407841+98661339+100137879+99001631+94096925+91527640
3750+95511317+97378188+96609556+101400578+106364083+104862264+100225234
3736+98320608+102185966+108677647+112839739+113664652+114134698+116454988
3723+119891905+123847456+127771157+130348510+130257532+129731214+135248698
3709+146081524+156267504+164292480+172144993+181369844+188334209+190213537
3696+188362208+184128121+178530145+175189298+175674147+174843092+170594458
3682+164696691+158051154+150227873+145116736+147170052+148387851+147221203
3669+149473787+152083993+152213748+151853332+151655224+150395144+149397931
3655+149891304+147696990+142507825+142123390+148486576+153795512+155590807
3642+155449901+155006137+154541457+153926690+152676457+149433550+146683204
3628+150548225+155496298+155554595+152401051+149638330+150346512+151717309
3615+151213204+150845086+151055962+151691089+153560771+154694008+153717593
3601+152540351+152373244+152429168+152999720+154055732+153647159+151934719
3588+152546201+155571551+157198252+157423483+157541373+157243845+156604638
3574+156516627+156324542+154681031+153120220+154571317+157089597+157899589
3561+157866461+158051246+158050954+157568076+157305830+157612319+157593118
3547+157391176+158165212+159400168+159868626+159623208+159365726+159387099
3534+159481846+159265284+158759665+158506490+158523227+158479385+158609760
3520+159001469+159165610+158758825+157848045+156913720+156785955+157464605
3507+157684616+157037834+156619404+156899264+157381722+157843135+158096164
3493+157866169+157128583+156252665+155849604+155987097+156220012+156345824
3480+156370537+156410473+156657716+156987860+157070724+156837152+156509509
3466+156229357+156069706+156298094+156776865+157065559+157225283+157331583
3453+157255545+156933888+156499944+156526994+157093375+157558202+157814169
3439+158132760+158527023+158816721+158910701+159035910+159221753+159268314
3426+159274246+159362075+159689609+160327922+160909434+161204005+161350113
3412+161615042+161917078+161871995+161802017+162250708+162924467+163349193
3399+163692315+164151136+164323399+164267913+164742249+165713607+166512593
3385+166957123+167228021+167621865+168268391+168851802+169266781+169631824
3372+169905915+170263657+170918962+171831713+172796739+173547156+174050896
3358+174490224+174952057+175491918+176259656+177026226+177326054+177420034
3345+177906945+178701770+179410024+180089933+181005003+181947268+182467927
3331+182776862+183349249+183906303+184153181+184451767+184963885+185554541
3318+186108474+186383406+186447397+186647696+187029110+187548766+188199910
3304+188715185+188786989+188817379+189689008+191201980+192321400+193077292
3291+194038941+194969214+195496390+195665350+195951634+196818627+197871774
3277+198566394+198920613+199259901+199918109+200614919+200805362+200709137
3264+200997958+201594784+201828611+201665492+201524203+201509747+201534880
3250+201345971+200703661+199958391+199508787+199238638+199255229+199557520
3237+199768368+199982831+200051057+199751157+199691326+199823800+199457845
3223+198752748+198164775+197648605+196832736+195807278+195312080+195377514
3210+195194409+194900568+195149454+195258383+194402286+193037740+192017228
3196+191747152+191710630+191338396+190940902+190568413+189849170+188843771
3183+187868945+187061179+186293094+185642023+185214303+184652431+183978946
3169+183740464+183853445+183736248+183359926+183051812+182829465+182744045
3156+182827512+182721705+182285315+181694914+181092923+180731933+180732243
3142+180796272+180620887+180135856+179338841+178524487+178017316+177620351
3129+177212051+176851243+176374425+175967878+175935061+175712969+174591140
3115+172889040+171469920+170769715+170428638+169707752+168340597+166682721
3102+165259951+164201804+163218234+162131194+161073904+160417649+160159035
3088+159771215+159121348+158472559+157980537+157682918+157377141+156867943
3075+156322424+155977752+155790741+155631655+155635123+155902443+156050687
3061+155798114+155585003+155755678+155971309+156009164+155915439+155651550
3047+155402664+155306056+155179003+154924660+154546276+154180978+153850724
3034+153355034+152962212+152808584+152442447+151932419+151685732+151593240
3020+151285099+150714383+150257633+150134212+150058055+149657303+148941766
3007+148308408+148084336+147956563+147436012+146825023+146479839+146290802
2993+146522741+147306915+148146567+148704579+148973104+149017156+148898809
2980+148696731+148596956+148763534+149077771+149184756+148990170+148797264
2966+148708157+148473617+148076762+147677178+147233113+146776327+146422592
2953+146100907+145790996+145714538+145968972+146244862+146231100+146052448
2939+146049783+146219610+146143115+145675633+145236479+145051722+144861398
2926+144539248+144116867+143555003+142882477+142224261+141813616+141601763
2912+141293859+141123485+141459196+142023159+142252706+141975493+141546396
2899+141422144+141620846+141783846+141803915+141905962+142144818+142327166
2885+142367047+142422880+142597425+142809651+143018099+143196249+143219876
2872+143109807+143129355+143366459+143595560+143639091+143457574+143124308
2858+142836610+142583635+142188057+141727977+141269347+140757731+140491022
2845+140665430+140887239+140961589+141155125+141506314+141811243+142018641
2831+142162778+142262015+142394315+142592068+142692975+142559981+142339623
2818+142227829+142197768+142178420+142212889+142327029+142504823+142761511
2804+143056511+143325611+143593497+143763880+143681427+143534013+143625703
2791+143923486+144195433+144333227+144365251+144350275+144320132+144287652
2777+144310394+144323435+144204158+144069019+144012182+143993629+144061664
2764+144243774+144445496+144541949+144496693+144409010+144410762+144549269
2750+144837159+145148202+145175891+144971485+144883702+144962706+145099506
2737+145213682+145231067+145234754+145367510+145562023+145672759+145763243
2723+145885523+145942351+145993129+146107579+146169809+146247253+146443792
2710+146551780+146556243+146696802+146868536+146914084+147012372+147149655
2696+147111417+147032513+147103623+147242376+147380572+147516888+147585515
2683+147551831+147510755+147468629+147337871+147257626+147270950+147185438
2669+147080388+147091604+147113680+147022128+146774118+146505821+146373384
2656+146352522+146316273+146155554+146006882+146005805+145980809+145857023
2642+145759182+145698941+145600809+145432415+145218911+144976925+144672799
2629+144421349+144368910+144305265+144010056+143657096+143508698+143573995
2615+143569477+143298908+142993185+142836089+142644013+142401379+142263694
2602+142141332+141956055+141797891+141736491+141755802+141763961+141691710
2588+141501860+141234567+141048168+140936438+140766264+140666535+140748879
2575+140828814+140778502+140597186+140353292+140153012+139976550+139812674
2561+139663098+139429516+139066856+138664425+138426536+138464445+138565160
2548+138470213+138205284+137927030+137699518+137536554+137474688+137462432
2534+137431842+137418819+137351213+137184964+137049944+136941709+136823526
2521+136786611+136843038+136890749+136841422+136705198+136586477+136552200
2507+136505584+136414798+136445169+136557840+136507728+136329716+136281713
2494+136418457+136622279+136852136+137106407+137367530+137646413+137967568
2480+138282673+138440727+138393883+138282883+138194031+138088050+137974221
2467+137950731+138075849+138313555+138597093+138779586+138740828+138672218
2453+138785619+139019930+139280451+139474535+139605832+139830798+140135453
2440+140442873+140771995+141000192+141019777+140977049+141023217+141120921
2426+141183206+141244086+141426926+141734191+141997962+142112731+142154209
2413+142260847+142527255+142884896+143124628+143199826+143246853+143352469
2399+143612671+144052063+144429480+144588638+144666192+144763950+144742504
2386+144330198+143381079+141771042+139322313+136210931+132866707+129482456
2372+125987005+122319509+118707517+115598974+113233008+111555922+110931472
2359+112050390+114966602+119249249+124709494+130053017+132458225+130744014
2345+126956648+124445085+123825335+124103241+124943431+125993758+126787058
2332+127408661+128550029+130309514+131916265+133097861+134546366+136722400
2318+139079103+140906468+142229946+143518892+144938869+146267257+147394370
2305+148430095+149388924+150235210+150989168+151615690+152144919+152641613
2291+153074207+153510505+154019520+154464597+154718630+154841412+154937436
2278+154980913+154992558+155111215+155292549+155390235+155429477+155508983
2264+155646239+155799794+155949808+156100862+156244251+156390925+156551890
2251+156720521+156911803+157048256+157076072+157169541+157412970+157646943
2237+157770985+157857883+157953305+157980665+157946862+157995796+158163934
2224+158288906+158300715+158363302+158505449+158561666+158542428+158592986
2210+158759117+158977467+159122681+159152632+159169789+159257108+159405716
2197+159584258+159761212+159869520+159907576+159982610+160116015+160226897
2183+160311404+160437617+160591391+160746133+160885396+160874135+160747702
2170+160790503+161082172+161403628+161571219+161602886+161578629+161597320
2156+161723898+161860551+161936389+162026427+162177116+162343046+162473986
2143+162573698+162658643+162722799+162772956+162837988+162961153+163142981
2129+163318803+163478217+163599192+163603153+163567780+163603682+163679940
2116+163776913+163864432+163871313+163842511+163906065+164064037+164138998
2102+164060952+163998950+164029230+164116512+164251322+164328619+164333420
2089+164374085+164418475+164418183+164437128+164532368+164678585+164766341
2075+164734546+164721441+164861928+165015957+164995935+164925810+165020082
2062+165159255+165188951+165202238+165247284+165305125+165341557+165312390
2048+165277747+165268895+165242411+165218081+165247631+165358860+165562188
2035+165763089+165854112+165900254+165977770+166068301+166158119+166256316
2021+166297054+166213076+166228901+166553843+166899812+166970721+166942266
2008+167058258+167264489+167447211+167601058+167705715+167780604+167815009
1994+167672369+167558713+167797724+168197646+168557596+168832181+168985024
1981+169149220+169383431+169605175+169774537+169935940+170043098+170005389
1967+170113825+170588161+171054137+171306637+171527889+171761552+172007390
1954+172295390+172576491+172802689+172881940+172682371+172364091+172584613
1940+173447645+174203283+174598806+174837105+175066297+175383774+175750075
1927+175881892+175588143+175353895+175397554+175478886+176122692+177267519
1913+177876063+177827859+177855365+178370056+179068619+179600631+180011176
1900+180349095+180470015+180527455+180786452+180885324+180899506+181579926
1886+182560046+183211135+183739990+184292736+184782349+185182034+185409181
1873+184984217+183711352+183044274+184459013+186576440+187855347+188503972
1859+189055587+189615160+190162212+190743688+191253487+191338944+190719723
1846+189878903+190588070+192883583+194518844+195212898+195861761+196262504
1832+195631784+194937584+195717350+197044333+198465734+200284447+201700609
1819+202569629+203379675+203948210+203914079+203960476+204910607+206227533
1805+207031940+207047108+206911969+207692867+208901284+209025435+208357937
1792+209429938+212477164+214675958+215509642+215981568+216449680+217288528
1778+218382505+218365038+216875082+216191048+218393420+221647460+224112991
1765+225044031+225022512+225754987+226963294+228044933+229002986+228729350
1751+227533709+227682537+229587016+231602578+232832515+233500688+234577270
1738+235362257+234460146+234640039+238127341+241539718+244159899+245945594
1724+246788768+246800815+245114539+242767592+243913332+248458708+252477329
1711+254763205+255132500+254507073+254567652+254307431+253173738+254139037
1697+257241530+261965084+266896639+269150299+269691876+268910211+266638554
1684+267938725+274156359+278809898+280505172+281156133+282801579+284139385
1670+285491154+289878395+294468836+296607764+299023686+303146617+306048100
1657+305474308+302338962+304521548+312267286+315460893+318300483+325889964
1643+333151455+337127238+338278143+337868602+341168729+349397910+355511891
1630+358697540+361424880+364453744+367838670+372295797+375659222+376895620
1616+380010269+385788046+390324059+393626230+397381054+402023805+406652685
1603+411065388+416021601+421590647+427258692+433091664+439313953+445783302
1589+452574217+459881119+467681741+475952281+484492807+491609741+497007363
1576+505005728+514830983+521752656+528936575+539417591+549774603+558368899
1562+563826060+566519486+576951770+594824597+609514220+622159900+633819564
1549+645067899+654605792+661773540+667300351+674893300+691369768+707744243
1535+718295056+728479512+740304394+750011448+757856495+765741624+773250832
1522+781377400+791241641+802441717+815142409+826341025+833237401+837096407
1508+840636074+850812353+866637951+877356318+882918757+886670514+893123801
1495+902081424+907811709+910089134+913658078+921621252+930715255+937295066
1481+941599642+945114268+947416443+947388626+946525375+948613489+953211194
1468+955856216+955780434+956831609+959419246+958282067+951726495+949728692
1454+954825045+957920603+957155182+953809790+951362256+950372846+947890632
1441+943358196+937196723+930228434+926619117+924842676+919351128+913786499
1427+912809282+913123729+913476944+914051009+914906084+919738803+928050082
1414+935223890+939589794+942512905+945597438+948647073+951386349+954114673
1400+956857016+960488747+964461646+967304667+970056574+973686845+977426555
1387+979336675+979327549+979090417+979835906+982218025+984864361+987061696
1373+989479808+992117894+994670196+995436638+992964792+990430743+992242812
1360+995841981+996491829+994357866+992263984+991733651+991220694+988985614
1346+984851950+980514081+976680409+971352765+965932401+964199838+964847277
1333+964485155+963690385+964188449+964754410+964871224+965426453+966398487
1319+967707455+969616041+972391894+975708010+978123494+979245341+981106545
1306+983744704+985712719+988123092+990974728+993630994+996495041+998593960
1292+1000247674+1002178528+1004111353+1007701615+1013541121+1019233661
1281+1024094854+1029708544+1035481028+1039959949+1043682065+1047287805
1269+1050209237+1050470388+1047814853+1046107697+1047644086+1050822800
1258+1054879440+1059265786+1061829623+1062831079+1064251750+1065655994
1246+1066405353+1067834419+1069495288+1069319630+1068742790+1069525660
1234+1070695547+1072342471+1073741823+1072632898+1069595310+1066683077
1223+1064875534+1064414486+1065064261+1066099155+1066995991+1067749219
1211+1067248892+1064953507+1062740841+1062078946+1062846703+1063172759
1200+1061052594+1057262508+1053732258+1051470165+1050906759+1051605523
1188+1051482212+1049275897+1046020525+1042803554+1040713615+1040196570
1177+1040170141+1040101440+1039950750+1038384208+1035506362+1034068681
1165+1033510896+1030255159+1025508516+1024230868+1026099811+1025835886
1153+1022150274+1018216434+1016878190+1017912062+1018621558+1017897753
1142+1016425392+1015115475+1014057437+1012117676+1009658898+1009072567
1130+1010424756+1010679994+1007935680+1002880869+999043692+999312363+1001118884
1117+1000157582+995958575+992262743+991754458+992695245+993573171+995444815
1103+997627183+997606229+996134161+994741671+993635958+995925722+1002346009
1090+1007511866+1009135355+1009047964+1008235745+1009530184+1013546451
1078+1015316102+1014303986+1015104669+1017326462+1018588266+1019939652
1067+1020444068+1019250745+1020815096+1027231588+1033505129+1035932294
1055+1036723997+1036647703+1034479645+1032279098+1032552223+1034324356
1043+1034834101+1033708895+1032686777+1032573979+1033015096+1033734594
1032+1033606537+1029506895+1022809175+1019361864+1020576724+1024192977
1020+1028296854+1030636774+1029440165+1026407542+1024675636+1025329791
1009+1028321457+1030760450+1030292977+1030026496+1030734824+1030376499
997+1029744976+1029767754+1031388614+1034563897+1036283099+1036477812
986+1038649375+1042400037+1044959347+1046485223+1046971970+1046214727
974+1046170703+1047823760+1050160905+1051167180+1050371973+1049469150
962+1049583628+1051025179+1052285450+1051828345+1050849156+1051436362
951+1054887836+1058942943+1060560371+1060715879+1060427496+1058891837
939+1055625221+1052663561+1053344730+1055879290+1056814893+1056851981
928+1056208193+1054845126+1054615368+1055475115+1056109194+1056764225
916+1057045600+1054604782+1050427094+1048178361+1047180336+1046667014
905+1048233191+1049186754+1046727319+1044326437+1045698338+1047983575
893+1047017966+1045134859+1044824355+1043665346+1039765820+1035309240
881+1034589742+1037918707+1039175839+1034974204+1029724022+1026026876
870+1023468880+1023253286+1024285187+1023612341+1021509260+1020647250
858+1020616513+1018138608+1014345455+1012789645+1013474902+1014836290
847+1015681509+1015183519+1013990634+1012441906+1010180762+1009650283
835+1011616473+1011949902+1009638310+1006984819+1004149828+1002178966
824+1003158374+1006668911+1010363210+1011516743+1009938082+1007695848
812+1005774193+1004004396+1002724704+1003980814+1006411337+1004780621
800+1000259721+998680110+999569353+999558256+1000563071+999981778+991755772
787+981556350+976031364+974956607+976825404+978796339+980160794+981031784
773+977544683+969579464+963357540+961197440+960342292+958635355+955579514
760+952056274+949710294+952441101+959573221+959523795+949686055+940968412
746+936757213+933599598+930185140+926167706+920695287+914679246+911291802
733+911527619+912878786+913757515+913440951+909044675+899587748+890340063
719+887017158+887576475+886165953+882263141+879497071+880700177+884983946
706+888485795+890363937+892687868+894041663+891898574+888780895+887904064
692+887759361+886568667+886325841+888803528+891352544+890682254+888306998
679+887585163+888687006+889849009+890385109+887339052+879195984+878386248
665+888147620+895613535+898706244+896904251+892822642+892526519+896241553
652+900811150+902604748+899618193+895639672+893809569+891677650+889538504
638+891147098+891767524+883913935+876153723+883717761+900372224+902532178
625+889833020+878435821+868654590+859787571+860316809+870794029+880485459
611+884373523+882027835+870490825+859429246+857903808+858598629+857370408
##END=
