##TITLE=Sample description
##JCAMP-DX=4.24
##DATA TYPE=INFRARED SPECTRUM
##DATE=12/9/2023
##SAMPLING PROCEDURE=Instrument type and / or accessory
##ORIGIN=Default
##XUNITS=1/CM
##YUNITS=ABSORBANCE
##RESOLUTION=4
##FIRSTX=4397.6552
##LASTX=599.8556
##DELTAX=-1.9287962
##MAXY=1.8298539
##MINY=0.28105342
##XFACTOR=1
##YFACTOR=1.7041842e-009
##NPOINTS=1970
##FIRSTY=0.31186706
##XYDATA=(X++(Y..Y))
4398+183000788+184487735+185746275+185739419+185268160+185622287+186075376
4384+185343794+184357906+184650178+184981274+184088280+183731233+184852179
4371+186248103+186903421+186435152+185571362+185524128+185686099+184873654
4357+183911199+183657714+183585805+183508981+183716806+184155503+184224702
4344+183581013+183293917+183898940+184238744+184336553+184902631+185303870
4330+185189675+184796638+184290805+183836597+183618087+184203699+185328772
4317+185786951+185362699+184450818+183535790+183703515+184887050+185597576
4303+185408919+184751292+184177135+184266847+184568825+184443631+184262930
4290+184649444+185404529+186056542+186865822+187124256+185434853+183213491
4276+182509295+182576116+182918263+184040014+184901320+184845132+184712750
4263+184711945+184781809+185564210+186571678+186159283+184835216+184464494
4249+184998062+185324663+184902876+184369815+184477557+184461696+184117187
4236+184092547+184053567+184033281+184345997+184666355+185216868+185927955
4222+185749895+185128258+185364657+185974664+186204261+186167432+186151833
4209+186289356+186131057+185547824+184830792+184279211+184481754+185296245
4195+185919753+186257581+186537105+186515263+186244867+186297401+186781986
4182+187093967+186691032+185687883+184389961+183700647+184613017+185868776
4168+185942819+185684770+185673596+185388021+185206848+185355494+185398968
4155+185668122+186071004+185921782+185627078+185595705+185313034+184570434
4141+184083051+184357136+184464756+183817920+183612474+184400943+185235405
4128+185363556+184866502+184568108+184970816+185513076+185579302+185364010
4114+185402011+185353378+184515978+183747147+184302050+185489572+185987221
4101+185439890+184390048+184025831+184474479+184848052+184983914+185015847
4087+184914191+184783452+184714358+184667072+184720357+184911200+184889358
4074+184523795+183968297+183487629+183523514+183781615+183454472+182945981
4060+183366893+184470527+185372387+185678632+185263298+184593343+183955426
4047+183398616+183335625+183883901+184730814+184997817+184274052+183411435
4033+182896124+182740098+183231538+184023960+184354618+184385152+184324487
4020+183938025+183501164+183279717+183490322+184185634+184703079+185055019
4006+185751538+185937521+184955199+183950669+183616111+183421455+183308852
3993+183651296+184046869+183785410+183153228+182694420+182686778+183148909
3979+183368467+183374203+183852108+184296926+184195847+184012978+184092390
3966+184461293+185128398+185828554+185566501+183864227+182347586+182284245
3952+182688544+182906319+183303273+183477626+183282410+183635872+184492771
3939+184683405+183637079+182264239+182200129+183356173+183832330+182801585
3925+181859311+182200899+182417817+182277373+183085988+184688354+185469339
3912+184696049+183329994+181158000+177537567+174934815+175131499+177223540
3898+180468616+181894129+179583370+177824873+180248306+181630064+180343824
3885+179858941+178855740+178115589+179877059+179553623+176559111+174333971
3871+173803970+176093692+178064315+177274954+177965911+180972910+181589475
3858+177074859+168268490+164919624+173873921+181363568+182657923+180134898
3844+176596674+173424924+170794594+171155855+174863762+177455409+178565251
3831+179818195+180417465+180116675+177661432+172126827+170373716+173997192
3817+176740931+180360332+183850692+183461764+179626267+176548933+176330948
3804+174674510+174258144+178320195+180986393+182599374+184580175+185162132
3790+185140744+184980189+184294880+184238972+184087860+183268525+184325151
3777+186520614+186922360+185315727+183757027+184473850+186256374+187814602
3763+188201675+186657980+186481214+188684581+188323285+183642465+181260583
3750+187341786+192556943+194376175+201282151+209524261+211998198+211284366
3736+212451707+217167992+223894719+229739785+232283481+233050860+234457066
3723+236354381+238728288+241446949+243465226+243881592+244620099+251704345
3709+264751350+277561063+287747389+297285165+309313369+321408865+330362551
3696+335987796+337122715+333877271+331120819+332679921+334109543+331361590
3682+324569774+315287948+304466573+294897494+291919141+290080830+286868962
3669+289248256+294211031+295939973+295354414+294530322+292929022+291072332
3655+290751537+288104681+281766444+280878714+289704686+298362199+302590174
3642+304397531+305912844+307458375+308787163+309503635+308373718+306277498
3628+308589866+313107508+313942617+310480045+306233009+306341853+308332761
3615+308605255+309289340+310897897+312994292+316850408+320479952+321599307
3601+321836406+322845518+323874846+324635562+325278936+324804949+322805611
3588+321924439+323648135+325270192+325971311+326309139+326094704+325865195
3574+326477336+327021659+325970296+324178503+324068085+325191393+326261327
3561+327370609+328040110+327756389+326788373+326068263+326533821+327764713
3547+328845840+329383867+329232388+328506682+327955294+328177109+328697579
3534+329093501+329315175+329070032+328740423+328907396+329147153+329170412
3520+329134842+329083218+329115570+328814187+327944137+327271524+327096541
3507+327089336+327406494+327872577+327332766+325887649+325071497+325030296
3493+324871612+324655324+324765042+324868009+324326064+323484135+323312755
3480+323703291+323822907+323511066+323035295+322404687+321776772+321436076
3466+321012209+320365092+320187872+320430252+320339176+319832066+319323978
3453+319170540+319296907+319259728+318879824+318354633+317938844+317829546
3439+318143660+318515170+318162058+317433519+317524280+317946749+317560794
3426+316947150+316844252+317064213+317467550+317738994+317425859+316741704
3412+316046007+315134406+314079616+313570408+313935902+314625723+314692386
3399+314102000+313738325+313975844+314486870+314727152+314299751+313331875
3385+312403591+311953247+311929779+312231057+312742748+313060885+312885483
3372+312442309+312136204+312145577+312526775+313145596+313726084+314164606
3358+314389324+314278311+314070732+314075034+314077972+313847204+313666346
3345+314016905+314773319+315278435+315174348+314642966+314196049+313923695
3331+313842342+314346234+315169731+315611017+315438518+314914026+314234102
3318+313690968+313833598+314052370+313448903+312684025+312369280+312100879
3304+311673513+311088024+310711373+311396857+312606729+312947040+312725191
3291+313131186+314006727+314414471+314718093+315847556+317243252+317776383
3277+317325689+316426680+315843499+315928629+316078779+315936883+315952482
3264+316399154+317130106+317747039+317523825+316540140+315878509+315588248
3250+315342510+315626196+315994628+315650819+315086839+314683782+314443116
3237+314727292+315373428+315631198+314865445+313706148+313513363+313813522
3223+313603530+313169274+312716762+312242249+312259807+312898739+313492378
3210+313499268+312650413+311418752+310850960+310970122+310959209+310710709
3196+310651040+310590988+310412753+310129381+309520598+308815248+308165684
3183+307222710+305850517+304966582+305051538+304958433+303965829+302879526
3169+302832764+303220257+302436841+300729164+299906716+300193515+299571826
3156+297529818+296291546+297356899+298837970+298196660+296396543+296511962
3142+298982454+299939978+297387538+294553440+294455824+295492322+293825951
3129+290235439+288936240+291297591+293454371+291255201+287297814+286754173
3115+289444591+289247067+284168664+280410759+281950485+285099921+283486222
3102+278017475+275067749+276762591+278605518+275265238+269901225+269172581
3088+273403581+275809526+271794150+266802783+266283695+268707005+269046775
3075+265652370+262585161+263037534+266103956+267091943+263878712+260595022
3061+260645055+262991821+263433754+261061735+259340819+259542033+260171766
3047+259656455+258346414+257430529+257103508+257084027+256721349+255632720
3034+254359385+253749326+253847817+253643140+252816775+252276789+254607991
3020+265948490+286296851+299301326+293495363+279528433+268328518+261196233
3007+256306190+252749325+250641598+249690475+248935582+247747273+246626327
2993+246594499+248145608+249681189+249038812+247345702+247053115+248878904
2980+251193423+250922346+248302176+246454317+246704846+248397957+249043184
2966+247243906+245212636+245314956+248230756+250702788+248663560+244831018
2953+243397601+245130146+248162572+248186198+244968244+242690764+243371492
2939+246036920+246887314+244163564+241512091+241539896+244047445+246504892
2926+245054756+240955386+238457596+238976509+240958744+240866007+238154446
2912+236101910+236380507+238329813+239674427+238689203+236805232+235867575
2899+236392067+237703455+237780051+236208218+234885778+234950675+236003857
2885+236763559+236412650+235702071+235602251+236272101+237053243+236992386
2872+236221212+235627608+235610750+235889557+235702945+234852464+234050564
2858+233695266+233637014+233625839+233229375+232239359+231225578+230968508
2845+231311408+231393145+231036326+230758323+230821314+231177766+231644129
2831+231925454+231898121+231690909+231458322+231180285+230823290+230544780
2818+230432981+230416210+230436759+230378997+230124148+229780304+229609991
2804+229737057+230045068+230326096+230457744+230543364+230719798+230826595
2791+230687952+230377370+230056715+229942730+230062329+230110298+229934826
2777+229736777+229606738+229342131+228885457+228432000+228102671+227961247
2764+228014532+228128780+228235700+228265551+228167585+228131455+228240177
2750+228373066+228456028+228453667+228404421+228306175+228165347+228148016
2737+228234213+228185178+228036882+228033332+228147614+228173793+228093262
2723+228062851+228093070+228082944+228083277+228044506+227835266+227517304
2710+227257838+227236101+227370004+227357676+227204466+227195459+227372575
2696+227522253+227585908+227624206+227661980+227750100+227873721+227846248
2683+227534039+227168371+227102949+227247276+227190948+226907052+226676476
2669+226561337+226512353+226431490+226180821+225856721+225660613+225526850
2656+225291605+225089691+225042737+225004334+224982299+225046094+225012081
2642+224802717+224567123+224391511+224257677+224065557+223770189+223506212
2629+223347843+223165393+222868259+222573119+222362007+222143323+221894700
2615+221646846+221347386+221125134+221142412+221115131+220819991+220578293
2602+220597354+220564408+220227716+219854231+219704798+219627694+219542372
2588+219493826+219358891+219102503+218810895+218586877+218553808+218565052
2575+218438843+218252442+217966027+217556395+217302455+217336504+217410704
2561+217306460+216979352+216483015+216074064+215940441+216005040+216096746
2548+216033021+215806362+215556917+215329839+215145798+215061175+214981168
2534+214816259+214709252+214652014+214486091+214264958+214053042+213902595
2521+213931170+214055385+214101360+214060999+213945160+213727035+213485075
2507+213345663+213334803+213362504+213355229+213339927+213360248+213409161
2494+213457287+213507407+213615883+213809315+214007661+214181559+214415912
2480+214692376+214809072+214600285+214264171+214151235+214254570+214329505
2467+214297380+214296681+214428154+214643865+214804892+214809946+214768168
2453+214786810+214855501+214953992+214994214+214997624+215161624+215520543
2440+215854978+216026445+216096309+216119235+216113499+216105367+216086358
2426+216052887+216077439+216183975+216287100+216348517+216412242+216551182
2413+216743687+216899433+217034858+217177908+217297821+217426199+217635090
2399+217944255+218541968+220055217+223557136+230499784+242415665+260203524
2386+283373444+310063453+337924317+365484358+392969062+421244491+450562993
2372+480924534+512195473+542780996+569720992+589229925+600089948+606554674
2359+607996852+595823850+570369332+540975493+514101881+498278978+501447965
2345+518996907+528212629+520369695+509058698+500247397+495690443+498412025
2332+504529444+505123048+500179580+496934696+497164694+495115167+486372873
2318+472376914+458437441+452845947+457018556+459854227+451481099+432947108
2305+411626202+395301891+385079820+376418564+366665550+355216609+341545817
2291+327127565+314214341+303053599+293000600+284238912+277188487+271668221
2278+266994169+262684771+258741689+255313306+252445335+249933380+247588169
2264+245544028+243896456+242387964+240838288+239466288+238369807+237291129
2251+236141975+235112017+234290985+233584289+232858215+232142197+231612214
2237+231243066+230900551+230692971+230675099+230612458+230445293+230334473
2224+230253137+230143349+230099857+230163041+230229162+230225944+230309518
2210+230613140+230937258+231131826+231355809+231650145+231864247+231985770
2197+232160157+232484030+232835516+233061493+233273444+233539100+233652386
2183+233666393+233817453+233968494+233996947+234036364+234081570+233999587
2170+233852236+233850609+234002403+234120567+234050791+233801609+233560925
2156+233419257+233233834+232970819+232763030+232597386+232398865+232211222
2143+232203667+232449439+232773627+233121371+233554524+233976503+234272064
2129+234525076+234905522+235327886+235640986+235921175+236224010+236532109
2116+236898477+237249455+237476411+237642195+237776536+237956240+238252534
2102+238563641+238822023+239069929+239395795+239807142+240330007+241027278
2089+241789971+242462095+243102915+243956754+245110052+246481860+247930754
2075+249395300+251053242+252981929+255083360+257299913+259695261+262329928
2062+265249960+268521793+271999404+275608995+279365378+283176270+287005349
2048+290785481+294474606+298011150+301335184+304360807+306916884+309056789
2035+310960958+312599839+313706917+314208081+314352564+314402789+314331719
2021+313866195+313009576+311915788+310657056+309208162+307491776+305700263
2008+303956875+302178023+300438658+298778652+297125676+295570702+294083335
1994+292419867+290842910+289779971+289008272+288230977+287443015+286683627
1981+286017677+285470573+284977192+284530083+284205178+283936951+283606713
1967+283406059+283561997+283846103+284019773+284212471+284548830+284999943
1954+285535155+286118879+286660264+287052077+287235033+287458544+288385604
1940+289994738+291374258+292221014+292853633+293452832+294064134+294716671
1927+295257881+295557376+295923604+296270421+296283152+296748536+297867471
1913+298532495+298488321+298427358+298766865+299286076+299735476+300063686
1900+300192535+300094394+300012692+300075857+299736875+299308216+299986775
1886+301172548+301810151+302221462+302779531+303246943+303359564+303216095
1873+302509066+300684221+299096579+299969182+302181101+303570047+303842296
1859+303537834+303099557+302700871+302377908+302118425+301611315+300101879
1846+297607219+296632557+298098659+299013477+298588421+298228943+297812035
1832+295739808+292888975+292177277+292877958+293513690+294415112+295102590
1819+295222836+294894836+294046891+292749808+291712033+291737635+292162972
1805+292127437+291596614+290555937+289854434+290054004+289370076+287314515
1792+287239528+290109667+292451397+293272761+293274807+292804457+292719134
1778+293146954+292350318+289334541+286923174+289233986+293792654+296691666
1765+297123858+296314630+296620980+297918605+298900821+299598722+299094935
1751+297210912+296389827+298055779+300443519+301549584+301185104+301382681
1738+302166901+301014424+300521620+304578739+309140695+312308388+314168523
1724+314933542+314665105+311940271+307662771+307820720+313382765+318538254
1711+321109825+320989300+319459892+319032492+318390203+315731053+315323693
1697+318861637+324908511+331507403+334974626+335894866+334575066+330416343
1684+330376506+338281802+344760658+346656643+346551856+347798487+349198590
1670+350537206+355771845+361912383+364710351+367199730+372190485+376213084
1657+375535014+370234447+370250361+379283440+383559751+386174797+394697095
1643+403637140+408084201+408141666+405224292+406437241+415412646+422546698
1630+424937341+425761118+426584860+427756434+431138072+434192235+434047192
1616+435313199+440792141+445313140+447522086+449610122+452777605+456242135
1603+459552354+463185606+467094359+470674903+474211832+478473244+483230257
1589+488068869+493109184+498559656+504620345+510968778+515570151+517714252
1576+522431708+530531922+535704375+539799792+547875419+557329673+564683021
1562+567738128+566250586+572447260+590446022+606089360+618548462+629678146
1549+640248503+648765869+654028628+656342186+660755180+677555368+696426942
1535+707454358+716673892+729211968+740577108+748499611+754656273+759649791
1522+767190222+779743128+792934127+806261670+818979590+828227314+832746285
1508+833267349+841079890+860667972+876378953+884980890+889611712+895547050
1495+904148287+909900283+912213421+916659153+925146510+934045249+941647237
1481+946942104+949944398+951923240+952937179+954185174+958656158+964662076
1468+967841696+968309668+968666068+967948441+964045109+958145866+957766942
1454+963551954+968158364+969128094+965595991+960027896+955887290+952952358
1441+949665574+943993672+935294992+929262983+927130948+924280308+922760344
1427+923260913+922008581+920902167+920869570+920554161+924884754+933795594
1414+941574418+946912515+948983552+947797114+947396925+951040250+956358620
1400+958809421+959139869+962294237+969568365+976859211+979214040+976541984
1387+973899098+975768606+980476095+984294017+985448697+984697914+984547729
1373+987271059+991831860+994773927+995259946+994750423+994193264+994890885
1360+996652180+998242235+998734339+997016344+994369541+992858181+991764428
1346+988923510+984834318+981451910+978723194+975874092+973095921+971835195
1333+971894723+970862038+969331441+969662449+972226780+977337536+983166688
1319+985018499+982993979+981190154+981497029+984291569+988409721+993025433
1306+997695498+998883825+996250871+995342278+998038118+1001340921+1004140848
1292+1007640983+1011775853+1015399311+1019141897+1024076166+1028366047
1281+1030879384+1034363151+1040417055+1046484740+1049914994+1051981485
1269+1054826529+1057261172+1057890310+1057123368+1055392572+1054412769
1258+1056410638+1060794114+1064639947+1066843891+1068838192+1070766320
1246+1071560683+1071399516+1071491851+1072103292+1071088794+1068201429
1234+1067160209+1068850084+1070798707+1072124557+1072767336+1073083934
1223+1073741823+1073740004+1072184225+1069963563+1067811382+1065772662
1211+1064861621+1066233289+1068669191+1069390315+1066815281+1063260444
1200+1062907472+1064366788+1062497839+1059004209+1059514501+1061722852
1188+1060162037+1057712635+1057418561+1055996599+1052764725+1050083925
1177+1047840599+1045958918+1046633735+1050014674+1052296544+1050851777
1165+1047430057+1045115450+1043983294+1042375402+1041912257+1044545280
1153+1046401498+1043616681+1039306724+1037048288+1036809266+1037630350
1142+1039043708+1040066041+1037247858+1031655840+1030477306+1034248572
1130+1035928723+1032883339+1028373672+1024079803+1021104090+1021695735
1119+1024219076+1025253300+1024071759+1020360862+1015762217+1013462020
1107+1014223926+1016630028+1017122693+1016100360+1018655528+1024211241
1096+1029125295+1031504396+1029495265+1024942648+1023309713+1026229466
1084+1029155024+1030187919+1031223963+1031184301+1030255562+1031723133
1072+1037219318+1044084163+1046830018+1044460080+1041427986+1041389233
1061+1043060921+1042879818+1043698454+1048485476+1050575890+1047770158
1049+1047416067+1050141985+1051097095+1050781826+1049905970+1046634784
1038+1042570495+1039317007+1036614522+1033221342+1027210528+1023418137
1026+1026546134+1031586658+1035213195+1038978234+1039505874+1035228584
1015+1032309531+1032855219+1033564871+1034032843+1035397026+1037671971
1003+1038555031+1036192858+1034084746+1034846442+1036728962+1038530059
991+1039901797+1041201345+1043222088+1044683573+1044839074+1044394746
980+1043248320+1043880816+1049283197+1055757017+1058023917+1057438567
968+1056925687+1057496766+1059393066+1059959109+1058210126+1057465708
957+1059519818+1063382439+1065874511+1066756732+1068696122+1067966743
945+1063685886+1063336970+1065890879+1064059843+1060119647+1059817599
934+1061672418+1061685918+1062007203+1066686851+1070644046+1068643798
922+1066089050+1065276920+1062426139+1058694886+1057896326+1059601520
910+1059994854+1058797434+1059738344+1062110730+1062368570+1061774896
899+1062330027+1063873074+1065319100+1064429954+1062392563+1060797052
887+1059124945+1059792556+1063296049+1065641574+1064083557+1060257800
876+1057308319+1054971957+1052339633+1051344931+1052179795+1051017910
864+1046720964+1042323918+1038206466+1034377911+1033908540+1035466277
853+1034104822+1032558487+1034427436+1034978230+1031781612+1028578418
841+1028165148+1030381124+1033245055+1033496179+1028631861+1023230949
829+1022081095+1021874880+1021592138+1023655691+1024571838+1022040384
818+1019497947+1018622651+1019320411+1022091868+1024687397+1022061159
806+1014851176+1009856679+1009664524+1012996007+1017230067+1016943129
795+1011425958+1006837316+1006733089+1008764675+1008756700+1005221520
783+1000705837+997827635+998005870+1001144989+1002871728+1001370580+998055955
770+992392167+985781524+979695442+975681447+975546372+976813603+979142410
756+988483589+998924186+990199555+969006379+957452652+955166236+955799991
743+957805065+956162477+949497691+942854451+938684185+934969581+931996736
729+931860191+932795296+930837649+925279767+918418209+912061767+908708739
716+909108648+910706468+912166554+914913247+919887249+923956994+925185892
702+927370740+931514914+932797814+930649620+929828117+931766737+934823873
689+936537531+934975037+931060512+927639142+927609553+929766000+929010950
675+925121817+925855253+932976259+936419594+931111576+928932535+932052696
662+932095227+923688243+914968578+914131196+920478054+928364883+929436601
648+926003969+924253936+918668563+910544811+910220448+916295408+918745579
635+915281189+907136032+882921814+848211388+838644338+862362534+883927289
621+887660990+892861423+898815018+899830915+901568217+901543524+896475369
608+895212824+901630193+906901206+904501120+895731440
##END=
