##TITLE=Sample description
##JCAMP-DX=4.24
##DATA TYPE=INFRARED SPECTRUM
##DATE=12/9/2023
##SAMPLING PROCEDURE=Instrument type and / or accessory
##ORIGIN=Default
##XUNITS=1/CM
##YUNITS=ABSORBANCE
##RESOLUTION=4
##FIRSTX=4397.6552
##LASTX=599.8556
##DELTAX=-1.9287962
##MAXY=1.8033783
##MINY=0.18754317
##XFACTOR=1
##YFACTOR=1.679527e-009
##NPOINTS=1970
##FIRSTY=0.19255246
##XYDATA=(X++(Y..Y))
4398+114646842+113516670+112319246+111664280+112173431+113484153+114175336
4384+113829735+113426501+113844233+114784663+115131887+114908253+115431813
4371+116719592+117341207+116674787+115642493+115327857+115701396+116329453
4357+116784980+116981482+117381336+117548551+117022525+116555455+116475161
4344+116331946+115986842+115783429+115905351+116170134+116427722+116591406
4330+116446096+115831623+115362237+115867759+116797375+116938381+116568107
4317+116807445+117232771+116891411+116258697+116205206+116788582+117276892
4303+117207157+117141617+117633938+118261196+118440424+118511091+118573765
4290+118271781+118317694+119259420+120268841+120592545+120346048+119770860
4276+118962910+118113695+117398380+117174959+117364523+117051245+116347463
4263+116536619+117738515+118751431+118948218+118700381+118518021+118908426
4249+120070777+120983047+120573851+119805054+119642923+119174131+118217367
4236+117966114+118769903+119665228+119919231+119890707+119876103+119825363
4222+119700362+119481208+119464325+119860133+120409812+120671011+121075958
4209+122099255+122436675+121457082+120505118+120172436+120198981+120665022
4195+120974388+120636338+120638503+121123380+120969979+120131650+119383827
4182+119212105+119483231+119703857+119799083+120270039+121167253+121407903
4168+120692198+120305821+120494995+120330903+119938696+119867603+119944180
4155+119999232+120062296+119953691+119770789+120034073+120527130+120917650
4141+121649077+122383672+122401709+122031045+121703855+121371722+121024587
4128+120654651+120359746+120542009+121125766+121904429+122846031+123071128
4114+122333003+121693093+121206388+120558076+120495731+120912309+120890812
4101+120910047+121368599+121497300+121407930+121864132+122620800+122810808
4087+122281189+121904651+122082717+122122136+121741854+121274447+121114978
4074+121643186+122219784+122134646+121957902+121922750+121794458+121881956
4060+122245744+122579048+122884528+123213368+123237172+122770093+122224832
4047+122104321+122441767+122904180+123237935+123240420+123017478+123107034
4033+123521927+123722493+123584458+123626495+124111558+124341402+123845009
4020+123293422+123374701+123953765+124436672+124314226+123777713+123667219
4006+124240684+124704578+124513896+124042275+123571008+123187231+123210582
3993+123427384+123489250+123837645+124721427+125402681+125172660+124425076
3979+123933332+123814684+123781963+123708519+123868503+124251225+124293492
3966+124166309+124577271+125162936+125138502+124948520+125034022+124896822
3952+124705599+125100697+125761058+125713032+125085570+125087238+125409238
3939+125042965+124380067+124109384+124839019+126349039+126751856+125646757
3925+125148953+125738371+125800663+125616209+126233824+126986562+126606458
3912+125276323+124090061+123001206+122028481+122624988+124881287+127118368
3898+128027054+126770381+124476855+124590118+126766655+126606839+125748823
3885+126769698+127134924+127499777+128107631+126378690+124491245+124289650
3871+125001905+126781631+127113905+126314215+127552424+128973695+127731741
3858+123984064+120411232+124045061+131328182+132342359+129726806+126866680
3844+125200448+124567387+124706353+126932086+129597147+129913016+129276815
3831+129204941+129295083+129289724+127933008+125670880+127054594+129867040
3817+130675816+131999012+132412485+130400812+127638432+126848430+127366613
3804+126767613+128571640+131882307+131834157+131054633+131090176+130689532
3790+130510268+130998836+131736527+132350202+132161330+132042025+133151108
3777+133951862+133369719+132348791+132727210+134473790+135560177+136142817
3763+135930220+134936823+135557445+136802255+135612204+133166874+134236528
3750+138769008+139990751+140343395+144747911+146688012+143912590+141621139
3736+143663147+148080660+150961946+151744743+151863010+153157753+155973624
3723+159266218+162731767+165717363+167446420+168131091+170204870+176594974
3709+184017434+189227300+193609742+200276039+210262948+219447896+226009235
3696+231057165+234758467+237957778+243212183+250052110+253915064+254431339
3682+254387883+254826757+254788678+256849184+262326601+265728022+268969848
3669+274526796+278189504+280057838+282526555+285323191+287173656+289843312
3655+294109882+296377217+298087820+304909506+313536727+317931217+319774087
3642+322048645+325568048+329115098+332067778+334760360+337040312+340779356
3628+347386653+351686494+353005902+354227183+357488618+362938868+367781016
3615+371757056+375791794+379131233+382246560+385456215+387420706+388572642
3601+390434818+392711505+394467179+396266468+398370218+399767950+401190382
3588+404385772+407603555+408993124+409923609+411786601+414102149+415496297
3574+415919431+415988457+415711928+416409463+419360440+421719922+421852864
3561+421460498+421800092+422352052+422503873+422732742+423176602+423689524
3547+424733715+425909180+426560757+427203178+427792898+427487125+426493541
3534+425718107+425603939+426333308+427511399+427891380+426844385+425346467
3520+424339575+423753120+423320368+423028045+422994082+423020734+423005190
3507+423108286+423009023+422436941+421774966+421257537+420418969+419001788
3493+417936304+417755417+417322842+416261864+415919715+416433737+416584743
3480+416189644+415352992+413789491+412384874+411735213+410798483+409501894
3466+408654028+407732876+406512057+405861296+405633315+405019356+404111762
3453+403487227+403070587+402414574+401429613+400110951+398753463+397668743
3439+396412150+394850921+393915893+394148381+394855286+394989895+393679892
3426+391272109+389839065+390520417+391652266+391359234+390352377+389998446
3412+390301770+390655879+390641861+390669010+391289179+391943808+392060389
3399+392057870+392057870+391761963+391600488+391584376+391104636+390482551
3385+390149913+389927503+390020272+390460228+390488974+389866817+389232594
3372+389275784+389753537+389779266+389383493+389123076+389164314+389220386
3358+389247571+389397476+388984598+388269992+388409641+389011960+389388675
3345+389793000+390210421+390234199+389753004+388704057+387713561+387439515
3331+386749362+385161551+383754272+382493066+381235337+380677061+380328559
3318+379251754+378051659+377599495+377777330+377956833+377646731+376903202
3304+375951672+375015722+374572429+375166692+376753438+378542933+379774293
3291+380239766+380350350+380416820+380404683+380858090+381897277+382198933
3277+381631749+381509028+381308622+380213646+379142199+378871277+379697246
3264+380837045+380603386+379039636+377815303+377959920+378406052+377397563
3250+375423951+374017631+372954666+371525313+370278622+369608910+369142798
3237+368674237+368334573+368156702+367843157+367195235+366164423+365000528
3223+364240426+363625615+362594555+361724472+361986097+362887445+363099456
3210+362642997+361907169+360505533+359177217+359310727+360522036+361613534
3196+362084862+361598735+360343739+359260687+358748653+358502005+358296843
3183+357993626+357728204+357771394+357359509+355527782+353308055+352442160
3169+352424345+351791187+350980051+350842674+350876743+350480793+349892776
3156+349826270+350259129+350118486+348998810+347749244+347141034+346887430
3142+346014260+344477766+343103705+341837069+340363462+339059030+338331080
3129+338464306+339170252+339454483+338761455+337500320+336264311+334990790
3115+333503696+332085416+330997680+330022231+328640610+326881885+325366294
3102+324272240+323228546+322181160+321279422+320305534+319063634+317840578
3088+317150283+316535898+315153852+313879941+313657248+313627153+312950734
3075+312002291+311424531+311238640+311094981+310730509+309976866+308827521
3061+307660503+307050767+306715645+305878177+304960468+304728264+304752822
3047+304441300+303933560+303403035+302853170+302427941+302283785+302109037
3034+301531419+300967642+300709708+300435201+299980730+299227938+298518479
3020+298826949+300270568+301539369+301414732+300250162+299238159+298960955
3007+299343029+300244803+301604775+303372586+305611300+308498219+312370170
2993+317460527+322996696+327644365+331168204+334322746+337449003+340099175
2980+341472456+341114372+339349578+336697595+333550329+330351036+327246462
2966+324174788+321446788+319501390+318297747+317317223+316392700+316048777
2953+316371407+316782653+317030082+317188717+317393737+317681517+317762183
2939+317458504+316777933+315500011+313683900+311959740+310646472+309430478
2926+307759055+305410610+302954420+300883959+299024480+297224019+295442616
2912+293621891+292050015+290850470+289550918+288220030+287269298+286258272
2899+285101935+284497860+284280650+283795392+283290384+283178558+283068685
2885+282541230+281820450+281186422+280409640+279263861+277976216+276711691
2872+275365223+273866773+272361758+270971123+269593425+268240888+266950900
2858+265590094+264068913+262424923+260716574+258839812+256765430+254820423
2845+253277718+251969933+250730055+249805444+249305653+248860338+248183475
2831+247451054+246965175+246708962+246333489+245655366+244985867+244413253
2818+243575182+242584046+241892402+241500338+241167718+240930119+240844130
2804+240619981+240201123+239954759+239829927+239497005+239024895+238575144
2791+238145124+237620970+236899835+236173358+235597568+235005186+234296596
2777+233564956+232828507+232070978+231432940+230955560+230485793+229961036
2764+229457093+229111306+228951677+228779680+228407755+227904309+227468966
2750+227163974+226897612+226604136+226241971+225724915+225201666+224941603
2737+224815724+224603074+224379032+224212057+223992487+223655679+223382520
2723+223261539+223079551+222860602+222780876+222713642+222593708+222517353
2710+222459417+222360705+222242065+222091947+221843578+221599982+221417089
2696+221208769+221009037+220713823+220324367+220088702+219899830+219579276
2683+219127591+218467922+217766572+217313981+217003311+216575900+216025857
2669+215572201+215306851+215009382+214519227+213868058+213159539+212612388
2656+212297494+211983967+211567416+211296262+211242621+211073179+210673201
2642+210293966+210053564+209888363+209771817+209615630+209341442+209135961
2629+209126521+209138534+209057779+208935129+208893962+209027773+209142243
2615+209031784+208918485+209068870+209352320+209547793+209616091+209578562
2602+209579804+209746407+209938863+210025421+210037239+210045117+209993037
2588+209710368+209296797+208995336+208772590+208509581+208205281+207892127
2575+207615491+207316532+206880124+206441428+206216197+206107760+205824062
2561+205278419+204626895+204023441+203579847+203291641+203038375+202820011
2548+202704424+202564260+202206531+201774063+201600114+201717245+201837287
2534+201804548+201760045+201747021+201690078+201645735+201723349+201912931
2521+202041987+202100952+202261646+202472379+202580532+202621131+202741953
2507+202984644+203249924+203449727+203537260+203575163+203702692+203837852
2494+203867467+203893640+203921836+203949358+204087712+204259922+204303289
2480+204239090+204193522+204117345+203908084+203733940+203694406+203591967
2467+203409181+203347820+203356125+203299112+203149402+202816959+202429828
2453+202234514+202261859+202413396+202431656+202277030+202279213+202456267
2440+202545060+202540695+202556719+202605569+202613394+202448229+202175088
2426+202021652+202041437+202180199+202340023+202318091+202162383+202203249
2413+202429012+202596094+202709623+202806703+202872943+202945092+203017383
2399+203093187+203225916+203399031+203571756+203720898+203719638+203541413
2386+203152791+202129219+200166378+197486643+194396692+191042347+187583346
2372+184181411+180928086+177869826+174827784+171993335+170321433+170213263
2359+171379483+173897956+177686525+182447368+187060771+188993482+187134748
2345+183473477+181135040+180664758+181102354+181896916+182754241+183515141
2332+184167499+185065724+186319123+187561804+188758474+190265530+192158244
2318+194080024+195615169+196705656+197716115+198909750+200093058+201061143
2305+201927890+202766884+203503670+204098731+204522168+204825598+205150996
2291+205570688+206059691+206564273+207016597+207284556+207296427+207176563
2278+207099126+207130037+207240337+207379400+207468176+207447646+207423495
2264+207514081+207685759+207857170+207911096+207856017+207893174+208026222
2251+208137622+208270155+208388440+208445879+208562549+208713306+208766184
2237+208789891+208868162+208993065+209218455+209462442+209533029+209494222
2224+209451653+209390949+209435737+209619072+209749264+209755794+209727136
2210+209778861+209928767+210084563+210256223+210448786+210585490+210735147
2197+210964423+211153419+211248902+211364490+211563192+211796550+212005580
2183+212193175+212360327+212430986+212467398+212619095+212782930+212837672
2170+212902670+213075288+213290209+213436814+213484671+213523105+213655443
2156+213867792+214037003+214132433+214243460+214342847+214415918+214616165
2143+214957977+215234648+215313292+215322235+215451539+215668714+215831572
2129+215902391+215979011+216121428+216257014+216418897+216686537+216923496
2116+217012591+217058106+217120070+217161343+217272406+217523597+217799843
2102+217997658+218081927+218096779+218196006+218388338+218557745+218721757
2089+218925321+219155485+219385489+219585043+219771484+219961333+220136861
2075+220326141+220593089+220853986+220940828+220962511+221174363+221544707
2062+221854402+222056955+222245685+222435977+222581073+222669956+222748493
2048+222881133+223082231+223330902+223600973+223844853+224077944+224355255
2035+224606499+224778301+224989016+225334395+225687173+225870757+226013387
2021+226343363+226787224+227146496+227427764+227749613+228084451+228379613
2008+228696547+229012665+229209717+229363491+229662520+230048321+230361546
1994+230678480+231150856+231667291+232067713+232399943+232717054+233052265
1981+233379970+233684873+234049611+234429378+234775697+235086846+235322404
1967+235559204+235858128+236174316+236477108+236700369+236854249+237072595
1954+237324513+237473549+237493760+237444217+237471047+237702204+238062808
1940+238286796+238352309+238490378+238701130+238847309+238986585+239219818
1927+239420650+239584290+239853970+240033935+240178357+240577200+240987399
1913+241244764+241533165+241927767+242365843+242799943+243249925+243722017
1900+244189105+244635024+245139109+245719371+246225319+246733095+247320117
1886+247791961+248196907+248696450+249297633+249942041+250526544+251021224
1873+251398259+251805761+252591326+253523177+254170868+254742205+255399584
1859+255998851+256547687+257181538+257875081+258511805+259076878+259628146
1846+260448047+261773861+262874462+263418241+264009150+264862340+265718759
1832+266464382+267396818+268504553+269489974+270602287+271690555+272532743
1819+273510553+274678459+275708791+276616315+277702827+278887998+279850352
1805+280624614+281432857+282440495+283612411+284621557+285248434+286027487
1792+287625607+289208060+290121421+290971328+291954993+292865710+293849961
1778+294792618+295338651+295744467+296777657+298420423+299926609+301017610
1765+301526167+302083414+303307428+304534494+305576627+306465270+307040795
1751+307856792+309172332+310392903+311255391+311846317+312476743+313616826
1738+314663324+315359085+317223674+319550187+320787474+321877872+323136594
1724+324499582+325587603+326189850+327653982+330906402+333888680+335739961
1711+337209452+338529499+340185094+342214281+343524320+345131082+348499125
1697+351923418+355393173+358476204+360688230+363189314+365654660+368648401
1684+374532859+380342329+383984311+387070714+391063576+395999946+400002780
1670+404014451+409270293+413572405+417038008+421792355+427567259+432617265
1657+436387469+440518560+449473096+458010211+462617918+469248957+478408335
1643+485677927+491620764+497311523+503726612+513412007+523921633+532001757
1630+540179475+549682280+559101188+568948165+579778575+588725197+596574962
1616+606686828+616570713+624013881+630445756+636329327+641666722+646429765
1603+650574164+654325630+657729801+660635494+662935249+664035477+663564397
1589+662275438+661084642+660283373+659941188+659876243+659415952+658088523
1576+656388106+655600819+655749447+656761449+658655069+660806764+663267567
1562+665902196+669261935+676317492+684966575+692949672+701179417+709653255
1549+719011264+728886277+738660430+747880601+758925329+775223486+789433190
1535+800704764+812817000+823786421+832139312+840489933+848615411+855116277
1522+861014469+865860981+869727147+874091223+878151443+879925606+880246001
1508+881395772+884491331+889030438+893446257+897423858+901447950+907095874
1495+913118916+917450129+921776800+926291917+929793185+933036662+936619555
1481+940971281+945305191+948102785+949744930+951839913+954248051+956312444
1468+958383720+959995345+960180313+959520573+958629730+955382562+950941404
1454+951639046+955143154+956657041+954396111+949945584+945671366+941848568
1441+937266874+932187838+927094109+921335601+915701873+910850959+907806505
1427+907142790+908167711+911001220+914379767+915538340+916249822+922219205
1414+931461947+937058554+937957702+938575422+940621573+943873993+947861815
1400+952498659+957939967+961236890+961428317+963553537+968311328+971178267
1387+970206438+968133031+967193923+967586005+969560894+972986003+977353202
1373+981639770+983918728+983237979+980653106+977793762+975930734+976147146
1360+976924353+976477122+975619141+974744622+973237336+971224119+969124167
1346+967141612+965429625+963239744+960267048+957678271+955147483+951683478
1333+947975096+945224490+944521879+946399955+950091941+953422295+954312499
1319+953496254+954286592+957790629+961054122+962513853+963902394+965901983
1306+968655713+972062013+973910845+973920498+974827241+977163265+979823871
1292+983922135+989863979+995081564+998546847+1001816514+1005817113+1010513578
1279+1015319846+1019727502+1024511200+1029129447+1031033429+1031236071
1267+1032609707+1033995550+1034048996+1033939903+1034025361+1035178397
1256+1037267915+1037662907+1037469776+1039171613+1041201439+1041765003
1244+1041301376+1041375832+1042782968+1044805980+1046095436+1045436690
1233+1043877235+1043179238+1042640516+1041866218+1041398899+1039874791
1221+1037709043+1037457923+1038097292+1037373317+1035031330+1031966647
1209+1030999076+1033435747+1035488144+1034387135+1032677136+1031824407
1198+1030680314+1028645946+1025927635+1024005269+1022697147+1020264663
1186+1017890736+1017423063+1018590366+1020317542+1021380720+1020670373
1175+1018699814+1017799246+1018136746+1017417669+1015928340+1015459886
1163+1015921313+1016577432+1016981155+1017480697+1018613008+1019636012
1151+1019942353+1020607628+1022926121+1024942461+1023789354+1022233235
1140+1024203511+1028494195+1032397554+1034279462+1033567979+1032198106
1128+1032234943+1032438579+1031208248+1030227830+1030937183+1031977719
1117+1030806797+1026446270+1022206902+1020652841+1020767896+1021197810
1105+1020128386+1018496036+1019205957+1021090136+1021648093+1021967068
1094+1025118416+1029366869+1030241458+1030345015+1033566915+1038260186
1082+1042648891+1044937999+1043721154+1041522756+1040298742+1040281281
1070+1041072543+1039673569+1036848436+1036260597+1035869366+1036174146
1059+1040555682+1043888378+1042185689+1039768182+1040577046+1044417873
1047+1047132991+1048148968+1050023282+1049601602+1046053275+1043743512
1036+1043068371+1041839459+1039339760+1036146748+1033314588+1031349636
1024+1029809487+1027816001+1025233329+1022043440+1018104096+1014914491
1013+1014506936+1017531091+1022399891+1024981783+1024049772+1022350987
1001+1021602951+1023231468+1027272240+1032025984+1035461527+1035299485
989+1034250858+1036163286+1038621108+1038416834+1037189200+1037999697
978+1040486053+1043118268+1046032691+1048728858+1049600821+1048524796
966+1048133850+1049920435+1051306491+1050507493+1050643132+1053444345
955+1056258690+1061163617+1069987518+1073741823+1069034640+1064294949
943+1061201874+1056633311+1053819534+1055158745+1057385890+1058448216
932+1059413231+1060169714+1059041591+1055988122+1054102452+1055512712
920+1057586615+1057887207+1057548500+1056317601+1053649684+1051784172
908+1051284417+1051541641+1053147870+1054721734+1055096640+1054369329
897+1051814196+1049295119+1048466168+1047828148+1048331310+1051021373
885+1050881475+1045367557+1041884956+1045140144+1048393061+1044717329
874+1038291629+1035138152+1033671323+1031630141+1030266797+1030195890
862+1029634100+1025703344+1019934545+1017712156+1020220586+1023328779
851+1023789354+1022872320+1022918314+1023179867+1021016390+1016096770
839+1012369153+1014675012+1020535941+1020720767+1016147448+1015733150
827+1017343639+1014020880+1007803074+1005067373+1008031481+1012341259
816+1013826116+1013270359+1013072473+1014671250+1014980288+1011287024
804+1008669785+1010740849+1012152741+1007923807+1002319038+999804362+998103732
791+995973543+993988433+989912457+984308255+981598461+982713169+984384059
777+982940298+978000236+973127675+970714710+969552944+968017124+967113292
764+967867929+968893347+967847700+962964137+958280803+958270724+957812916
750+952456640+945706784+940733079+936976645+933158034+931027207+932597664
737+935543956+935315053+929085110+919045357+911657694+909419974+907707206
723+903762681+900519772+899854567+899824969+897415554+893405161+891496920
710+890957275+889972811+891856494+897943984+902191585+900323731+897398164
696+896942983+895951918+894795901+895927005+898087004+899293700+899691389
683+900207185+899769252+899162391+901506790+905498445+907378295+904067105
669+897137320+900023352+910162545+911313664+908589320+911063538+916021983
656+918002692+915873426+912729815+911757915+911718806+912443774+915452953
642+916727645+912028838+906758374+905518958+906578516+908885723+911389753
629+914416889+918763788+921976177+923826570+921912155+911951685+903497011
615+908758531+920331619+919488969+900491026+879822546+876863762+892076738
602+907139454+908449848
##END=
