##TITLE=Sample description
##JCAMP-DX=4.24
##DATA TYPE=INFRARED SPECTRUM
##DATE=12/9/2023
##SAMPLING PROCEDURE=Instrument type and / or accessory
##ORIGIN=Default
##XUNITS=1/CM
##YUNITS=ABSORBANCE
##RESOLUTION=4
##FIRSTX=4397.6552
##LASTX=599.8556
##DELTAX=-1.9287962
##MAXY=1.9607027
##MINY=0.3296088
##XFACTOR=1
##YFACTOR=1.8260466e-009
##NPOINTS=1970
##FIRSTY=0.34390858
##XYDATA=(X++(Y..Y))
4398+188335045+189599979+189943269+188966966+188302714+188729793+189251060
4384+189066767+188648108+188739929+189743699+190864702+191152778+190731313
4371+189695390+188718010+188600632+189044309+189761211+190162423+189151438
4357+187553676+187569067+188765830+189230447+189067860+188997208+189432154
4344+190584345+191465009+190937361+189356752+188082401+187654522+187524495
4330+187517950+188048079+189103863+189960879+190195244+190214371+190218647
4317+190084132+190096977+190262109+190180033+189883747+189712788+190014900
4303+190792417+191463687+191629423+191418397+190828551+190000962+189407102
4290+188931338+188500472+188743797+189817665+190823573+190952523+190661313
4276+190419343+189820096+189284011+189777908+190526586+190221961+189711841
4263+190089453+190753101+191157168+191196958+190720672+189826282+188785512
4249+188489798+189381690+190141516+190140961+190271478+190548831+190549255
4236+190522506+190739245+190965416+190793658+190582876+190828649+191358973
4222+191790606+191747226+191377726+191245512+191224230+190827327+190548945
4209+191015015+191389722+190714780+189729908+189716215+190478473+190969790
4195+190809603+190376224+190382540+190773159+190677356+190011065+189754651
4182+190276537+190645564+190642806+190956669+191466282+191767447+191777240
4168+191849475+192395957+192885414+192940072+192863952+192573983+192146152
4155+191695473+190670273+189753018+190553434+192169964+192551607+191942682
4141+191505207+191537881+191898209+192290688+192408573+192035319+191204286
4128+190488804+190561561+191312884+192292663+193047805+192583285+191077148
4114+190361094+190764036+191110393+191271184+191442568+191430621+191692258
4101+192265146+192563701+192870905+193200468+192837415+192100161+191818727
4087+191861503+192048375+192652812+193037147+192398307+191313439+191002252
4074+191933151+193042794+193323787+193081017+192370953+191307090+191004700
4060+191681633+191849671+191041128+190726988+191521021+192306732+191941964
4047+190922003+190836940+191773780+192534878+192687983+192818793+193247537
4033+193101467+192126959+191428026+191481183+191856509+192087284+191867085
4020+191317845+190930050+190838001+191011424+191611830+192425399+193235264
4006+193799421+193516290+192715385+192375833+192492934+192183951+191042205
3993+190031090+190238657+191403953+192503347+193039106+192989524+192334134
3979+191780504+192045258+192462055+192373859+192245382+192458008+192882949
3966+193313114+193485036+193576334+193738120+193438016+192771218+192493375
3952+192595510+192578487+192548114+192409829+191925644+192107815+193029215
3939+193215287+192248499+190853881+190243651+191019258+191901440+191641745
3925+191198264+191627171+191543528+190372323+190495577+192916488+194618621
3912+193905391+192196828+189877186+186889000+185545400+186854711+189329986
3898+191884581+192368277+190011962+188425919+189838523+190426540+189883453
3885+190444020+190022783+189559945+191143345+191107978+189086188+187611386
3871+187299971+188899349+189835993+189125782+190533049+193195686+192714846
3858+188037552+181197294+180504040+188772195+194000459+193891747+191088181
3844+188269665+186250601+184562651+185317645+188531318+190146298+190277190
3831+191137322+192107130+191939141+189589910+185560791+185213226+187773092
3817+188571956+190706440+193300057+192962399+190332027+188448017+188358351
3804+187113230+187078337+189854468+191011604+191859251+193657121+194261900
3790+193896594+193542272+193181128+192981934+192109219+190786966+191423081
3777+193167190+193526441+192226662+190891467+191231493+192302651+193336828
3763+193275707+191369925+190380614+190891419+189248873+184371356+180887691
3750+183305322+185051977+184602000+188137647+191757834+190456701+186877298
3736+185038839+187018472+191227625+193829973+193155227+191404377+191491057
3723+193599705+196449703+198595285+199049229+197250363+194939437+197122164
3709+202799509+206759069+208137285+209475809+214160595+220383539+224176449
3696+224881421+222917472+219381156+218083074+220888354+222801856+221363727
3682+218106070+214333513+209598247+205956124+207081467+207849747+207074956
3669+209124327+211617164+212345703+212423764+211925021+210284238+209058457
3655+209387906+207945941+204278325+204324023+209489437+213784354+215527321
3642+215711337+215295290+214738592+214040034+212952098+210739503+209015680
3628+212186201+216133112+216409079+214339421+212399855+213151977+215001926
3615+215515146+215603767+215551965+215494223+216696502+217890996+217431096
3601+216543349+216580723+216886165+217212138+217833923+217701040+216439729
3588+216533083+218775545+220263844+220386298+220282351+220385172+220676120
3574+220995336+220683856+219068501+217384843+218360004+220684313+221606660
3561+221719893+222080417+222344828+222283870+222431393+222712941+222277930
3547+221777505+222472097+223579161+223945430+223705598+223620208+224045867
3534+224217969+223515413+222636103+222520602+222978103+223221755+223157304
3520+223161042+223319924+223451289+223294251+222902702+222781406+222996774
3507+222816382+222289550+222522365+223357037+223506665+223068977+223205924
3493+223905803+224093442+223641425+223429974+223717512+224003026+224093507
3480+223974628+223579455+223331479+223651951+224268710+224571948+224330418
3466+223957328+223929468+224303326+224732331+224910635+224932423+224891931
3453+224824837+224831333+224875154+224993430+225255262+225636775+226149587
3439+226690585+227216551+227661028+227893729+228137674+228509377+228733003
3426+228639388+228570596+229078235+229947996+230501088+230704688+231006066
3412+231517377+231920987+232126595+232312732+232600009+233061101+233435775
3399+233425574+233512155+234196269+235016481+235370673+235468107+235919080
3385+236652940+237103864+237231508+237401292+237836026+238226123+238293511
3372+238580298+239308722+239969759+240522915+241083808+241443614+241715223
3358+242021007+242399973+243184900+244174015+244614314+244326809+244032123
3345+244449165+245485349+246674147+247484061+247736525+247762165+247617466
3331+247629527+248300388+248908415+248767372+248713302+249382906+250202188
3318+250605440+250423937+249717725+249091305+249121025+249512232+249672582
3304+249510420+249212421+248816628+248644902+249489399+251139811+252653816
3291+254012887+255492879+257173616+259029587+260619613+261454987+261720067
3277+262352526+263679708+265158769+266486032+267318746+267259747+266721066
3264+266712922+267498632+268122539+267992969+267654217+267429384+267194317
3250+267014137+266835605+266796908+267238856+267650480+267403205+267024876
3237+267171158+267446716+267167078+266779135+267171305+267752892+267407269
3223+266407758+265780669+265892792+266347600+266786316+266732948+265993588
3210+265384174+265292370+265332552+265341234+265230907+264954255+264366531
3196+263314222+262472467+262514281+262760298+262413631+261844986+261381609
3183+260616920+259740336+259382358+259096192+258433082+257925150+257736565
3169+257512417+257184306+256948047+256856521+256801031+256752934+256688940
3156+256704543+256852865+256795302+256343856+255861351+255761942+255929376
3142+255826947+255441828+255265336+255109800+254664148+254191011+253659006
3129+253059743+252762266+252754318+252536894+251777281+250782976+249754316
3115+248636986+247855683+247646272+247511659+246750005+245190483+243525251
3102+242378462+241544916+240628869+239694070+238953862+238424876+238048390
3088+237848478+237799924+237509171+236880189+236508746+236450074+236158048
3075+235585975+235139539+235048976+235095816+234949403+234659499+234443577
3061+234265502+234247712+234641171+235107665+235305374+235305243+235145072
3047+234913563+234650621+234334816+234068429+233999507+234120802+234063060
3034+233599912+233065834+232870443+232972953+232924448+232422456+231740219
3020+231384445+231393372+231543212+231745197+231703057+231201294+230584389
3007+230337489+230469197+230453023+230038756+229590182+229355213+229321837
2993+229582642+230152788+230818574+231301731+231535525+231875779+232441290
2980+232591065+232123755+231843464+231984523+231960352+231664099+231357597
2966+231137725+230936165+230666824+230515189+230554081+230551323+230413119
2953+230140074+229741997+229409806+229383546+229626871+229885488+230036683
2939+230126430+230241720+230396603+230379270+230053134+229675245+229487361
2926+229396667+229122366+228565651+227968118+227432555+226981517+226881651
2912+227044760+227148575+227372136+227758267+227833832+227545364+227315813
2899+227284249+227301419+227279582+227322489+227613960+227999960+228083212
2885+228003110+228242812+228759737+229126038+229217173+229308291+229475790
2872+229547095+229633121+229898969+230206451+230310821+230131571+229763524
2858+229352602+229049967+228749797+228166757+227459909+227193653+227546539
2845+228106355+228477666+228533809+228452598+228598015+228921621+229089692
2831+229152429+229382044+229675702+229665273+229353614+229082021+228989156
2818+229021830+229203953+229462766+229567349+229526433+229573763+229739353
2804+229950542+230327501+230803739+231069570+231224371+231546362+231917674
2791+232041580+231863098+231735584+231874032+231937977+231779079+231752411
2777+232015108+232288969+232262073+231995442+231789638+231740252+231789720
2764+231880104+232017459+232301912+232655564+232890386+232989747+233056874
2750+233190116+233332954+233376318+233404798+233468938+233516480+233617554
2737+233677092+233572248+233529618+233620427+233746618+233956029+234142215
2723+234164101+234171772+234359264+234589973+234610945+234570584+234741233
2710+234978666+235071335+235089957+235110815+235233383+235589664+235975729
2696+236157476+236333511+236593761+236707957+236757343+236926572+237086564
2683+237219789+237477215+237806306+237974213+237916519+237800985+237721503
2669+237678727+237626697+237523272+237422443+237292482+237168591+237165523
2656+237173145+237197593+237360425+237520498+237616333+237707729+237602314
2642+237277777+237075074+236958936+236677551+236450531+236480561+236615843
2629+236766695+236792808+236498187+236123595+236025573+236125896+236147994
2615+235965170+235725664+235649985+235703092+235688812+235541877+235369563
2602+235239569+235129780+235073408+235106718+235141220+235172050+235306467
2588+235392298+235256787+235018195+234781202+234608856+234587884+234612773
2575+234555292+234485357+234399478+234237528+234073064+233980428+233877167
2561+233559763+233100123+232747744+232544747+232497352+232548827+232541516
2548+232446905+232344248+232221908+232072019+232021784+232016234+231826686
2534+231432672+231104317+231078350+231181725+231127214+230958295+230842076
2521+230730524+230591129+230577779+230588387+230348538+230009835+229915796
2507+229989614+230020738+230056333+230070238+229955390+229823208+229843071
2494+229967124+230027282+230056790+230183210+230316354+230413299+230668652
2480+231101999+231466309+231516920+231212833+230848474+230732890+230840574
2467+230974208+231067775+231182395+231259771+231205439+231137888+231208410
2453+231330521+231415160+231519302+231620523+231753521+232002786+232237869
2440+232390353+232594705+232843497+233003260+233061215+233077797+233112772
2426+233177239+233260099+233381884+233478159+233568723+233788367+234047049
2413+234176489+234196481+234217666+234297425+234461954+234765567+235088456
2399+235238051+235324975+235523810+235820781+236077897+236115663+235939497
2386+235545288+234617131+232777643+229967500+226538819+222877584+219094059
2372+215145222+211061396+207071610+203491832+200682178+198935457+198537885
2359+199795851+202743545+207120196+212705835+218300368+221024551+219365407
2345+215325810+212507033+211697331+212046757+213217096+214542107+215370072
2332+216024661+217322922+219286170+221208876+222736394+224322748+226456448
2318+228905219+231025994+232617358+234061150+235560074+237065836+238544947
2305+239897083+241119959+242237419+243143984+243804825+244304711+244759307
2291+245254542+245750984+246190843+246600981+246927395+247136789+247338235
2278+247510663+247564212+247586848+247674066+247815664+248013765+248290939
2264+248587012+248785031+248915548+249094128+249302707+249528552+249799769
2251+250047452+250187957+250184089+250144185+250299378+250614204+250777966
2237+250752979+250797420+251026138+251376592+251650143+251708587+251710790
2224+251773690+251853400+251910882+251939264+252055548+252263360+252362720
2210+252394725+252552040+252780121+252949285+253014747+252993824+253003551
2197+253117845+253319226+253543815+253668603+253689036+253736268+253829068
2183+253963354+254210156+254444765+254537369+254593528+254654192+254744495
2170+254960939+255259967+255541270+255763460+255856014+255763917+255646228
2156+255732173+255957594+256097104+256142965+256217044+256339694+256512579
2143+256715315+256837083+256856244+256942172+257158568+257289362+257246292
2129+257194163+257256835+257457693+257691422+257859182+257998300+258112724
2116+258200350+258310024+258432332+258533308+258596828+258612610+258644190
2102+258770121+258928431+259009317+259036540+259090022+259170255+259248872
2089+259316521+259402645+259538645+259660691+259727998+259784043+259819475
2075+259838978+259937262+260100632+260142315+260055537+260124558+260393082
2062+260534174+260533554+260690183+260964191+261137958+261185875+261148435
2048+261093157+261089355+261084279+261050691+261146232+261413402+261656156
2035+261763415+261799533+261850682+261912129+261980382+262070342+262135461
2021+262201625+262291503+262386277+262548146+262787179+263071403+263358810
2008+263574080+263739245+263902583+264033491+264128575+264278073+264447400
1994+264477430+264537474+264866058+265290820+265625426+265907627+266215892
1981+266473318+266641503+266880666+267164597+267381842+267455350+267265900
1967+267129328+267445476+267925794+268256695+268495092+268655915+268832930
1954+269092314+269318323+269479881+269523180+269340796+269114576+269379966
1940+270142077+270790530+271177917+271404938+271578900+271934903+272467692
1927+272791788+272644004+272437401+272403013+272423691+273024553+274139109
1913+274827221+274926614+275037758+275525877+276152787+276698159+277233053
1900+277677759+277774051+277745359+277983771+278070859+278052090+278814233
1886+279982630+280742358+281192189+281589173+282057609+282578761+282931973
1873+282618747+281434747+280712720+281961088+284060483+285501697+286267724
1859+286788745+287285351+287838492+288445751+288932108+289048833+288597012
1846+287837480+288388890+290560748+292166736+292804940+293523376+294216287
1832+293867383+293131745+293735545+295150744+296688478+298465670+299851328
1819+300638213+301298613+301913609+302121632+302271554+303159138+304500143
1805+305371406+305388869+305213095+305889327+307067875+307348297+306756509
1792+307636945+310551851+312833123+313795782+314445965+315118116+316006614
1778+317079209+317143447+315739379+315012032+317194074+320482887+322832771
1765+323637576+323620015+324452957+325836135+327054898+328233643+328321448
1751+327279177+327276402+329082840+331205932+332598870+333247943+334118455
1738+334928222+334320440+334442747+337553958+340867187+343540155+345417360
1724+346357300+346450067+344856647+342337615+342925061+347243742+351403426
1711+353722236+354008109+353273482+353255986+353099112+352002232+352771066
1697+355835176+360459543+365245745+367606140+368335217+367741047+365355159
1684+365746203+371196820+375743435+377484525+377898124+379060548+380216117
1670+381337968+384985803+388937627+390536597+392090717+395482285+398146048
1657+397482776+393713744+393826324+399896507+402527041+404250733+410063409
1643+416064718+419147009+419359407+417651350+418940259+425394990+430624331
1630+433269718+435448986+437645586+440092545+444336183+448401436+450537552
1616+454292189+460827381+466518239+470984817+475452081+480321193+485239593
1603+490398658+496045319+501606101+506791540+512216240+518054082+523765014
1589+529453685+535535847+542070321+548965775+555690614+560730439+564168032
1576+569940721+577816559+583516132+588892099+596789023+605256909+612332707
1562+615982273+616304508+623385006+638685839+651584725+662557184+672457112
1549+681356844+688661458+694163420+697826433+702042718+713838718+727427772
1535+736519240+744805053+754548042+762718631+768978656+774946084+780812716
1522+787841641+796856074+806425019+816760253+827063433+834909632+839327771
1508+841611230+848081726+861056928+872572081+880389752+885153236+890114331
1495+896439117+900320239+901726103+904735571+911816787+920376266+926774821
1481+930345655+932470346+933187477+932830185+934039221+939549147+946808455
1468+950285217+949988180+950890257+952408537+949868387+943877457+943480277
1454+949977539+954880533+955343126+951802518+947762366+945198583+942796310
1441+940760011+938810930+934059785+927313860+921871175+917042277+914739756
1427+915978234+915354980+910697450+907099458+910992658+923482744+933691851
1414+936017026+936955791+941751460+947217647+950316226+953038777+955778692
1400+956351157+956061367+958292599+963894640+969470894+971171835+971632470
1387+975001124+979497144+981906795+981671777+980800057+982818468+986996497
1373+989204293+990202205+993457332+997094166+996344133+991900665+988014189
1360+985681964+984988074+986978870+990200442+990955567+987966271+984458500
1346+982787720+980903465+977397391+974694686+974561967+973533372+968417688
1333+962943275+961292993+962845612+965493675+966328837+965571231+967121173
1319+971076261+975409075+978610736+979477625+979452752+979930752+980878657
1306+983271987+987230405+991291186+994744707+996420253+995692938+995806726
1292+998848052+1001736682+1003309473+1007207700+1014684073+1022838341
1281+1028466430+1031969435+1036098567+1039817201+1040957886+1041378829
1269+1043112803+1044668752+1044689642+1044794943+1045539036+1046396981
1258+1047578794+1049736519+1053887325+1057172677+1056724968+1055961030
1246+1057681556+1060062874+1062277264+1066281314+1070386161+1070802338
1234+1069507586+1068934730+1068352800+1069578026+1072959605+1073741823
1223+1071481017+1069109231+1065331255+1061405935+1061283661+1063963125
1211+1065991067+1066732874+1067980688+1069250829+1069141676+1069318527
1200+1070367163+1071040685+1070669292+1068051977+1063723798+1060251671
1188+1058183450+1057686387+1060733588+1065569210+1065347249+1059358082
1177+1054700682+1053648259+1053767074+1054062674+1052923033+1050322431
1165+1049318513+1050325173+1050970688+1050133829+1048989489+1048330394
1153+1046200089+1042163462+1038840311+1036336327+1033746627+1034254265
1142+1038909510+1041743760+1040007043+1036844292+1033531846+1031118736
1130+1029083482+1025449193+1023315754+1025151634+1025567159+1020252036
1119+1014995732+1013069696+1009732901+1005902046+1006014593+1007766977
1107+1007001407+1006979798+1012598682+1018879336+1019579754+1017535295
1096+1016385210+1016298319+1016766787+1018018192+1019728860+1019227162
1084+1016087912+1014760976+1017377572+1021248642+1023615075+1023078973
1072+1021171673+1022113050+1024501288+1024846177+1027387241+1033846836
1061+1038178931+1038866489+1039432229+1039899196+1038833848+1036976228
1049+1034411074+1033246692+1033737683+1031292649+1028689501+1029711763
1038+1029596865+1027884630+1028901213+1029514740+1027575908+1028196420
1026+1028537457+1024720573+1022881036+1024010754+1025261309+1026940773
1015+1026403039+1022650262+1020622907+1021710256+1022592813+1022482616
1003+1020179768+1016540452+1016865886+1021310856+1026424386+1029810731
991+1030369029+1030651508+1032678340+1034858000+1034287624+1032617105
980+1035719340+1042997579+1049815380+1053731821+1051940398+1048083756
968+1049113917+1052346000+1053417876+1054375313+1054991516+1053993996
957+1053491320+1054715566+1056967559+1057821783+1057218441+1058984142
945+1064211982+1069536767+1069210288+1064057328+1060854296+1060226276
934+1060422190+1061021551+1060564963+1059858343+1060595450+1061030233
922+1058732020+1055006727+1052747554+1053809246+1057310228+1060303180
910+1062333733+1063710676+1063836868+1063450329+1062311863+1059995698
899+1058201207+1056822305+1055078669+1054017368+1052577296+1051674828
887+1054383147+1057369896+1057415333+1059204733+1064717401+1065920953
876+1058727973+1051848284+1051708905+1053677114+1050419441+1043658436
864+1039869166+1040063187+1041183830+1040110255+1037179714+1035639303
853+1035556916+1035000055+1033301660+1030310667+1027333840+1026427846
841+1026947040+1026087919+1024379013+1024910349+1026371834+1025690870
829+1021955980+1017025176+1015799559+1019802695+1025833251+1029303485
818+1027284747+1023487643+1022300803+1022445666+1021709473+1019291727
806+1015822212+1014864579+1015419026+1011613304+1006599134+1008524909
795+1018496322+1028704516+1027228800+1015969424+1009553177+1010864446
783+1009392190+1000625374+992003290+988208601+985707685+982793204+982415478
770+984535926+985904709+985422530+984980240+985186925+983660419+977952555
756+968895166+964429632+969594474+974538465+971074237+966270670+965521485
743+965875840+964124892+958979700+951718825+947556921+947825299+947971597
729+946149100+941797615+935137798+929515194+926249687+923892393+919313398
716+913933057+914814896+920532030+920796164+916157762+917468116+925322215
702+931760527+936984124+942669074+941767715+933507950+927108873+925104497
689+924578775+925381296+927625520+930815234+933419427+932703667+927379208
675+920261629+917267111+917086408+915235056+920380313+930211891+933133097
662+935638908+936407221+928763855+924308179+927108154+923698895+912654234
648+906310908+909314370+920508398+936344810+946204002+941249501+935146089
635+956075468+978332892+940883069+891463333+883952687+896036257+896838320
621+897379318+905625635+905751892+898956679+897402755+895836100+890627453
608+891529595+898236415+896280806+888125493+885003151
##END=
