##TITLE=Sample description
##JCAMP-DX=4.24
##DATA TYPE=INFRARED SPECTRUM
##DATE=12/9/2023
##SAMPLING PROCEDURE=Instrument type and / or accessory
##ORIGIN=Default
##XUNITS=1/CM
##YUNITS=ABSORBANCE
##RESOLUTION=4
##FIRSTX=4397.6552
##LASTX=599.8556
##DELTAX=-1.9287962
##MAXY=1.9594809
##MINY=0.32594395
##XFACTOR=1
##YFACTOR=1.8249088e-009
##NPOINTS=1970
##FIRSTY=0.34470981
##XYDATA=(X++(Y..Y))
4398+188891531+190313050+191451425+190870684+189405512+188340169+187176579
4384+185859185+185319287+185670727+186504515+187275185+187699019+188478703
4371+189888089+191259293+191883017+191248204+189858661+188737988+188496733
4357+188945766+189084219+188875543+188958651+189323890+189771486+189931904
4344+189907735+190409337+190963116+190257264+188951155+188734771+189348664
4330+190034871+190768714+190881037+190367383+190525531+190998767+190633021
4317+190320856+190562292+190208908+189093348+188517767+188904514+189172601
4303+189248670+189620197+189858236+190006030+190285337+190747647+191330136
4290+191275150+190831718+191227105+191976609+191756126+190825807+190069851
4276+189663589+189164403+188500685+188888183+190546500+191638022+191324518
4263+190439908+189782249+189739331+189972438+189535587+188501322+188215711
4249+189302530+190749656+191148325+190693200+190685655+191131259+191231661
4236+190752154+189996477+189598526+189943777+190769808+191030253+190444710
4222+190088452+190168669+190548443+191330381+191614669+191242750+191397370
4209+192100985+192397504+192087806+191199065+190114663+190074750+191124939
4195+191871128+191975450+192073174+191999179+191419547+190772029+190417992
4182+190480197+190877559+191000155+190646330+190347590+190338967+190574262
4168+191296560+192239046+192539567+192298670+192206041+192230276+192333373
4155+192485413+192142155+191465192+191205009+191608740+192490590+193243230
4141+193426593+193156840+192824997+192807474+192716838+192124044+191504680
4128+191366717+191673443+192099336+192406813+192403727+192058949+191790568
4114+191756339+191801689+191999962+192201926+192194071+192122542+192046701
4101+191892522+191823703+191990131+191929250+191513499+191641859+192298752
4087+192687165+193133928+193779617+193802138+193241385+193029639+193303197
4074+193177760+192351729+191820829+192095514+192384211+192321386+192434559
4060+192865514+193196818+193321357+193403746+193339354+193034587+192660954
4047+192524999+192852449+193687430+194680607+194874389+194022065+193251478
4033+193293170+193559478+193528498+193677860+194002746+193472663+192070838
4020+191174389+191422193+192014840+192358686+192486557+192479583+192788090
4006+193493991+193851277+193487197+192764736+192229966+191879130+191414991
3993+191195015+191569448+192420368+193175147+193164712+192920435+192762091
3979+191918945+190922012+191165603+192588363+193980144+194424784+193984292
3966+193562548+193653119+193760086+193504932+193060390+192678379+192681988
3952+192967174+192734769+192136358+191800595+191468801+191736186+192883576
3939+193635122+193110787+191292526+189643600+189936477+191048167+191189870
3925+191210855+191918243+191902957+191188939+191653977+193378156+194469629
3912+194228798+193010777+189949281+185328057+182959462+184788681+188703563
3898+192571330+193781659+191172641+188268688+188677058+188945341+187892491
3885+188279777+188197764+188153997+190624169+191368089+189038002+186049897
3871+183834649+185023388+187116955+187147347+188391986+191036230+191256876
3858+187448422+180639484+178728202+186369786+192362148+193503071+191618686
3844+188532546+185244279+182583068+183173772+186429230+188334583+189480748
3831+191057688+191757515+191220197+188262091+182868336+181911821+185344943
3817+186983564+189792112+193111196+192889488+189685668+187512243+187555112
3804+185773138+185094117+188331121+190498879+192203918+194128608+194380626
3790+193745731+192949438+192191295+192329160+192011035+190827048+191721832
3777+193938092+194097040+191827607+189807398+190262882+191415448+192311718
3763+192070838+189498859+188006399+189280940+188478540+183140440+178608350
3750+180756772+182482732+181841043+185692349+189829053+188185924+183425904
3736+180793892+183316193+188647646+192101442+191988939+190785861+190944287
3723+192297968+194805473+197636949+198707470+196694414+193298265+194390571
3709+200304791+205378918+207547835+209055712+213979727+220785121+225034214
3696+225903522+223786863+219850229+218278302+221327697+223930411+222961240
3682+219375638+214565368+208505346+204228605+206326434+208038398+207276351
3669+209807536+213448468+214769079+214819312+214055371+212067579+210961246
3655+211398145+208672444+202659030+201679930+208483430+214943476+217892975
3642+218516716+218506999+218271182+217359528+215520037+212113273+209145630
3628+212352749+217480393+218363206+216036663+214242049+216006925+218193365
3615+217916557+217188936+217096552+217712601+219792679+221524141+221270768
3601+220457638+220300111+220033199+220054756+221054580+220964156+219086810
3588+219235813+222443601+224587516+224788875+224704053+225113647+225640301
3574+225821459+225145280+222906597+220539276+221393886+224096872+225570160
3561+226359691+227157062+227383636+227091967+227052397+227266299+226707996
3547+225812983+226405009+228191115+229466980+229870319+229968451+229920569
3534+229539570+228962209+228347891+227773241+227600559+228134986+229009520
3520+229533479+229627283+229521296+229192099+228667323+228336950+228500846
3507+228434739+227772882+227882691+229111522+229805959+229520757+229412843
3493+229763809+229679918+228863555+228135378+228097213+228431571+228954109
3480+229611589+229895861+229641475+229425352+229673434+229776384+229274880
3466+228729364+228440112+228586567+229249975+229697555+229697326+229816199
3453+230070078+229983802+229783619+230074438+230283277+230002321+230239935
3439+231045896+231504025+231586365+231666027+232145828+232831953+232851321
3426+232280868+231907593+232303486+233428551+234294495+234401037+234370989
3412+234638325+235035018+235300476+235386882+235580158+236129822+236680482
3399+236815538+236796039+236978814+237379622+237949994+238612831+239185995
3385+239396973+239370027+239668441+240329726+240923434+241312974+241572831
3372+241904951+242354834+242506956+242583907+243340875+244299365+244546059
3358+244275604+244153792+244547513+245242309+245652197+245680417+245949370
3345+246700687+247354362+247750320+248240670+248943926+249724688+250196454
3331+250268081+250327231+250692356+251243800+251432895+251153295+250977330
3318+251237627+251619475+251633275+251463222+251687052+252152776+252352894
3304+252165939+251660139+251318661+251629127+252316705+253247613+254723596
3291+256418787+257603820+258265366+259209992+261091927+263128254+264047126
3277+264389796+265132997+266004951+266779523+267340113+267428381+267482452
3264+268129481+269028903+269287420+268808779+268286306+268023869+267641776
3250+267111285+266787280+266525236+266480048+267116364+267776685+267693888
3237+267492381+267682652+267576992+266979821+266524664+266288716+265911816
3223+265524268+265719112+266425356+266916556+267071192+267112542+267024992
3210+266782055+266310191+265515646+264655810+264153603+263830791+263389760
3196+263089730+262994178+262995141+263347284+263886202+263670047+262508874
3183+261437896+260986658+260753535+260292679+259707920+259358848+259006771
3169+258618635+258650023+258808057+258608053+258291757+258247125+258429410
3156+258420722+257993506+257599378+257527212+257287948+256802758+256566451
3142+256738464+257073377+257088483+256556407+255603437+254581174+254065446
3129+254010313+253897173+253765138+253699928+253343508+252617487+251643547
3115+250411057+249393727+249051759+248821134+248015353+246813190+245696045
3102+244803123+244025660+243198421+242246299+241418357+240891197+240348245
3088+239675300+239272075+239125113+238873863+238601301+238311755+237948769
3075+237622805+237077697+236565888+236672513+237029685+237102324+236865788
3061+236493347+236246816+236302145+236499422+236576324+236539122+236419368
3047+236325580+236411627+236545067+236461289+236032833+235579341+235417927
3034+235273726+234822472+234311806+234179117+234256134+234128329+233779567
3020+233315721+232885371+232809596+233129272+233328933+232945468+232166503
3007+231698918+231870000+232118670+231998066+231757954+231593061+231425196
2993+231431451+231863729+232501530+233079120+233679753+234142014+234094213
2980+233837688+233925940+234237990+234466247+234529937+234336106+233925254
2966+233514860+233246217+233130072+233034863+232842911+232640441+232426490
2953+232157374+232030908+232117249+232253546+232389827+232489413+232551029
2939+232727370+232890270+232778502+232422979+232052807+231961404+232013450
2926+231842956+231452844+230932053+230314600+229726281+229457753+229570125
2912+229689357+229694811+229751186+229855719+229871936+229697914+229475717
2899+229495020+229701197+229791621+229803853+229984406+230305618+230509705
2885+230521594+230519128+230590265+230748756+231097681+231579425+231918127
2872+232059389+232108447+232088278+232032541+231768765+231281746+231016631
2858+231071454+231130326+231010637+230649971+230171313+229862235+229785889
2845+229815774+229905986+230059708+230282592+230491235+230574506+230670988
2831+230944106+231227201+231393122+231685739+232146857+232281897+231979612
2818+231794764+231797540+231636795+231486159+231651460+231966972+232116220
2804+232172839+232402108+232784903+233198401+233568817+233794118+233868260
2791+233894062+233902130+233899174+233924879+233929321+233919212+233929533
2777+233946974+234013572+234053794+233976321+233783225+233522568+233442906
2764+233648250+233906278+234146521+234424080+234585380+234509752+234343961
2750+234308376+234438402+234665679+234945312+235154837+235237504+235310650
2737+235463752+235610729+235587066+235453381+235410644+235501982+235693559
2723+235955180+236167938+236245101+236284622+236348133+236452748+236726192
2710+237135443+237467580+237609185+237611537+237673986+237922574+238141457
2696+238086520+237973396+238123852+238395238+238534769+238653249+238907913
2683+239158412+239209527+239133524+239130290+239198912+239219293+239236490
2669+239335879+239421126+239435301+239399716+239207617+238919769+238780516
2656+238792568+238800799+238720516+238626548+238666151+238775763+238797957
2642+238706521+238540044+238396790+238347699+238381112+238497061+238545041
2629+238375853+238165218+238052862+237978524+237925530+237881992+237822842
2615+237717916+237515152+237312176+237283107+237351337+237317483+237189123
2602+237055602+236852152+236541523+236327948+236356951+236511784+236617069
2588+236550505+236407071+236367958+236302553+236094286+235923890+235810684
2575+235667234+235621753+235636973+235529581+235361733+235171707+234925764
2561+234721449+234506682+234152759+233776627+233548485+233577930+233783437
2548+233822909+233611686+233314137+233009142+232809906+232706025+232585585
2534+232504862+232520621+232536789+232392293+232060744+231735597+231629920
2521+231720131+231798846+231821334+231857474+231778580+231469812+231158432
2507+231087180+231143179+231181981+231276634+231423008+231472278+231443666
2494+231467640+231454575+231309329+231239041+231394658+231617263+231828895
2480+232115648+232369953+232447475+232410012+232326284+232220803+232139214
2467+232120646+232191326+232321009+232439947+232485755+232431014+232337405
2453+232266938+232322299+232642351+233074368+233353086+233444915+233453799
2440+233568915+233867410+234140773+234207680+234223292+234395175+234578064
2426+234565424+234481679+234622680+235022769+235333137+235353731+235269692
2413+235303203+235516386+235724278+235753379+235746684+235845730+236047106
2399+236357229+236710841+237030011+237324506+237524265+237489480+237209128
2386+236604854+235347296+233113431+229744082+225376819+220554611+215772283
2372+211063460+206300975+201549169+197126300+193564785+191269843+190490567
2359+191508338+194567875+199698850+206748260+213962628+217491971+215435884
2345+210387281+206993044+206305515+206944884+208212583+209654402+210761928
2332+211632640+213154202+215401458+217443828+218953109+220618203+223093928
2318+226103656+228842618+230934846+232671159+234384658+236137089+237976433
2305+239802452+241301281+242377877+243168062+243873652+244728018+245667270
2291+246458076+247118267+247771191+248372264+248670858+248641723+248624315
2278+248719507+248797095+248867171+249028716+249318817+249566230+249629740
2264+249686539+249954316+250338205+250593832+250738573+250945828+251194302
2251+251372765+251513113+251674233+251827841+251987181+252188818+252406753
2237+252589316+252699337+252758667+252824644+252927234+253059302+253188969
2224+253273367+253342642+253474906+253579129+253576761+253628497+253738469
2210+253766607+253837222+254049441+254279723+254452748+254534125+254534403
2197+254630706+254902239+255131148+255229950+255374658+255570448+255729299
2183+255865465+255958339+256034000+256128016+256145801+256072802+256063118
2170+256219567+256492146+256771697+256993976+257099947+257080007+257086246
2156+257220126+257434142+257657287+257775947+257781271+257865848+258116298
2143+258378457+258508173+258537128+258593339+258706871+258804627+258879423
2129+258934147+259005383+259181821+259363649+259435652+259505123+259668170
2116+259881386+260063606+260172271+260212021+260224579+260276952+260361334
2102+260414638+260484697+260618757+260716415+260716987+260743688+260894634
2089+261033022+261048601+261047948+261110561+261222558+261347178+261409644
2075+261424064+261559137+261819793+261978333+261999710+262043167+262147276
2062+262234809+262292555+262365195+262417650+262455341+262574181+262750375
2048+262883406+262937412+262870553+262716602+262649711+262727577+262874130
2035+263058195+263295825+263532884+263634527+263613281+263604413+263666062
2021+263756682+263827460+263962728+264260456+264593361+264762434+264807719
2008+264886728+265040712+265267057+265543914+265785644+265926628+265903242
1994+265665612+265568019+265984668+266610254+267103397+267388403+267497526
1981+267599675+267757105+267959330+268231647+268544252+268598960+268250101
1967+268117086+268645307+269332265+269732714+269970066+270192166+270415164
1954+270607182+270734808+270857403+270907408+270648842+270225220+270500101
1940+271651230+272599203+272889893+272919141+273110261+273588282+274095714
1927+274183378+273649310+273202678+273294784+273510857+274221690+275465089
1913+276153794+276096701+276141742+276722990+277449517+278027008+278536335
1900+278919914+279025999+279102069+279373781+279329165+279105041+279812461
1886+281128075+282007230+282496241+282963010+283464138+283893738+284156664
1873+283779062+282391364+281536803+283041953+285426389+286878300+287574092
1859+288162460+288915084+289752432+290406189+290692371+290536509+289771343
1846+288616262+288955356+291415338+293525513+294483383+295188582+295602439
1832+294811372+293709497+294294991+295842045+297641999+299847808+301453066
1819+302301127+303068710+303570263+303374652+303266248+304273927+305819610
1805+306744917+306624787+306212204+306869978+308217764+308393843+307350595
1792+308055043+311386799+314038211+315039097+315579093+316062682+316848131
1778+317982930+317921885+315934550+314495671+316670190+320713939+323935919
1765+325062682+324684329+325208190+326714842+328119982+329341367+329063285
1751+327241349+326805054+328922872+331458858+332837738+333207239+334080222
1738+335050242+334007288+333614433+337438270+341828298+345094992+347078538
1724+347861766+347768876+345624667+342001242+342104290+347187367+352277596
1711+355125208+355432097+354309057+353832000+353004614+350757618+350945750
1697+354613627+360337919+366098302+368696345+369112586+367946400+364584497
1684+364418771+370672607+376277488+378559366+378907507+379766150+380462204
1670+381061939+385058132+389952914+391975425+393486127+396920441+399610525
1657+398470010+393547074+393020469+399768967+402523394+404060062+410648812
1643+417527303+420685233+420445333+418033331+419188771+426917316+433412816
1630+436215256+437776290+439552989+442160341+446935124+451298108+453268949
1616+457159644+464518393+470850422+475326187+479466026+484279350+489436863
1603+494670445+500250078+505929753+511308745+516784645+522637493+528451669
1589+534166783+540070551+546479530+553545597+560688648+566111603+569627832
1576+575668942+584338602+590309163+595267145+603106218+611801876+618824732
1562+622174060+621568707+627726551+643765476+657727770+669112010+679007202
1549+688107539+695436370+700038601+702272793+705928226+719336120+734770477
1535+744211018+752321313+762549525+770980296+776555977+781590911+786617679
1522+793533600+803762334+813812277+823293319+832701002+840068962+843821205
1508+844722080+852560434+869290285+880738868+886141050+889736321+894715011
1495+901047398+904883059+905400290+907864028+916566415+926751904+933690754
1481+937228997+938887233+939495524+938445908+937483889+941636957+948586324
1468+951901814+951626999+952527809+955104099+954692953+949955895+947760962
1454+951324421+955629953+957362526+955113440+952245873+949556181+944564622
1441+938165670+930326075+921015005+917277917+919583312+919910517+917277917
1427+916637029+918124574+918765397+918809164+920658339+924745952+930245270
1414+937103315+943729397+946913979+947855224+951251454+957132195+961573339
1400+962601464+962596826+964671433+968013837+971929780+975707303+977953318
1387+978544169+978445008+978871831+981584713+987244987+992483861+993854085
1373+991951801+990285858+991721144+994373863+992744109+988646632+990297159
1360+994286722+993524267+991793523+991035118+989000685+986318766+983934527
1346+981486270+978521436+975269309+972857177+972584843+973077839+971529935
1333+969497658+970096347+971503871+970474113+967949558+966709459+968588813
1319+973203325+977027359+977367824+977238745+979513372+981126273+982123631
1306+986294205+991604999+995235806+997774339+998975376+998759482+998758959
1292+1000503813+1003514635+1006853577+1011000177+1015954697+1020895761
1281+1025852568+1029755381+1030601581+1030619675+1033247049+1038775958
1269+1046914865+1054314114+1055258168+1051102423+1047808685+1047478998
1258+1049604687+1052598199+1054722582+1056637276+1059349440+1063007551
1246+1067021219+1069241823+1069970571+1071947323+1073741823+1072694950
1234+1071320022+1072069021+1073206955+1072278578+1068873464+1065626302
1223+1065282832+1066606088+1065990937+1063024927+1061548161+1063853816
1211+1067916933+1070820298+1071267894+1069654144+1067711295+1066253930
1200+1065353120+1065269898+1065012066+1064628095+1064235632+1062145609
1188+1060080605+1061606625+1065522307+1067986372+1067397612+1063830169
1177+1059803568+1058521139+1057097611+1053355950+1051634613+1052779536
1165+1053499792+1052806384+1050874117+1048830931+1048047638+1047306283
1153+1046010527+1045744008+1045811944+1043968648+1040691829+1038709655
1142+1039243478+1040213139+1039313439+1037634170+1037015753+1036021988
1130+1033316814+1030391827+1028319376+1028059585+1030325916+1032263997
1119+1030046658+1024218764+1018843430+1016589576+1016925730+1017032142
1107+1013987940+1009436661+1007824217+1010174424+1013769106+1015355224
1096+1015059832+1014211542+1011825930+1009584488+1011567511+1017707325
1084+1023126360+1025188294+1026827781+1027602778+1025315479+1025796716
1072+1033673741+1040457906+1036082804+1028138953+1027990734+1032416265
1061+1033862722+1035621229+1042881927+1048668015+1046180891+1041461077
1049+1041017466+1044068527+1044601305+1041579378+1041082006+1041249103
1038+1038871069+1040810064+1047507675+1049779558+1045042630+1038508655
1026+1032999800+1026142734+1019618623+1017709807+1018022249+1019700081
1015+1024065842+1028830140+1033372927+1035402069+1033263772+1033273831
1003+1036702135+1037127521+1034745503+1033726000+1034632885+1037292006
991+1040601748+1040791382+1036501462+1033642060+1037202774+1042099287
980+1041249495+1039319710+1043335468+1046953667+1042842080+1038423669
968+1041404050+1048678728+1054855580+1058071714+1058514933+1058270231
957+1057509736+1055911011+1054791563+1053924133+1055652787+1060480776
945+1063110893+1062682306+1061064571+1058301652+1056941357+1058887015
934+1061079008+1061202731+1061898425+1063931355+1064726145+1065219794
922+1066499154+1067017560+1068144847+1069613971+1068554621+1066910691
910+1065522242+1062566684+1060167812+1061441357+1065354491+1066876462
899+1065491083+1067564905+1073406126+1073433366+1064176514+1055844642
887+1055408673+1058417928+1058726385+1056246120+1055923161+1059693759
876+1061533006+1059198935+1058437198+1058447258+1054622310+1050833225
864+1050444747+1049065638+1044326424+1040730761+1040875126+1041047907
853+1040444253+1042674003+1044372412+1039679512+1033044220+1030626338
841+1029449145+1027786794+1030212841+1033731291+1031431123+1026388743
829+1024035727+1024614689+1024840185+1022230384+1020673857+1024009271
818+1027336520+1024560079+1018729506+1016579189+1019305658+1021236423
806+1018111350+1013948027+1012993064+1014357213+1015835155+1017376592
795+1019517045+1019758023+1016623740+1011099926+1005308874+1003060049
783+1003379742+1002365008+1001005954+1001252942+1001688062+1001095709
772+1000801361+1000164327+997358556+995274477+995732068+994078209+986303742
758+974756194+964196075+957102865+954561653+956770238+960690493+963817852
745+965592101+962820625+957253762+955988382+957138858+952762908+943647285
731+938954058+941587115+942686900+937728852+934224969+933447882+929228707
718+921741728+915105391+914728997+921355340+926603097+927728293+928461614
704+929427617+932006063+937968589+944319071+947137254+945900943+939252129
691+929316698+923701039+925654863+931836679+934289182+929187423+923602989
677+923318048+926254793+927374959+922627644+915659856+919043218+927332303
664+929518678+928467559+924409341+921081112+924030400+928613034+929864696
650+927546890+924818461+931012494+948916272+960562132+946434178+919237359
637+900626323+894284399+897730732+913208921+925842341+912326924+894360435
623+894622644+901066865+909607314+919902286+918074079+914963639+923504481
609+928979106+920996388+914112475+919558815+921891907+912610689
##END=
