##TITLE=Sample description
##JCAMP-DX=4.24
##DATA TYPE=INFRARED SPECTRUM
##DATE=12/9/2023
##SAMPLING PROCEDURE=Instrument type and / or accessory
##ORIGIN=Default
##XUNITS=1/CM
##YUNITS=ABSORBANCE
##RESOLUTION=4
##FIRSTX=4397.6552
##LASTX=599.8556
##DELTAX=-1.9287962
##MAXY=1.7423936
##MINY=0.10713791
##XFACTOR=1
##YFACTOR=1.6227305e-009
##NPOINTS=1970
##FIRSTY=0.14071362
##XYDATA=(X++(Y..Y))
4398+86714101+85961647+84927722+84606609+85147429+86210986+87238933+87080328
4382+86105201+85905788+86486359+87367721+88294520+88340406+87595656+87681644
4367+89120106+90419836+90384767+89412100+88490572+87828825+87170393+87312294
4351+88502960+89187967+88711914+88223133+88589921+89129004+88753695+87660193
4336+87039630+87762076+89041437+89156626+88080947+87254094+87329273+87833986
4321+88260268+88796147+89432063+89456636+88654678+87630936+87320605+87935492
4305+88498873+88667607+89023953+89554571+89617528+88816111+87919689+88044767
4290+88857837+89539594+90220312+91135577+91756204+91648564+91215780+90534914
4274+89450043+88703052+88817800+89505461+90368715+90895861+90690167+90208871
4259+90206208+90370946+90155574+89923635+89925711+90060954+90458972+90594060
4243+89827960+89082135+89273936+90008833+90854291+91455083+91410638+91047515
4228+90957165+91240610+91729482+91897876+91584495+91581199+91990411+92013312
4212+91520804+91237763+91434522+91514266+91237534+90747238+90245207+90387163
4197+91377773+92223680+92473709+93038973+93864568+93787130+92756437+91950484
4182+92157583+92682764+92679366+92538512+92583351+92281009+91637599+91448370
4166+91937959+92353911+92123414+91964359+92328410+92328796+91823257+91738041
4151+92228814+92532892+92329944+91944947+91647287+91652806+91981191+92375536
4135+92603168+92559816+92301495+91990769+91797673+91929593+92364654+92793802
4120+93169442+93276182+92751497+92065875+91926012+92178970+92034396+91517278
4104+91505873+92175636+92916208+93264740+93474714+93562841+93105823+92579917
4089+92333185+91972210+91717949+92074056+92878963+93414052+93191223+92659963
4074+92254571+91633917+91111142+91569629+92560348+92933527+92746042+92828641
4058+93189469+93371655+93354355+93050506+92392028+91782770+91707774+92295664
4043+92998412+93009120+92384755+91993083+92222487+92641607+92870120+92885354
4027+92787732+92925308+93361931+93472455+93127807+92821194+92755060+92843940
4012+92747548+92533305+92858384+93536661+93778406+93713539+93587138+92914610
3996+91923854+91533017+91902311+92657576+93559489+94300529+94510337+94301530
3981+93821418+92928201+92062881+91808280+92076334+92457327+92552552+92458071
3966+92445178+92408722+92519623+92776199+92851947+92781056+92418162+91537470
3950+90665162+90885990+91285413+90592894+91014493+93200066+94421540+93526954
3935+91103851+89433533+90540286+91933973+90829920+89442642+89985702+89844691
3919+88399415+89219005+92640165+94895068+94648621+92641882+87910543+80975880
3904+76833413+78170544+83036916+88948994+91322640+88015465+84789044+86673890
3888+87088657+84495002+84453487+84119096+84335461+88404925+88560545+83864550
3873+79593506+77572975+80367742+82958412+81947068+84009509+88912144+89502008
3858+82612002+69880582+66023231+79978998+91193998+93242757+89320052+83367890
3842+77911810+73901951+75227314+81357084+85051313+86343328+88232206+89303771
3827+88744430+85146198+77613498+75565750+80242470+83244410+88814439+95086363
3811+94903773+88769233+83984771+83787543+81004686+79748208+85425024+89519061
3796+92352423+96092317+97752029+97499907+96285890+94808364+94619355+93745256
3780+91861209+93798112+98042829+98759187+95035959+91336193+92131605+95014389
3765+97649761+97846906+93792336+91320096+93065713+91532053+83814954+79337683
3750+86417406+91944460+93515549+104186250+116923964+120175656+117054047
3736+115402489+121899896+135128806+146163346+149035505+147060686+145889873
3723+146114512+147009850+147614095+146247552+142587658+141138249+151212767
3709+170522351+188110992+199459923+206905129+215630579+223639497+226255007
3696+224080197+217309777+205714197+196885331+198427926+201511923+198156906
3682+189398876+177655215+163461297+152654627+153709847+155704703+154777500
3669+160264150+167219750+169087947+168339625+166835377+163299919+160082791
3655+159604387+154997832+144702413+142275958+153897993+165893299+172096774
3642+175147474+177847961+179942643+180949901+180695520+177028197+172521330
3628+177531156+186099433+186782374+179399482+169808171+166080572+165593720
3615+162823517+161627939+164214523+168994485+175782003+181202629+182541293
3601+182272734+182434167+182054441+181831337+182461440+180486502+174299702
3588+170832766+174442990+178061975+178188018+176907407+175778551+175089329
3574+174746389+173280121+168634062+163394924+164373109+169737298+172886345
3561+173786936+174524588+174510649+172994684+171724119+171823568+171260407
3547+169791182+170081744+172400926+174495203+174928079+174217388+173909324
3534+174124477+173450590+171798058+170606704+170116950+170145270+171277763
3520+172899826+173750444+173691858+172994298+171882338+171248488+171584045
3507+171447772+170309550+170276639+171553760+172041879+171846305+172145259
3493+172572203+172251999+171356220+170804538+170715998+170668394+170897008
3480+171372602+171465918+171281491+171450784+171930052+172138005+171866966
3466+171294953+170712104+170726815+171443842+171937894+171688343+171261105
3453+171112969+170708853+169905692+169749511+170342296+170857541+171477819
3439+172437969+173098008+173130295+173146236+173642840+174140803+174050721
3426+173486880+172849981+172625463+173137365+173916505+174328775+174527288
3412+174978235+175625639+176026247+176122060+176413374+177027830+177367390
3399+177374167+177573617+177874242+178161939+178623905+179136488+179675663
3385+180309146+180830452+181109314+181407662+181911300+182255397+182352771
3372+182565536+182683039+182652074+183213766+184418013+185423269+185813482
3358+185966760+186537708+187585077+188555916+189128296+189265248+189370979
3345+190258383+191657690+192623332+193263151+193915513+194461888+194727142
3331+194713294+195010485+195870047+196607057+196787480+196763862+197095782
3318+197794389+198243371+198273913+198425447+198752262+199102089+199810686
3304+200764501+201348800+201524173+202013872+203048953+203852391+204045192
3291+204180877+204989089+206409315+207556426+208322361+209053402+209447508
3277+209763817+210272910+210557723+211032307+211925992+212266930+211777011
3264+211437506+211644485+211618480+211208377+211090820+211350196+211446138
3250+210951499+210166849+209543743+209239004+209399445+209563045+209121464
3237+208505153+208427412+208676779+208966000+209453789+209574138+208950885
3223+208132939+207330383+206748949+206569517+206428433+206251867+206221417
3210+206181600+205780093+204957500+204035991+203150625+202316279+201644320
3196+201013372+200370560+199823046+199368444+199048737+198566899+197563773
3183+196337267+195133130+194084990+193650388+193686440+193363427+192454314
3169+191474898+190887017+190813023+190804097+190415629+189956711+189596232
3156+189129215+188701004+188552463+188616669+188459111+187803315+187185039
3142+187239841+187646565+187542616+186580739+185251166+184402659+184154982
3129+183867543+183301755+182672203+182197656+181867774+181233906+180074416
3115+178772850+177767134+177138904+176469444+175374949+173970463+172343001
3102+170684666+169438178+168394832+167203312+166293612+165929956+165701709
3088+165242809+164518160+163808626+163412757+163182398+162831579+162292073
3075+161724247+161471538+161460830+161279397+161027606+161049240+161219544
3061+161149681+160835943+160659652+160714914+160733059+160643619+160581727
3047+160519872+160460827+160504702+160376474+159793019+159083779+158477404
3034+157736593+157026195+156701676+156560702+156326891+155892454+155315078
3020+154999099+155098126+155327420+155337998+154862220+154066129+153343702
3007+152757722+152245067+151903569+151651584+151177037+150577714+150243847
2993+150289522+150686356+151367313+152062660+152426968+152457391+152406132
2980+152398327+152511202+152753691+152993380+152962498+152457225+151828141
2966+151481721+151221913+150836255+150382764+149937381+149663221+149646673
2953+149747252+149770227+149625323+149426691+149322016+149373164+149551200
2939+149629961+149499749+149343642+149210372+148980280+148623658+148172784
2926+147719843+147303763+146774183+146005154+145163443+144669162+144644020
2912+144710879+144782330+145148457+145652591+145995797+146289682+146486910
2899+146444311+146409269+146533962+146770905+147163928+147522010+147511688
2885+147225057+147039161+147080502+147113781+146903550+146532723+146223805
2872+146077064+146002023+145810231+145497512+145218135+145016160+144814277
2858+144518978+144105377+143592115+142933435+142149979+141510059+141339646
2845+141668673+142189594+142530972+142610431+142656152+142708025+142654490
2831+142625546+142681349+142748154+142835409+142935115+142986961+142940101
2818+142962553+143140267+143156879+142952783+142871699+143008816+143131856
2804+143116062+143171480+143521013+143989462+144302154+144463165+144544846
2791+144594341+144599933+144424193+144095808+143907736+143987442+144118086
2777+144179509+144187957+144104284+144027057+143987002+143889793+143832446
2764+143881629+143940619+144028342+144206360+144342962+144319629+144291071
2750+144441705+144671081+144746380+144638372+144608666+144815838+145032809
2737+145081000+144993727+144862377+144884360+145027648+145026307+144953093
2723+145069090+145298117+145467944+145613031+145727816+145784134+145822637
2710+145823409+145798790+145835539+145949617+146079048+146209452+146337084
2696+146418810+146486937+146550757+146501749+146389122+146404834+146517801
2683+146643614+146767563+146738830+146570592+146456331+146364366+146174852
2669+145981793+145928753+145899506+145770268+145618945+145447677+145221919
2656+145009742+144863203+144828887+144937574+145021532+144908704+144705921
2642+144491824+144195395+143862208+143607863+143488148+143449626+143312876
2629+142995051+142636363+142375379+142234369+142179741+142145388+142056168
2615+141831006+141540601+141368268+141282740+141179902+141068414+140918313
2602+140715346+140472351+140225950+140173103+140333857+140398054+140276106
2588+140090991+139880127+139709823+139584240+139482495+139422320+139307104
2575+139148361+139047470+138913053+138659241+138448294+138423593+138337449
2561+137970331+137582194+137384700+137218565+137009308+136896875+136857480
2548+136764073+136649353+136577810+136528306+136455358+136391648+136294255
2534+136086706+135943427+135889727+135731636+135529918+135416731+135353875
2521+135305473+135334619+135416869+135425382+135344564+135220826+135101533
2507+135009402+134929025+134916711+135051275+135295528+135496778+135576135
2494+135603086+135651232+135833693+136253089+136744688+137068905+137208363
2480+137230016+137219447+137266913+137345839+137369374+137302037+137183910
2467+137118244+137206527+137394884+137540936+137658604+137777888+137816547
2453+137790147+137889119+138228147+138605632+138803631+138908636+139033393
2440+139193247+139441365+139685544+139785682+139834342+139923598+140047621
2426+140205316+140363526+140527981+140718156+140899892+141059149+141250747
2413+141511171+141752402+141918720+142118427+142404847+142685399+142944748
2399+143230562+143561022+144188802+145893978+150207327+159567031+176853835
2386+203941849+240275536+283300267+330704499+381924081+437436387+497192199
2372+559841501+622765625+681170467+730474302+766806777+786003174+790827141
2359+782504612+751991443+701081798+640233604+583482799+553090255+561407751
2345+601612673+637400242+640670998+627648655+616626686+611006904+609246236
2332+609891932+608610789+601418806+587945222+569683337+548319879+524933457
2318+499104859+473454260+455745105+447604028+438487300+418132037+387853065
2305+357335267+334607030+318635438+304186698+289392355+273834925+256951557
2291+240092395+224992854+211657819+200030999+191272822+186005677+183286126
2278+181628563+180134379+178629782+177190457+175908028+174840659+173889453
2264+172858264+171678756+170378586+168991106+167623443+166378039+165251221
2251+164154835+163017530+161906250+160981343+160251019+159562348+158912740
2237+158414116+158048789+157735564+157468786+157246674+157065185+156986967
2224+156970566+156932917+156923642+156935065+156909684+156890511+156927444
2210+157010144+157128014+157261311+157327262+157297160+157284598+157402193
2197+157651248+157904197+157995639+157964583+158048789+158265612+158346365
2183+158307596+158428441+158672574+158846331+158944494+159030133+159117645
2170+159220988+159370263+159538822+159702238+159838180+159864498+159843488
2156+159983966+160271643+160475960+160535042+160568669+160647972+160742389
2143+160854731+161048855+161272547+161477194+161678095+161803274+161835892
2129+161853982+161930768+162111375+162359438+162597621+162783774+162924362
2116+163049119+163186457+163395714+163741445+164142163+164462990+164766444
2102+165152120+165546337+165930140+166463126+167210438+168106420+169196763
2089+170607384+172373469+174452797+176871263+179675535+182709044+185645235
2075+188300598+190693500+192734113+194247819+195240862+195948119+196670069
2062+197433230+198121093+198778470+199481117+200240367+201073648+202045846
2048+203058246+203878249+204482219+205053038+205798587+206646671+207309043
2035+207685922+207844178+207893930+207866400+207669705+207249722+206634311
2021+205745382+204448977+203110717+202259713+201625147+200675152+199466920
2008+198336944+197398758+196535706+195736016+195135224+194710778+194102732
1994+192971543+192004707+192184818+193065519+193861904+194444404+194892284
1981+195363893+195894896+196494219+197208822+198058522+198770297+198941225
1967+199298986+200778275+202653801+204135918+205516547+206984781+208486825
1954+210078676+211731336+213298431+214524423+215058052+215186996+216619839
1940+219877188+222912350+224732963+225914951+226896277+227896079+228874429
1927+229211345+228546696+228034279+228095528+227864655+228437072+230174159
1913+230914786+230090559+229140730+228955256+228965210+228531067+227691027
1900+226446395+224626076+222687299+221190104+219211400+216812879+216091095
1886+216600573+216537341+216022922+215531681+215115389+214771200+214355349
1873+212798796+209247544+206725422+209125486+213755733+216748232+218161148
1859+219210574+220437741+221819178+223128788+224020325+223962308+222422303
1846+219988832+220579321+225382258+229145780+230061725+230154269+229519317
1832+226239801+222013982+220924813+221576110+222443643+224337241+225482314
1819+224972744+224071234+222904490+220660643+218583519+218675641+219826701
1805+219689896+217516995+214894011+214482347+215609936+214696397+211276348
1792+210805676+215653665+219694065+220355977+219863193+219458453+219821816
1778+220999800+220074360+215418163+211438479+213826459+219642972+224390299
1765+225823233+224434505+224356304+225833665+226994790+228075822+226552217
1751+222092017+220405601+223570700+227304965+228925614+228918653+229719373
1738+230464095+227180851+224478307+229813239+237049354+242528547+245705657
1724+246511060+245520312+240569624+232566197+231259544+239484790+248084564
1711+252519254+252040483+248708607+246752585+244628573+239736195+238637403
1697+243674814+252616279+262554075+267032108+266856166+263576099+256304263
1684+254868739+265839799+275647493+278654648+278078962+279314779+280828669
1670+282005919+289332300+298419202+302003035+304698582+311430416+316904816
1657+314975626+305829844+305329916+319473788+326387018+330566905+344156560
1643+358964658+367104449+368623206+365650633+369020710+384429031+397408068
1630+403389394+407018278+410212780+413132276+418430735+422320776+420461853
1616+419641722+424640381+428181000+427958152+427152566+427769281+429031581
1603+430598125+433264214+436672748+439851933+443380798+448066656+453418154
1589+459070553+465063265+471575576+478976595+486483399+490983801+491987588
1576+497418168+508437492+515279905+520146075+530237278+542158461+551110045
1562+553281550+547028745+551245657+575560677+597305109+613269759+626509550
1549+638895858+647475725+650024200+649551471+653178225+672539471+695044237
1535+707350912+717442703+731666814+743008269+749414464+754708808+758882561
1522+764934300+777663603+792040442+805946094+819861517+829178209+830095237
1508+826386206+836781763+863211391+880471179+886057609+887775301+893305533
1495+902846357+908428233+907615815+908847702+918949483+930364328+937158917
1481+941395039+944620468+944969707+942050688+940229782+945688314+955116595
1468+959253984+957001634+956140804+957787899+953603715+942537522+940496670
1454+951844737+960407119+959490973+953609445+951392871+952230928+951219133
1441+947145877+939018097+929261000+925592373+925592079+922586375+919008620
1427+917385033+914691470+912306300+912810545+914621019+919184856+927802335
1414+936576509+942195115+945001149+947142424+949525243+952623877+955354686
1400+955934302+955942897+957245969+961658621+969355692+974128088+973109388
1387+971062585+973285844+978837380+983508692+985484163+985284419+984551634
1373+986514910+990685577+993412419+993960300+991808961+987810048+988375486
1360+994546014+998819308+997282920+992265087+988360867+988148856+989480137
1346+987673996+982598275+976983415+971638602+968656479+968755433+969218097
1333+969122744+968311721+966439465+965679719+967882261+970054758+969071026
1319+968013024+970536964+974719385+977630764+979113010+980416963+982891756
1306+986238619+989252037+991995114+994150053+994917732+994923536+995139515
1292+996273109+999221807+1003855066+1009280760+1015415585+1021702330+1027345620
1279+1032865420+1038670473+1044551560+1049251302+1051345855+1051476838
1267+1051120473+1051551622+1052212414+1051918052+1052929993+1056521044
1256+1060306328+1062906375+1065020689+1067146170+1068697397+1069431651
1244+1069604728+1069222210+1069904013+1072398053+1073726910+1072983987
1233+1072093259+1070941225+1069790661+1070439038+1072539174+1073741823
1221+1072941673+1070516246+1066545396+1062237061+1060246971+1060556761
1209+1061398858+1062606723+1063566432+1063898040+1063649224+1061123962
1198+1057115426+1055162875+1055905210+1056773019+1054986713+1050674998
1186+1047196492+1045961740+1045382637+1045008788+1044544581+1043632916
1175+1043065494+1041728115+1039076278+1037452030+1036715057+1034716152
1163+1031621485+1028563255+1026699006+1026358876+1025377128+1022542884
1151+1020120837+1019575821+1018684358+1015956855+1013676589+1013463402
1140+1013962504+1013325807+1011059647+1008678297+1007767293+1007481966
1128+1006227893+1003796883+1001282935+999626804+998885718+999321348+999409650
1115+996875352+993963459+994425242+997548853+999640909+999759183+998811521
1101+996983488+995912924+997347347+1000554264+1003092088+1005195823+1009483957
1088+1014907374+1018332033+1019390476+1020042600+1020783172+1020799186
1076+1020542216+1021167966+1024346233+1028676020+1029785519+1027789993
1065+1026928869+1030791142+1037560974+1040868388+1039543204+1037346391
1053+1037628486+1039954004+1038929721+1035280709+1034386380+1035029395
1042+1035082434+1036263265+1039502653+1040850095+1036941909+1033675340
1030+1036766848+1041801210+1041241135+1034720560+1028574348+1026408537
1018+1025526256+1024175728+1023689261+1023587516+1023706378+1026072594
1007+1030174574+1031962717+1030496779+1029587391+1030576045+1031316617
995+1031201943+1031866187+1033224062+1034848017+1038083731+1040596651
984+1039749926+1038534642+1039353965+1041543799+1045032223+1050319809
972+1054663479+1054740762+1053492052+1054363387+1055148477+1055036961
961+1055852318+1055708919+1054270898+1055433216+1060537514+1066965967
949+1067925603+1060961390+1055266898+1055261094+1054239015+1051166313
937+1051250501+1052679487+1052578329+1053190637+1054345976+1055171250
926+1056957997+1058163437+1057507273+1057700699+1058078001+1055155456
914+1051447233+1050267651+1050451012+1049948678+1047272451+1045036116
903+1047675171+1052054103+1051967124+1049305296+1047011808+1043490179
891+1041469822+1044357987+1048127845+1047559174+1041584129+1033326321
880+1028756240+1028993156+1027950801+1023097156+1019347501+1019811488
868+1021428757+1021172080+1020419314+1019884729+1018452585+1016404386
856+1014866529+1014537345+1013977343+1011659465+1008777691+1007322553
845+1009032679+1013427259+1016572394+1015768204+1012891352+1010724071
833+1009757089+1009566381+1009265994+1007165785+1002698698+999704968+1003024649
820+1008636424+1008291445+1003122354+998955213+998426726+1001060638+1003616093
806+1003750382+1002032469+999756391+997809570+996053604+994219695+993567278
793+994588549+994012017+988622466+981275956+978585258+981664497+983453595
779+979001935+972238053+969367299+970517790+970006567+966001263+962706558
766+961625783+959365352+955647212+953937821+954267078+957069146+960822915
752+956788594+946522918+939766970+936135001+933198718+931962350+930111985
739+925448754+919976852+916288904+914770295+913167497+908671466+902431370
725+898558445+897920866+896295222+890252005+883584652+881393717+883521622
712+887701545+891427473+893338591+895239718+898725351+902215685+903992808
698+905556156+907952051+909202230+909126050+909252184+910248405+912195593
685+914105315+916245856+917607991+915442767+912270230+911797207+915542749
671+921973700+924893307+923286396+922578000+920154336+916086002+913869795
658+913273356+913444450+915402877+917899783+915946718+909419384+906444461
644+908751319+907589442+901678309+898028856+897317081+900158524+903865645
631+897179560+884680781+880464053+881437941+878764506+873118866+866969054
617+861221816+856468887+855450040+863225643+873696719+873998795+870025374
604+873975802+880255788+877662280
##END=
