##TITLE=Sample description
##JCAMP-DX=4.24
##DATA TYPE=INFRARED SPECTRUM
##DATE=12/9/2023
##SAMPLING PROCEDURE=Instrument type and / or accessory
##ORIGIN=Default
##XUNITS=1/CM
##YUNITS=ABSORBANCE
##RESOLUTION=4
##FIRSTX=4397.6552
##LASTX=599.8556
##DELTAX=-1.9287962
##MAXY=1.7574338
##MINY=0.16969645
##XFACTOR=1
##YFACTOR=1.6367377e-009
##NPOINTS=1970
##FIRSTY=0.17406856
##XYDATA=(X++(Y..Y))
4398+106350914+105243618+104413343+103868376+103679683+104241638+104999015
4384+105365004+105397260+105069309+104970565+105669111+106734737+107710132
4371+108306729+108279280+108182557+108899111+109737397+109431660+108533596
4357+107907556+107738382+108095030+108265032+108112164+108609835+109604458
4344+109974015+109513607+108902880+108505911+108419130+108764870+109136221
4330+108895561+108061781+107448806+107655434+108075346+108005909+108159023
4317+109061876+109545608+109231232+109140827+109275068+109311185+109429703
4303+109327955+108961156+108769968+108508551+107964257+107937036+108785846
4290+109667331+109760740+109328501+109627928+110869138+111575796+111046287
4276+110118753+109718816+110061115+110821232+111314724+110945431+110275318
4263+110193635+110643200+111231057+111427416+111041435+110490950+110140840
4249+110391214+110897197+110725210+110146230+109990412+110263938+110497524
4236+110492216+110472651+110570375+110527604+110153558+109932463+110410925
4222+111010408+111178926+111435291+111807579+111723539+111455002+111889417
4209+112655843+112579587+112262197+112352474+112334520+112533365+113094583
4195+113384151+113348126+113584461+114073938+113826824+112801064+112002718
4182+111914572+112312261+112636324+112316703+111555667+111346871+111950570
4168+113161362+114558700+114896183+114285529+113898410+113466489+112734585
4155+112384329+112517970+112804014+113278187+113892765+114197318+114141118
4141+114262705+114548840+114335310+113437428+112639301+112566386+112721357
4128+112693635+112762836+113242927+113899156+113898674+113265997+112746557
4114+112376163+112245399+112646120+113042726+113216579+113675985+114000823
4101+113802169+113748236+114089015+114420890+114705432+115279633+115651266
4087+115166104+114658035+114857390+115196075+115295629+115377485+115551147
4074+115736535+115616424+115203986+115182746+115613046+115925238+115986400
4060+116090661+116400913+116543266+116140315+115469164+115293553+115574881
4047+115504825+115428422+116039249+116862595+117277346+117119224+116517037
4033+116176358+116556658+116917457+116816901+116754866+116817393+116780257
4020+116860383+117267477+117495910+117126507+116545378+116163540+116296233
4006+116929921+117205659+116740572+116316463+116478344+116971818+117082170
3993+116479619+115966735+116041744+116474002+117247793+117768981+117227573
3979+116287803+116245541+116933827+117392277+117660140+117736816+117425807
3966+117319990+117662707+118161826+118271932+117596702+116878855+116778810
3952+116970644+117245554+117561105+117241448+116686311+117453411+118612838
3939+118546423+117633729+116514679+116313595+117692970+118697125+117866623
3925+116875569+117022947+116923257+116811111+118283886+120135941+120307591
3912+119184718+117851009+115812410+113352605+112964903+114988718+117616759
3898+119565364+119037266+116303562+115286597+117071946+116982761+115967936
3885+116816583+116206156+115929671+117997086+117491112+115432556+114751444
3871+115097613+117003109+117500890+116429136+117813236+119918815+118900203
3858+114186548+108424310+111134298+121198672+124863607+123061097+119719880
3844+116960811+114965229+113521014+115140202+118782140+119935394+119925079
3831+120773216+121181493+120768272+118801441+116005691+117545955+120145391
3817+120118625+122342658+124404274+122577237+119101378+118311717+119590254
3804+118466771+119018275+122594535+123568291+124099120+125479960+125434385
3790+124524795+123907722+124035736+124816793+124704520+124292074+125805590
3777+127465892+126864707+124822738+124393130+126546597+128170620+128589494
3763+127703484+125509986+125218388+126689706+125843427+122544152+122425634
3750+127375169+128621623+127733073+132414144+136168345+134098709+130708575
3736+130704405+134968122+140818480+144331666+144422662+144369712+146612255
3723+149989370+153950454+158047410+160648930+160858072+161453813+167287883
3709+175461273+181147674+184864857+189791677+198302669+207266758+214265672
3696+219594096+222568414+224582423+230761196+240829549+247231612+249061607
3682+249697698+250467857+250668896+254101064+262626513+267615296+270925031
3669+277654006+283146233+286629876+290756984+295299753+298792027+302432007
3655+307090600+309369814+309954376+315436624+325569944+333255988+337707242
3642+341403577+345711203+350023818+353538762+356053192+357490196+360675204
3628+369001052+376055302+378701087+380150983+383920042+390053822+393918657
3615+395552020+398271076+402071526+406757195+412588971+416864441+418542706
3601+419853090+422306922+425482899+429250538+433246109+435428345+435320005
3588+436202929+439630873+442812312+444947862+447016478+448895982+450203598
3574+451622831+453036346+452914897+452076074+454135658+457842263+459633602
3561+460153087+461322683+463241627+464905908+465851978+466163014+465780019
3547+465532276+467039091+469173184+469268523+467975875+467632574+468441317
3534+469433892+470329052+470766052+470348680+469292522+468135453+468084579
3520+469410476+470420239+470560917+470396168+469310585+467743063+467146702
3507+466775106+465754964+464833293+464549643+464687298+464257362+462712309
3493+461252217+460817474+461245225+461807608+461548503+460948756+460702433
3480+459958658+458774604+458056575+457596814+456912726+455564651+453732015
3466+452780592+452801786+452446031+451616130+451116456+450849995+449981019
3453+448256468+446350926+445055437+444199207+442717337+440949887+440171042
3439+439917910+439166305+438371291+437913132+437079771+435882207+434851978
3426+433799534+433018541+433541922+434984170+435402963+434342799+433119488
3412+432511438+432107321+431326947+430625852+430705495+430977856+430565109
3399+429978727+429539941+428853049+428684585+429110260+428959896+428120635
3385+427346234+427391026+427870198+427515936+426332865+425772266+426477185
3372+427095249+426708176+426428386+426947944+427279919+427083669+427122890
3358+427262621+427099619+426918301+426738985+426605809+426644811+426606318
3345+426674126+426681082+426064619+425490728+425653620+425982645+425498011
3331+424628890+424036936+422662896+420997777+420388452+420111175+419584808
3318+418392087+416607048+415563126+415441821+415554932+415276599+413932311
3304+412025203+410655315+410306552+411081099+412427535+413240248+413428049
3291+413789448+414082822+413985662+414319676+415304967+416120447+416272524
3277+416253805+416508067+416614477+416305371+416077039+416680974+417614772
3264+417622456+416721251+415173940+413443271+412661112+412756852+412540427
3250+411630045+410925491+410869846+410560595+409469513+408023150+406754791
3237+406004825+405685487+405592806+405628968+405452638+404874486+403986500
3223+402855506+402037222+402153537+402772621+403011442+402343414+400967662
3210+400189364+400756263+401366535+400754515+399600469+398825157+398378396
3196+398310260+398565469+398638921+398156545+397086294+396093610+395898453
3183+396320450+396714261+396791173+396490079+395644191+394553801+393696078
3169+393042543+392637735+392772877+392988027+392204121+390674472+389950180
3156+390642243+391761585+391756595+390108483+388041397+386822893+386668923
3142+387374169+387953924+387077992+384881735+382937737+382085440+381515845
3129+380771524+380316424+380298106+380275637+379571155+378161718+376629776
3115+375209705+373773830+372459950+371211075+369814129+368590272+367318708
3102+365798419+364509267+363342292+362026956+360665990+359688274+359340202
3088+359137325+358433280+357095948+355668230+354644993+354226710+354145865
3075+353749032+352953181+351997350+351161732+350512021+349660161+348626144
3061+347821298+347288849+346671075+345826571+344888767+343827292+342780202
3047+342088867+341704889+341311151+340877683+340503901+339890607+338948215
3034+338342095+338293114+338131205+337384189+336407310+335890301+336033856
3020+337134261+339176620+340468832+339961110+338999489+338752511+338975491
3007+339587656+340903284+342519895+344068298+346118852+349367698+354271393
2993+360937987+368508989+375778789+381908491+386271434+389579603+393220985
2980+396534617+398115176+397943180+395933231+392008344+387531562+383557404
2966+379757427+376142192+373007913+370305281+368282441+367093435+366463935
2953+366153009+366361094+367321221+368453855+369256188+369943372+370876186
2939+372266723+373430274+373287666+371690756+369393661+367216669+364785706
2926+361435913+357826723+354547287+351447858+348532262+345717976+342847391
2912+339878662+337047589+334951296+333303766+331409149+329671161+328343771
2899+326978981+325651409+324828208+324495032+324067390+323264583+322554020
2885+322367639+322389088+321883660+320752593+319517920+318191950+316308841
2872+313893501+311539705+309567411+307820719+306360481+305225207+303915607
2858+302044515+299690282+297053583+294201406+291107386+288041406+285562192
2845+283816865+282230752+280351995+278342829+276436012+274816706+273622874
2831+272739877+272031499+271315473+270167800+268645016+267539677+266974708
2818+266266675+265342619+264533457+263882107+263359400+262841772+262193463
2804+261509357+260927272+260417019+259899318+259417143+258931107+258275751
2791+257470304+256550727+255480057+254308840+253085092+252073016+251517151
2777+251083191+250385137+249488630+248548677+247519723+246423178+245552946
2764+245050031+244678944+244237009+243748861+243238535+242737022+242362840
2750+242028443+241534887+241025635+240732663+240487487+240004929+239347498
2737+238722441+238228757+237911477+237685438+237405721+237075858+236776294
2723+236515496+236298379+236205607+236107264+235796520+235512998+235507790
2710+235538635+235286613+234864070+234597554+234501577+234418420+234189814
2696+233737645+233218233+232677026+232053972+231414312+230814547+230303347
2683+229865945+229368857+228795785+228312298+227907071+227333926+226585635
2669+225938528+225447175+224898357+224234025+223586626+223081125+222723149
2656+222389080+221976934+221484397+221033376+220765549+220688946+220672049
2642+220498287+220118260+219762869+219600468+219489106+219240999+218908223
2629+218663520+218605418+218702286+218802341+218837538+219013704+219375249
2615+219588852+219521408+219381695+219453327+219797774+220058536+219996009
2602+219855659+219846391+219901580+220040783+220274670+220387088+220269353
2588+220000743+219620789+219164997+218771860+218563520+218404798+218031508
2575+217457380+216868066+216289659+215749053+215331863+214969935+214537158
2561+214030329+213454471+212759913+212185530+212091866+212301917+212377974
2548+212260056+212079502+211796034+211455647+211276459+211220796+211132248
2534+211072306+211137492+211281375+211392300+211423254+211389751+211413804
2521+211627534+211958071+212294306+212557326+212667560+212673423+212680943
2507+212780197+213004852+213276356+213531019+213765342+213888176+213807695
2494+213691926+213745459+213893493+214001942+214068766+214099684+214063158
2480+213969148+213822098+213605272+213376011+213156673+212904542+212680925
2467+212555360+212447348+212291320+212180595+212119725+211917794+211577279
2453+211302005+211119430+210967845+210856337+210769064+210666041+210504733
2440+210283265+210113181+210011778+209844188+209670772+209622920+209555331
2426+209298411+208952962+208746697+208756985+208858369+208916527+208969950
2413+209102489+209230566+209298010+209359900+209423175+209511904+209659719
2399+209841348+209967623+209947994+209875070+209897739+209945372+209793169
2386+209196662+207940504+205877150+202995821+199600307+196118193+192580544
2372+188800177+184925819+181326261+178174338+175549803+173865474+173624523
2359+174828697+177305162+181066810+186098110+190987585+192991215+191095069
2345+187305270+184736015+183940473+184043605+184726146+185635399+186342175
2332+186908801+187958987+189669918+191422801+192699882+193804456+195362655
2318+197312680+199037723+200265130+201306066+202406343+203487720+204525197
2305+205508139+206348382+207030449+207569781+208026320+208502214+208951177
2291+209275359+209573212+209952383+210294846+210439584+210365549+210139820
2278+209890656+209754057+209708664+209643623+209583991+209627272+209769898
2264+209929276+210019644+210027674+210037361+210059921+210035904+210048814
2251+210168571+210238964+210160213+210102638+210182190+210308119+210428932
2237+210550036+210617917+210592115+210568262+210644246+210757265+210836271
2224+210885962+210946596+211051822+211151185+211190078+211231903+211344230
2210+211459908+211522344+211561838+211619614+211726078+211862732+212073148
2197+212457854+212886461+213062736+212990085+212968999+213100536+213257766
2183+213394511+213553597+213712137+213801431+213863558+213951377+213984352
2170+213920168+213846151+213844640+213934826+214057404+214150977+214270970
2156+214436903+214601944+214776253+214955878+215169171+215455170+215712363
2143+215847961+215931974+216077495+216312838+216574948+216765225+216846453
2129+216910965+217082670+217333800+217539208+217660312+217739209+217813117
2116+217858929+217892596+218049462+218330690+218552595+218659405+218720039
2102+218759388+218853252+219068438+219316072+219521371+219741620+220001162
2089+220212215+220379714+220589875+220818353+221048088+221310052+221565570
2075+221747872+221913004+222188096+222499623+222730013+222982909+223313282
2062+223625592+223937920+224242273+224425358+224590599+224914835+225311377
2048+225547449+225611360+225775964+226163711+226626203+227041955+227405722
2035+227758891+228176792+228669583+229090761+229379090+229709317+230233117
2021+230829441+231327385+231842992+232535165+233290102+233920239+234501213
2008+235194551+235900381+236549491+237230902+237929667+238624935+239268018
1994+239758552+240284009+241059303+241938020+242744178+243443015+244145457
1981+244909371+245620135+246260541+246826293+247296615+247614005+247707560
1967+247875132+248324259+248723277+248925354+249110223+249320585+249518892
1954+249650429+249603670+249339212+248950263+248529595+248157398+248161276
1940+248568743+248808893+248703758+248567578+248561514+248623459+248716813
1927+248675881+248429067+248386696+248566176+248725153+249233348+249999939
1913+250434136+250597465+250932317+251589074+252348582+252991191+253534802
1900+254042069+254439649+254893237+255627253+256300198+256900455+257926770
1886+259151883+260265034+261385376+262446797+263380722+264297258+265173736
1873+265610555+265536228+266044205+267900858+269989558+271497830+272674564
1859+273731232+274743508+275863923+277086888+278177897+278906232+279170709
1846+279444326+280976323+283372799+285036298+286152307+287433557+288628062
1832+289156542+289696492+291171662+292923525+294805305+296957134+298821762
1819+300351756+301734955+302807864+303524218+304544506+306221150+307835249
1805+308928443+309630631+310373605+311682714+313203950+313978498+314239205
1792+315786516+318589512+320513189+321401612+322170187+322998886+323962473
1778+324961093+325123985+324248818+323983340+325800171+328380005+330274659
1765+330835914+330728484+331416469+332558534+333508720+334232575+334097688
1751+333362507+333455442+334700676+335988044+336550755+336615723+337221552
1738+337975014+337710592+338360303+341106853+343513234+345531086+347253306
1724+348552582+349338346+349038017+348778220+351316321+355690663+359136742
1711+361313917+362354161+363098227+364469172+365216989+365518010+368126941
1697+372613556+378458406+384164143+387883494+391062019+393660280+395951694
1684+402408709+411576622+418313135+423014754+427571508+432898293+437048744
1670+440789398+446658065+452066569+455489997+459584731+465443346+470516306
1657+472975929+474307143+481448974+491552761+497043786+503804662+514886930
1643+524739550+532373590+538707954+544815295+555747453+571084143+583966453
1630+595453093+608195927+621358647+634814558+649722331+662849253+673554025
1616+685709567+698467078+709111908+718062850+725613787+731696256+736190227
1603+739461542+742353468+744800308+745542845+744107880+741290245+737770786
1589+733641055+728655094+722929145+717300575+711845421+705692813+698690895
1576+693153220+690846803+688982922+687210446+687493404+688943009+690254376
1562+690277318+688613729+692526051+704130972+714983378+725122380+735366626
1549+745915971+756182431+766051585+775691532+788306434+810020568+830154725
1535+843547125+856049792+868777878+878597869+886349899+893385321+898764801
1522+901868308+903721119+904872106+905510856+906259074+905190971+901478430
1508+897329545+897122698+901293142+904594392+906827175+909052893+912400538
1495+916558673+919327875+921533928+926034381+932937245+939281405+943672680
1481+946970070+949675542+950827039+950690331+952011312+956405501+961134286
1468+963022640+962327590+962638370+964660883+965043186+961578279+957738644
1454+958376010+959889271+959311410+956780520+953500829+950478823+948269419
1441+945948362+941747983+935773454+931004172+926092866+918324302+912584952
1427+912773226+914833394+915883361+916794654+918333188+922286079+930400164
1414+939261740+944859138+947573350+948386026+948171167+951097689+957373166
1400+961051111+960637489+960861889+964970134+972006066+978204048+980164580
1387+977391809+974596169+974824430+976448762+977914899+978723569+979933042
1373+982673693+984594166+983605451+981597797+981041495+981941716+982841647
1360+982215789+980539672+979921898+980946957+981100198+978941997+976306227
1346+973752758+971077585+969560536+968396439+965315437+961775002+959860356
1333+957845200+954040088+950386106+950721649+955095809+958085332+957013660
1319+955402365+956230409+958682639+961006391+963285714+966516461+970056532
1306+972839645+975161357+978069015+982225985+985735685+986686526+986345374
1292+985865110+986278949+990119677+997848109+1005724466+1011176780+1016032296
1279+1021300195+1025393727+1027480406+1028927826+1031180711+1032506935
1267+1031230675+1030248224+1031837814+1033891136+1035622387+1038183576
1256+1040325390+1040896987+1040705144+1040072439+1039067410+1038937111
1244+1041153142+1044400860+1045327884+1044419869+1043365969+1041301358
1233+1039938644+1040509003+1040488318+1039951026+1040354014+1040153649
1221+1038517809+1037164345+1036963324+1037026689+1036189906+1034697548
1209+1033680283+1032511888+1030659806+1029923168+1030775101+1030529070
1198+1029054702+1028993667+1029010201+1027039400+1024527956+1023377988
1186+1024144779+1025037863+1024234364+1022850237+1023049072+1024137787
1175+1023379154+1022065384+1023694523+1027487544+1029731980+1028864388
1163+1027187470+1027053529+1027223304+1026713543+1028381793+1033210725
1151+1037345117+1038262018+1038494357+1041211555+1044676753+1044824532
1140+1042853076+1043214985+1043942009+1040017814+1035363464+1035956329
1128+1039579138+1041482495+1041755257+1042984758+1044068593+1042913454
1117+1040236096+1036180219+1031459590+1028802480+1029849388+1032414583
1105+1032314218+1029892942+1029393450+1032268333+1035846496+1038072505
1094+1040779434+1043817828+1042996557+1039832526+1039342065+1039913517
1082+1039969963+1041915417+1044767430+1046268237+1046275083+1046063138
1070+1049278371+1055130759+1056385316+1052325797+1049227097+1048953680
1059+1050849462+1054847073+1057986632+1058080442+1056661209+1053597105
1047+1048667153+1045592925+1045926575+1046952435+1048453532+1050539993
1036+1049399493+1044335018+1039407980+1035895513+1032991205+1032046555
1024+1032361633+1030009913+1026093074+1026148355+1031022735+1034016336
1013+1031380129+1029530013+1031631259+1032320190+1030474882+1030934607
1001+1035673662+1043320448+1050230815+1051122879+1046476249+1041487011
989+1038528006+1038519411+1041367491+1043740551+1044155047+1045162771
978+1046428179+1046933571+1048561035+1050692506+1053166368+1057127052
966+1060453211+1062487158+1064509452+1065863718+1065625407+1063077473
955+1059823201+1061941417+1069853827+1073741823+1070080776+1065157962
943+1062668222+1063907921+1067918277+1070793306+1071875247+1072744150
932+1072225212+1069626222+1066816744+1065713317+1066485643+1066763066
920+1065993070+1066923736+1069216752+1069489805+1067182077+1063553950
908+1059861730+1059603608+1062533626+1063447977+1062669242+1062809956
897+1062993788+1062673830+1062026705+1061564795+1060094870+1056122460
885+1053823398+1056865871+1060912936+1060687298+1056436008+1050646330
874+1046177049+1044523948+1045049078+1044920599+1041084388+1036036664
862+1032863237+1030408021+1028866136+1029777210+1032050415+1032066293
851+1028564314+1025130434+1023834363+1022707556+1021809665+1023563932
839+1026738597+1027356371+1023647108+1018490863+1016988381+1019703394
827+1022636471+1022413673+1019737990+1018175858+1017392534+1014667324
816+1011733519+1011625798+1013619979+1015130181+1015595878+1015134842
804+1013113130+1010905912+1010447425+1012229952+1015236517+1014489902
793+1008919743+1005706986+1004574936+998974552+991863747+988590538+987582741
779+986138308+984314849+982286947+980067056+980179802+981858905+979589050
766+974570823+971512619+970381879+969192363+966220539+965750763+970173284
752+968535988+957322984+948823828+948974302+950981155+946793376+938885992
739+933983061+931862078+928031766+921762843+916861588+915564569+916069087
725+913317730+905469923+898011703+894341042+893018022+893217585+894232811
712+894061507+893419626+895510019+899117388+900829120+900110909+898191674
698+896302884+894432812+893143951+893178474+893338198+892860410+891692453
685+889653698+889401403+893465948+897909955+897680748+893973378+891108401
671+889937239+889910072+895295015+902546970+905369194+904996724+902147697
658+898390364+897361737+901119580+905306412+902562702+896083000+893768279
644+893160120+889797981+887653108+887258060+885421200+887266654+895196835
631+903128546+905119667+897963924+888562871+888619827+893924871+888838983
617+875624515+866356893+860979671+865427101+884536273+896307473+888998561
604+880969691+877281841+873469664
##END=
