##TITLE=Sample description
##JCAMP-DX=4.24
##DATA TYPE=INFRARED SPECTRUM
##DATE=12/9/2023
##SAMPLING PROCEDURE=Instrument type and / or accessory
##ORIGIN=Default
##XUNITS=1/CM
##YUNITS=ABSORBANCE
##RESOLUTION=4
##FIRSTX=4397.6552
##LASTX=599.8556
##DELTAX=-1.9287962
##MAXY=1.8873971
##MINY=0.25794518
##XFACTOR=1
##YFACTOR=1.7577755e-009
##NPOINTS=1970
##FIRSTY=0.26598343
##XYDATA=(X++(Y..Y))
4398+151318206+151816840+152113426+152942250+153122816+152251046+151600296
4384+151678762+152311727+152994368+153449683+153740200+153568314+153517451
4371+154030445+153927429+153041977+153074292+154373249+155110790+154608714
4357+153997943+153797693+153763801+153892333+154321877+154823800+154891924
4344+154588928+154785059+155342186+155390540+155431181+155437098+154530181
4330+153297330+152695375+152666128+152687949+152559162+152418083+152612908
4317+153190092+153576436+153775381+153978445+153811714+153517892+153753272
4303+154342002+154654237+154653085+154586114+154490931+154354159+154246497
4290+154402988+154501036+154141548+153996604+154346732+154433201+153991127
4276+153642813+153850506+154112454+153958236+153994213+154702677+155120369
4263+154303804+153313860+153584303+154918949+155974761+155753317+155336184
4249+156223044+157352794+157051342+155757658+154568464+153692337+153447530
4236+154313603+155710473+156590856+156890579+157214428+157526867+157225754
4222+156356544+155880070+156243915+156713658+156828559+156976098+157278889
4209+157172330+156773253+156875828+156977352+156693211+157132520+157927774
4195+157334025+156051107+156225705+157454488+157818485+157004802+155883376
4182+155194613+155194596+155775579+156535991+156840936+156771388+156716591
4168+156612015+156605318+156603385+156318922+156062297+156204444+156775729
4155+157303016+157207968+156630869+156184743+156305256+156998783+157821808
4141+158262678+158421797+158405351+158010326+157566591+157265580+156693329
4128+155621241+154906623+155819949+157683968+158974380+159454804+159037366
4114+157991625+157564506+157825488+157563862+156848294+156623290+156894343
4101+157254729+157608876+157904564+157990184+157964312+157896578+157474731
4087+156994510+157216344+157888592+158151575+157833948+157295505+157204323
4074+158037216+158795204+158551211+158127838+157963922+157509624+156955430
4060+156960533+157451266+157921993+158235856+158476882+158599497+158491429
4047+158238670+157975858+157658994+157407930+157356524+157630357+158330852
4033+158853256+158632610+158035453+157646108+157750599+157981775+157640038
4020+157108021+157313646+157993253+158308828+158297079+158481629+158836658
4006+158979195+158679625+158162612+158028756+158137045+158021669+158102474
3993+158616028+158989232+159070800+159263031+159458060+159290108+158766585
3979+158073092+157757601+158163663+158755022+159037976+158866142+158392991
3966+158226972+158711398+159712751+160388153+159807765+158650293+157855311
3952+157003411+156400507+157175670+158102525+157786611+157664758+158303284
3939+158455485+157832964+156723424+156209989+157315189+158274784+157542329
3925+156966484+157816112+158108815+157288706+157603078+159495682+160425436
3912+159754188+158810989+156882356+153555565+152000610+153537474+155989986
3898+158450958+159136076+156724594+154587301+155687754+156241558+155775545
3885+156720016+156311190+155592791+157202017+157018145+154813797+153324406
3871+152886266+154565752+155592876+154676685+155846686+158344213+158140317
3858+154081461+147370030+146745237+155694180+160942229+160310841+157189505
3844+154195939+151807769+149795381+150662607+154256873+156284707+157095916
3831+158389973+158837234+158008631+155642333+151839915+151799800+154683043
3817+155986527+159028787+161995039+161018049+157445112+155245579+155105907
3804+153514162+153862629+157577713+158968700+159757460+161537605+162267652
3790+162412902+162324026+161597930+161000925+160042111+159063103+160367571
3777+162332944+162101582+160051504+158858580+160136446+161732532+162623376
3763+162033391+159402042+158197861+159201317+157711180+152591528+149985577
3750+154254330+156471038+154994533+158009139+162467953+161677362+157513456
3736+155216044+158401434+164328615+167836346+167607374+166582352+167604644
3723+170197184+173748115+177484596+179395630+178419166+176971755+180731515
3709+189036353+196486461+201546094+206757860+215769196+225391031+230741316
3696+232108736+230681653+227689172+227524526+231968081+234896694+233670794
3682+229900183+225002670+219465800+216530388+219340862+221177787+221626473
3669+225669646+229519078+230845705+231945531+233325921+233557148+233896459
3655+235693440+235002287+231414006+232321244+239876369+246388991+249538556
3642+251491044+253457944+254670551+254850795+254345804+252431752+250978423
3628+255724769+261918646+263394388+261484812+260023023+262241274+265335754
3615+266204269+266055950+266234499+267946859+271687223+274555817+274822038
3601+274751151+275893193+276963518+278244012+280381135+281053350+279332376
3588+279173461+282782207+286350092+287978375+288413429+288391558+288396441
3574+288600540+288309057+286652765+285210440+287284696+291103610+293340731
3561+294688009+295952345+296230502+295476464+294985324+295172401+294977186
3547+294735245+296022469+298140739+299375540+299751592+300040600+300273793
3534+300148160+299634979+298927329+298526354+298439173+298373525+298615874
3520+298805731+298458230+298201606+297915108+296946968+296184182+296276686
3507+296229281+295495860+294875086+294900687+294865795+294475162+294213620
3493+293904505+292991603+291514826+290252796+289845887+290124111+290366866
3480+290048087+289705977+289514967+288940852+288368805+288021168+287570482
3466+287060387+286223442+285169410+284918754+285375374+285358216+284723539
3453+283914196+282956653+282086154+281473586+281070576+281252396+281822155
3439+281782244+281163181+280721718+280406330+279832570+279254538+279100235
3426+279041521+278646496+278198625+277918196+277708688+277643413+277805160
3412+278054087+278107714+277838594+277386942+277085489+277181808+277306543
3399+277132047+277014891+277010008+276913621+276891105+276855552+276669424
3385+276711912+277095442+277317174+277193134+277074096+277129029+277228603
3372+277238589+277166227+277098697+277112769+277323481+277480192+277295133
3358+277168245+277255527+277287113+277369682+277551367+277559810+277212276
3345+276826237+276827780+276995851+276940257+276780833+276869675+277053462
3331+276991459+276857756+276657929+276290117+276219654+276384994+276008688
3318+275373349+275380386+275732871+275722986+275423314+275078899+274935226
3304+275167623+275216113+275066641+275727615+276988916+277948833+278920177
3291+280537761+282231387+282921201+283009992+283654282+284741002+285314643
3277+285097963+284783253+284928825+285216001+284911260+283956735+283482312
3264+284242012+285070836+284517371+283131166+282599149+283127215+283201900
3250+282179269+280867324+279968461+279674164+279604836+279308064+278902934
3237+278760974+279055780+279363183+278874942+277685800+276881034+276583041
3223+276287591+276150547+275863455+275205041+275039022+275575838+275781683
3210+275055824+273838758+272820788+272319238+272017803+271602874+271163480
3196+270905143+271023096+271195998+270806484+269844584+268810304+267873615
3183+266987281+266226513+265348148+264357865+263627310+263280877+263144105
3169+262739230+262268503+262245784+262115047+261434881+260905712+261031803
3156+261178121+260734200+259954307+259140860+258362256+257903448+257860367
3142+257754384+257346915+256850112+256355293+255901979+255588590+255382491
3129+254963882+254256758+253719621+253452586+253007766+252047934+250729344
3115+249505715+248558532+247892929+247389379+246579544+245151223+243357888
3102+241909951+241335428+241161491+240605738+239753398+239041797+238465020
3088+237906960+237371874+236804727+236189446+235697136+235515587+235393887
3075+234851544+234134790+233826132+233827793+233828845+233736239+233514846
3061+233268089+233121703+233181519+233409185+233490923+233179586+232680681
3047+232554726+232768709+232755892+232597129+232592721+232552200+232251392
3034+231737431+231324892+231273096+231446558+231529839+231261126+230678008
3020+230156282+229928446+229988160+230084089+229798473+229202960+228673351
3007+228360098+228328749+228434308+228388717+228205337+228017311+227925858
2993+228266543+229041010+229695033+230227525+231001264+231697774+231858249
2980+231584857+231200480+231000128+231127999+231207295+230837618+230357719
2966+230075883+229683572+229119561+228606617+228130075+227809905+227694903
2953+227520542+227441601+227761737+228132246+228171190+228117919+228242128
2939+228281158+227884811+227353878+227234518+227335788+227045729+226397302
2926+225913893+225543198+224952620+224309262+223761528+223291310+222981211
2912+222828416+222770499+222736166+222687371+222669009+222673299+222578218
2899+222358012+222122394+221925365+221862803+221996032+222195197+222305741
2885+222264779+222227021+222421625+222799882+223183513+223469587+223533947
2872+223309655+222929872+222729758+222773246+222615857+222274680+222192857
2858+222276579+222297111+222168544+221721486+221005597+220359068+220065212
2845+220060159+220087117+220095543+220217549+220472528+220723422+220790409
2831+220720523+220829608+221044948+221007377+220774693+220512558+220258273
2818+220144169+220212954+220365443+220520188+220613251+220668099+220708841
2804+220600756+220409559+220543263+221025891+221303760+221218258+221244165
2791+221508486+221613079+221439295+221276107+221317340+221430597+221247878
2777+220727203+220338655+220313104+220472223+220577138+220465221+220221414
2764+220042476+219971080+219935035+220012534+220316818+220610030+220629477
2750+220503860+220464983+220475648+220431023+220431295+220469019+220363392
2737+220187115+220147916+220131097+220039220+220094289+220281603+220457066
2723+220692226+220856702+220779050+220608707+220524019+220565388+220654095
2710+220711282+220828354+221057851+221218038+221179042+221123838+221189842
2696+221208899+221162969+221223989+221312508+221239790+221071906+221004207
2683+220963617+220754449+220469799+220326702+220394978+220509879+220384992
2669+220014145+219702994+219598910+219470412+219193086+219004534+218923881
2656+218781446+218653422+218531095+218339932+218240290+218239120+218086699
2642+217754830+217508039+217512346+217627840+217586013+217291224+216945249
2629+216817208+216830535+216653868+216259081+215998489+216110762+216318524
2615+216196044+215868363+215711618+215712500+215680812+215583916+215469659
2602+215358505+215162104+214825471+214515660+214366171+214359169+214412050
2588+214347030+214113158+213863468+213694075+213547249+213318159+213019521
2575+212810878+212732701+212659474+212592096+212559374+212459596+212190680
2561+211782177+211371757+210974478+210664515+210597578+210598612+210443749
2548+210169323+209920870+209847525+209920226+209978702+209957068+209794593
2534+209538935+209462436+209525693+209414387+209178905+209025042+208952019
2521+208909395+208899612+208946949+209027602+209061732+209041895+208994591
2507+208910276+208867500+208907699+208979875+209078703+209112765+209009868
2494+208875587+208786864+208774691+208874621+209023363+209202878+209492581
2480+209784623+209894726+209827959+209651072+209430307+209248537+209146521
2467+209172920+209378612+209658380+209835487+209868430+209809004+209755479
2453+209751460+209802324+209975905+210198654+210373235+210599460+210899742
2440+211122118+211194311+211188173+211211639+211383287+211699862+211983207
2426+212132831+212220113+212305734+212385352+212539520+212823085+213113110
2413+213295965+213398761+213532837+213700501+213840580+214015602+214202390
2399+214308848+214417968+214618371+214856192+215066548+215225971+215227836
2386+214793121+213605623+211463651+208335754+204495850+200440419+196483223
2372+192549136+188479735+184388750+180518837+177364846+175581955+175347694
2359+176695819+179743385+184269119+190146674+196090911+198909388+197007679
2345+192566735+189518897+188850836+189599262+191015935+192236816+192904131
2332+193457901+194699620+196723469+198669938+200099598+201635309+203838046
2318+206433587+208763382+210510059+211960132+213445250+214981487+216491070
2305+217908353+219169468+220218668+221080078+221840897+222513231+223086058
2291+223638302+224278049+224940311+225365922+225486197+225533433+225633142
2278+225760166+225970776+226210022+226312546+226353796+226471444+226652129
2264+226883406+227110428+227276430+227385855+227442856+227543295+227762433
2251+228034248+228272663+228404400+228460689+228590138+228824433+229040705
2237+229146434+229177563+229249111+229388579+229481897+229495664+229565466
2224+229744964+229946740+230140005+230296394+230359754+230419213+230519974
2210+230586301+230689181+230827428+230881768+230967727+231183203+231416617
2197+231585976+231704454+231848229+232031491+232208039+232354543+232434399
2183+232521037+232689159+232805738+232777441+232746787+232904193+233195897
2170+233426309+233605027+233821995+234022703+234109222+234074092+234077382
2156+234251912+234444397+234510588+234604702+234809344+234977737+235093282
2143+235231581+235367845+235520097+235699476+235822583+235892521+235967070
2129+236043772+236168371+236360229+236502953+236563243+236631638+236786331
2116+237101144+237440337+237532451+237448933+237411904+237442117+237518837
2102+237631211+237720918+237759744+237812795+237903400+237968387+238022133
2089+238085475+238164517+238276214+238373855+238455525+238549674+238646230
2075+238717745+238749382+238785784+238824050+238815691+238785648+238780562
2062+238815759+238936781+239123281+239244422+239319123+239429921+239494756
2048+239457286+239407524+239376667+239284587+239220193+239343996+239601451
2035+239855210+240035623+240177075+240308829+240358608+240321155+240319629
2021+240386719+240408064+240422374+240609552+240914650+241149911+241282564
2008+241359453+241437054+241548428+241652716+241747899+241866123+241899032
1994+241741711+241714092+242121391+242648051+243039820+243339492+243558053
1981+243724581+243867186+244070573+244373958+244660287+244735802+244523565
1967+244454153+244931255+245546451+245887289+246097593+246307253+246555960
1954+246863601+247117851+247268509+247306962+247116020+246810516+247085146
1940+248098334+249005573+249440915+249613614+249740078+249981189+250328046
1927+250479281+250207668+250010606+250094802+250161959+250759489+251882254
1913+252490262+252481802+252678763+253444346+254274442+254813936+255210283
1900+255526418+255634876+255724447+256086292+256243630+256197904+256914370
1886+258102241+258943136+259546804+260131990+260704970+261179274+261427608
1873+261026547+259692630+258854972+260317762+262747334+264242354+264939899
1859+265556350+266273257+267012561+267671008+268070865+267990687+267275051
1846+266372119+267119832+269615544+271355287+272025806+272753258+273331155
1832+272751902+271936455+272668774+274029683+275441354+277419715+279155930
1819+280205452+281026358+281564700+281444271+281450782+282629446+284277515
1805+285165205+284993795+284622998+285384462+286828347+287049739+286047080
1792+286771040+290033608+292653427+293652560+294133120+294629448+295517664
1778+296680815+296617100+294822595+293719429+295888053+299547222+302409831
1765+303492041+303419883+304193418+305608615+306829107+307898771+307574633
1751+305909152+305642084+307731463+310184585+311678520+312393765+313514361
1738+314425160+313316263+312908642+316390194+320331656+323442107+325615412
1724+326658389+326627226+324607564+321506676+322183366+327350203+332192563
1711+334750193+334932014+334061906+334184758+334085608+332678311+333327908
1697+336731436+341984944+347514880+350239004+350816544+349748305+347005700
1684+347949731+354514607+359734952+361748544+362420250+363982071+365156446
1670+366063617+370305514+375405617+377860266+380076872+384089713+387060119
1657+386276615+382377437+383481383+390878288+393847575+396133864+403599164
1643+411086674+414870051+415347933+413901437+416252764+424609704+431186313
1630+434271705+436630051+439370554+442679950+447750857+452184171+454344047
1616+458513650+465939072+472142884+476588846+481046779+486111515+491134576
1603+496324607+502266369+508604800+514693117+520723924+527176493+533994773
1589+541139698+548377400+555402728+562684070+570512028+576988537+581391231
1576+588332363+598025086+604979442+610932937+619799361+629756168+638124264
1562+642570091+643307886+651110717+667744775+681585737+692620990+702839779
1549+713599148+722796458+728458673+731621717+737099195+751883577+767153539
1535+776274282+784265919+794426181+803043712+808926879+813800571+818195670
1522+823376375+830599360+839162637+849371728+859764606+866684240+868712481
1508+868445141+874808462+888739487+898925519+903916198+906997250+912691000
1495+920270573+924727726+925683014+927799893+935175740+944057356+949904173
1481+952391272+953729937+954899531+954665490+955047307+959212434+964004676
1468+966561221+967451200+968602822+969452585+966002263+957783164+956009512
1454+963365014+968559961+968321241+963860562+958977782+955898019+952331863
1441+947345661+941546656+934578329+928961281+925056509+920840450+919503413
1427+921323927+922907009+924441804+923751956+921400629+926284019+936846172
1414+943895135+945527250+945435763+946422722+948344149+952962099+960547707
1400+965810812+967501182+969168088+971037837+972871372+975152982+978211247
1387+981893304+983437458+981425765+979432518+981632678+986505896+991262669
1373+996371826+999220261+997253599+994933401+995451532+995780654+994630321
1360+994420762+995335495+995255605+994630796+995364725+995710598+994135993
1346+992436942+991111773+986627426+976974581+968450435+966737345+968136911
1333+968302523+968245284+969604363+971390831+973259632+976078362+978759625
1319+979453677+978922186+979067452+980568745+983591406+987668369+991277793
1306+993353371+995136855+997692587+1000038150+1001994978+1002669227+1001248909
1292+1001217984+1004545216+1009215114+1014899777+1021759934+1027973105
1281+1032121413+1034226627+1035890413+1039570096+1044784304+1048174946
1269+1049968400+1052320134+1052690354+1050351167+1049702349+1052237532
1258+1056201238+1058591900+1058100760+1058520148+1061982813+1065689692
1246+1067622174+1068642567+1069810873+1070964258+1071017699+1069782999
1234+1068968841+1069185046+1069675711+1070000493+1070116937+1070941403
1223+1071791505+1070947507+1068947546+1066328405+1063417780+1061323349
1211+1060400749+1061683803+1065366945+1067120997+1064305047+1060643606
1200+1059274627+1059175205+1058257963+1056469324+1054899602+1053600204
1188+1053456904+1054393881+1052779467+1049088458+1047736705+1048177930
1177+1047610291+1045317084+1042879357+1042630057+1043756654+1044398486
1165+1043533871+1039945131+1034837873+1032461860+1035680380+1041530994
1153+1043699144+1040476352+1036189017+1034159284+1034414959+1036201834
1142+1036016487+1032152880+1030027659+1031470425+1032281871+1031538379
1130+1029592402+1026883604+1025782778+1025466609+1024143000+1023433757
1119+1024268464+1024860653+1023478313+1020226699+1017116417+1017264329
1107+1021084464+1024120891+1022967913+1021818665+1025150237+1028027970
1096+1025705804+1022366026+1022817017+1026586628+1029211873+1029032358
1084+1028450410+1028766375+1030237218+1031059039+1030506320+1032865243
1072+1038000239+1041780362+1045862818+1051386548+1054316297+1053452632
1061+1050984793+1047786347+1044336161+1041737094+1041906029+1045572895
1049+1049814453+1053298142+1057458385+1057887539+1049371735+1040474250
1038+1039678402+1041622481+1043948512+1048839565+1052443225+1052836570
1026+1049154852+1042614526+1038743866+1038425188+1039971106+1041710644
1015+1042092868+1042992681+1044648396+1043525122+1039369219+1036505185
1003+1036820540+1036782291+1035445186+1036846515+1039104456+1037519747
991+1035173099+1036146834+1039202861+1042699164+1046865036+1049565017
980+1048366194+1046052370+1045576557+1045956543+1046130497+1047711273
968+1052333834+1057868618+1061193273+1063485327+1067079221+1069754584
957+1068235522+1064039131+1061388454+1062480939+1065408111+1067472634
945+1069441534+1070665112+1068602351+1065894571+1065313436+1066421994
934+1069321021+1072165659+1072117847+1069172025+1066471569+1067301529
922+1070414659+1072693149+1073741823+1072676534+1067081323+1060223404
910+1057794425+1058928075+1060333405+1060561953+1061129049+1064864954
899+1068380857+1068122401+1067222317+1067075219+1066873731+1065959202
887+1062833255+1059912050+1060001842+1060603254+1058691322+1055347338
876+1053812543+1052347872+1048091394+1046385154+1049273127+1050002377
864+1047721513+1046190787+1043770014+1040774413+1040084566+1039316524
853+1036916707+1034845605+1033490935+1032436768+1030919469+1028857455
841+1028696929+1030287335+1028138581+1023673155+1023859927+1025159460
829+1022131239+1019808938+1023637822+1029689517+1030418971+1026974345
818+1024619763+1022855742+1020637474+1021386188+1025532936+1029243070
806+1030386825+1027449344+1023634906+1022811592+1020925837+1016362617
795+1015263147+1021911372+1029036156+1026434240+1016700962+1006668945
783+1001565146+1004310700+1009713511+1010109434+1004182049+997181644+994506010
770+994213306+991321603+987599465+986400235+985166281+981198167+977213911
756+976422065+976026753+972985578+970089399+968369392+966382995+964629011
743+962981976+961481768+960999174+960705317+959261398+956073601+951667448
729+947677292+943651871+937625336+929868893+921292730+915519904+916635243
716+920879988+924388906+927549847+928640026+928648300+929832949+930458437
702+930585054+932164880+935801703+940222640+940535350+935821845+931786658
689+930525238+930349114+928359394+922623121+917949968+919054524+923598212
675+929326347+935195408+935726628+931403485+931043777+932316251+935978912
662+946669309+952365026+945247770+938525420+937939674+934230286+925404755
648+920643167+922193628+927143887+937799290+950171987+952197583+950382224
635+958767342+968193810+968860260+965993921+959924661+940491336+920701559
621+916974199+924931520+937115750+947942055+949156409+941686837+937129992
608+941873812+945905133+938961492+931670350+936616743
##END=
