##TITLE=Sample description
##JCAMP-DX=4.24
##DATA TYPE=INFRARED SPECTRUM
##DATE=12/9/2023
##SAMPLING PROCEDURE=Instrument type and / or accessory
##ORIGIN=Default
##XUNITS=1/CM
##YUNITS=ABSORBANCE
##RESOLUTION=4
##FIRSTX=4397.6552
##LASTX=599.8556
##DELTAX=-1.9287962
##MAXY=1.6795378
##MINY=0.14934063
##XFACTOR=1
##YFACTOR=1.5641914e-009
##NPOINTS=1970
##FIRSTY=0.2010262
##XYDATA=(X++(Y..Y))
4398+128517645+128775335+128526324+127329309+126868715+128116163+129006847
4384+128562524+127838658+127674289+128436442+129381797+129709907+129380978
4371+128153078+126876946+127198397+128625303+129594913+130097575+130517424
4357+130414720+129569497+128620121+127984613+127428727+127299072+127683540
4344+127802439+127856359+128375158+128847079+128917212+129061319+129167129
4330+128356687+127257899+127111563+127283077+127120537+127292899+128296108
4317+129566362+129727492+128431974+127122519+127164406+128359602+129250885
4303+129340053+129636010+130244225+129961385+128511625+127501613+127891292
4290+128490485+128642632+128783280+128950593+129513110+130375395+130226287
4276+129039189+128117211+127908744+128177418+128387248+128089832+127533184
4263+127110677+127245343+128099759+129066530+129495248+128913602+127643262
4249+127325908+128242884+128611785+127867476+127151355+127277742+127997531
4236+128652682+129192164+129720233+129866102+129469602+128961339+128805258
4222+128738916+128574756+128957100+129758701+129926947+129390495+129321276
4209+130379939+131399648+131358132+130944408+130509927+129814612+129444195
4195+129680756+129890461+129819975+129699551+129520102+129133901+128700848
4182+128644737+128971580+129373195+129681099+129667000+129378415+129203101
4168+129550977+130481281+131077283+130594731+129596628+128869247+128505871
4155+128185954+127864151+127765543+127952452+128400861+129005951+129509471
4141+129556150+129150600+128887195+129190049+129684719+129590664+128885832
4128+127998864+127113811+126804403+127187613+127685426+128051460+127943926
4114+127333205+126838926+126764191+126953463+127340902+128060929+128632505
4101+128455371+128087784+128123356+128358659+128749261+129360753+129587397
4087+128792121+127739641+127503290+127525029+127090243+126658048+126866963
4074+127770163+128498297+128472195+128265214+128108895+127594858+126955711
4060+126987815+127536452+127763085+127621484+127445455+127322764+127124014
4047+126801840+126708767+127028264+127482437+127598945+127111277+126459146
4033+126271284+126501395+126929694+127523981+128012411+128089937+127537766
4020+126693953+126481666+126879928+127033942+126791266+126836992+127539071
4006+128237187+128150135+127519923+127052976+126797639+126411856+125791591
3993+125307295+125475513+126275095+127144763+127421763+127121918+126731773
3979+126132818+125214032+124586840+124592756+124999963+125727554+126535881
3966+126717074+126079937+125562775+125603977+125469873+125109698+124804643
3952+123903547+122588433+122409889+122459178+121446347+122030546+124712637
3939+126218794+125111222+121945418+119681100+121065728+123094315+122259609
3925+120863273+121378748+121130746+119358240+119893939+123526320+126137505
3912+125907470+123898736+119410216+112504249+107807471+108445751+113000547
3898+119232815+122240204+119010877+115110690+116497100+116976927+114421110
3885+114323740+114149759+114477211+118539976+118669059+114007577+109821787
3871+107419669+109865485+112721690+111462477+112755442+117897552+119575233
3858+113437163+100517808+95474649+108945565+120845677+123542276+119746613
3844+113572200+107914462+103613460+104134861+109611958+113687375+116097838
3831+118714224+119476453+118424754+114940348+107567300+105365971+109830390
3817+112468392+117964951+124543380+124594566+118837773+114247662+113231506
3804+109238160+107613303+113795242+118326279+121634228+126165217+128398841
3790+128248066+127077582+125604911+125372942+124925209+123852771+126275619
3777+130494675+131222008+127937914+124943405+126377657+129640497+132411783
3763+132824306+129400050+127763028+130008322+128400051+120087726+114679467
3750+120561466+124411649+123404458+131376403+142519888+144025417+138456227
3736+135684903+143744940+158680125+170469797+175092917+176845609+181122462
3723+188218643+196879330+205319195+210208312+208887853+205311479+212088962
3709+230692367+249549269+262885738+273633705+288467215+305107907+316447885
3696+320297153+315469444+302508011+290144400+288253670+290962606+290034808
3682+284795938+276866366+266123867+258038767+262078678+267002623+268108394
3669+275213397+283628360+286339125+285134431+282078428+277187388+272950107
3655+271294776+265186543+252286098+246751147+257054439+268843816+274141235
3642+275024278+274937321+274714479+273849174+271671241+266079303+259514678
3628+263679900+273827511+277229513+273147686+267349176+267579087+271587866
3615+273447349+274320789+274830853+275578907+279542893+283560913+283857413
3601+283257629+283835064+283854974+284102643+286120150+286394302+282300547
3588+280500737+286086198+292268584+295001184+295722468+295751810+295583096
3574+295790563+295060172+290580101+284847190+285711047+291818232+296129475
3561+298062198+299453799+300133434+299450351+298482427+298175695+297262511
3547+296233847+297614170+300669067+302546936+302502276+301961213+302033938
3534+302276119+302109101+301731664+301422379+301001425+300822748+301452121
3520+302336021+303094611+303673761+303257932+301678735+300342882+300354181
3507+300492295+299822587+300068140+301581090+302349091+302087858+301956774
3493+301968377+301202052+299830189+299079163+299111839+299181534+299305035
3480+299528887+299405424+299243551+299261080+299044773+298842298+298987176
3466+299140323+298878822+298480141+298565136+298900771+298980907+298790798
3453+298280334+297270151+296242402+296205839+296909214+297235056+297179250
3439+297441532+298091615+298395375+297893542+297235513+297224634+297353869
3426+296600748+295411125+295070460+295880835+297039802+297673005+297730602
3412+297420040+296570320+295847931+296135382+296688143+296454517+295536131
3399+294811017+294822201+295170678+295687773+296209173+296111013+295744188
3385+295934736+296412105+296579542+296861010+297543464+297693506+296976204
3372+296454441+296796821+297529994+297898191+297806603+297823179+298176896
3358+298805240+299658008+300421913+301125231+301679345+301510384+300825777
3345+300361040+300499039+301232879+302174891+303073538+303883590+304146633
3331+303794765+303726880+304307268+304982673+305161370+304550516+303780914
3318+303840092+304534683+304828383+304274078+303565293+303502209+303885038
3304+304319367+304612857+304270134+303541286+303520976+304327502+305330235
3291+306148365+305991008+304650448+303491710+303223618+303015427+302328724
3277+301686757+301577203+301926042+302637113+303374840+303407078+302665426
3264+302062974+301875571+301515757+301136758+301196336+301460599+301554339
3250+301179722+300215304+299257041+299030254+299537632+300422866+301022307
3237+300604402+299703544+299666772+300359706+300678193+300598076+300427286
3223+300402842+300865388+301140530+300472689+299581473+299409292+299669459
3210+299859797+299765657+299068970+298047031+297003430+296138240+295978558
3196+296060313+295606874+294846741+294131726+293464323+292560055+291414349
3183+290576290+289988319+289182097+288082195+286614819+285079464+284120362
3169+283743325+283389856+282677812+281682872+280767534+280410217+280643843
3156+280921253+280848700+280255032+279105725+277700062+276643333+276219616
3142+275941159+275404421+274434116+272982821+271770354+271266235+270909070
3129+270248755+269193645+267688279+266279929+265746392+265648860+264695455
3115+262748348+260813663+259395369+258335610+257245939+255714622+253730991
3102+251625288+249741722+248150198+246744878+245539118+244530555+243573206
3088+242527775+241588564+240889172+240044502+238998900+238128070+237297574
3075+236307931+235510683+234970706+234357985+233755990+233393986+233181032
3061+232914769+232667653+232615334+232346917+231478869+230500447+229841256
3047+229362991+228981153+228628256+228094452+227175837+225903297+224655372
3034+223634558+222846322+222286644+221737712+221131431+220507145+219781460
3020+219075018+218499202+217857464+216970363+215924037+214874186+213818086
3007+212703855+211689233+210919707+210234643+209469689+208575310+207745196
2993+207454354+207644444+207905945+208234931+208470957+208371521+208223842
2980+208202179+208097121+208007630+208129473+208023882+207453554+207003697
2966+206818979+206473779+205944815+205262646+204201802+203031766+202403345
2953+202222057+202081028+202120067+202316960+202283979+201860682+201255239
2939+200829312+200529306+199930436+199090281+198480456+198159378+197824600
2926+197279383+196357415+195073767+193821727+192859538+192103921+191403004
2912+190705308+190238970+190179258+190276828+190173314+189766287+189195292
2899+188629346+188219424+187999878+187827068+187647895+187570255+187630424
2885+187674055+187691450+187827563+187904099+187760154+187501150+187149491
2872+186844036+186748943+186669245+186390444+185987152+185718659+185702369
2858+185642753+185198345+184375395+183433688+182603974+181905020+181325089
2845+180849015+180473635+180428213+180799211+181209076+181270255+181083689
2831+180983414+180927551+180654009+180158939+179668309+179339209+179071631
2818+178761698+178524185+178414631+178298885+178157341+178154445+178304543
2804+178445344+178545333+178649534+178622002+178410973+178318738+178545372
2791+178781036+178539217+177945225+177631673+177631330+177544868+177381451
2777+177270125+177177224+177001099+176669598+176298048+176040359+175946942
2764+176010788+176071472+175855813+175402678+175135271+175190906+175309415
2750+175405174+175433068+175237357+174903570+174616157+174427191+174319275
2737+174265299+174240778+174151477+173995205+173847393+173679709+173619693
2723+173757673+173762303+173441548+173097473+172955700+172920624+172896198
2710+172898866+172924073+172851843+172577006+172223670+172052995+172051204
2696+171972496+171936315+172150564+172320211+172170494+171863209+171623753
2683+171500062+171445075+171350859+171124073+170857009+170631480+170365178
2669+170064772+169825792+169595423+169271544+168961859+168776855+168594081
2656+168344603+168096763+167842198+167533294+167187066+166868883+166644364
2642+166481614+166221981+165854375+165610346+165478195+165131452+164590294
2629+164216096+164004228+163707727+163340179+162963923+162605176+162333178
2615+162007755+161544313+161207859+161044347+160774939+160433055+160247918
2602+160157227+159948312+159630729+159470704+159537399+159575686+159442963
2588+159200497+159024763+159049026+159097659+158975082+158779086+158644544
2575+158582193+158528817+158444651+158434981+158467200+158283578+157955649
2561+157799216+157725929+157455836+157086067+156871856+156768856+156542356
2548+156213475+156045276+156034997+155951812+155761179+155544510+155326907
2534+155169959+155144028+155167292+155059138+154772040+154447122+154215068
2521+154070209+154006773+154023377+153988186+153854169+153758352+153706442
2507+153601337+153471149+153392013+153402644+153505301+153643901+153727286
2494+153777128+153849729+153911603+154113135+154559201+154939467+155061196
2480+155124413+155251401+155372491+155469613+155515159+155471928+155407682
2467+155382313+155433403+155574880+155752624+155886756+155955528+156022403
2453+156041037+155980982+155998597+156093966+156155497+156285142+156543918
2440+156789786+156975732+157069720+156987097+156932015+157099261+157274872
2426+157289037+157272099+157349178+157494646+157622548+157689624+157672486
2413+157609564+157637905+157761063+157859699+157917325+157975112+158058001
2399+158190790+158370135+158539658+158674085+158765710+158743057+158544754
2386+157977627+156581614+153960236+150174728+145647263+140732358+135592763
2372+130291657+124978110+120028567+115640750+111892443+109325613+108694620
2359+110282447+113894260+119217353+126284174+133640979+137308197+135038154
2345+129210350+124929239+123973557+124766042+125863267+126739146+127482703
2332+128345045+129841295+131867796+133574217+134868288+136663020+139465172
2318+142656907+145292127+147130471+148715326+150434151+152181604+153865114
2305+155424772+156743592+157839684+158774799+159546192+160213032+160835966
2291+161399988+161895457+162313934+162675748+162984900+163146068+163116708
2278+163008163+162937915+162902687+162904287+162977679+163018966+162974497
2264+163025597+163239046+163444512+163542063+163555990+163564221+163654303
2251+163790093+163891645+163955510+164001656+164080687+164212704+164293565
2237+164261861+164190222+164192413+164361888+164556361+164514749+164316962
2224+164228175+164321763+164494553+164566268+164467403+164375930+164426058
2210+164516007+164586464+164712842+164876277+164944487+164920004+164933931
2197+165000693+165086526+165167862+165174569+165178646+165304910+165431725
2183+165417264+165369918+165426695+165567229+165695398+165735428+165672820
2170+165605830+165639973+165707420+165764598+165853594+165923956+166005464
2156+166140358+166178845+166083943+166045113+166119534+166174101+166180732
2143+166218590+166268737+166279673+166329134+166480795+166631065+166684565
2129+166665722+166624244+166597017+166632989+166735646+166855622+166976722
2116+167063832+167071834+167020715+167004844+167135394+167335487+167430256
2102+167439268+167500123+167633588+167773970+167916847+168090000+168383242
2089+168889972+169538208+170241792+170961323+171605919+172175695+172789502
2075+173441434+173980859+174357076+174583100+174619949+174688977+175177169
2062+175966738+176699492+177360607+178063487+178854237+179687781+180526107
2048+181456172+182454257+183310454+184053992+184996308+186068718+186897041
2035+187390338+187674664+187849589+187896744+187802757+187562024+187115520
2021+186445050+185622881+185063470+185082751+185213949+185014771+184720213
2008+184604524+184575107+184474660+184328334+184257362+184311206+184194030
1994+183476081+182805896+183280141+184443528+185393179+186047016+186560701
1981+187052607+187532606+188037983+188650476+189346686+189791361+189670375
1967+189829981+191203254+192970693+194204347+195138223+195972109+196657402
1954+197367845+198201923+198940850+199199721+198622286+197517658+197595546
1940+199480103+201237196+201915573+202174654+202508403+202983848+203451576
1927+203450186+202641106+202085848+202280207+202374899+203477145+205925705
1913+207353850+207120548+206803584+207438731+208469795+209111553+209329594
1900+209216839+208552904+207664640+207243915+206478162+205307173+205747370
1886+207229816+207883825+208024549+208204027+208401167+208539967+208319640
1873+206644893+202741991+199725389+201681032+205917188+208352430+208975344
1859+209167397+209607365+210198118+210609412+210550768+209557714+207080041
1846+203685012+203389674+207613064+211092060+211956412+212288675+212078674
1832+209269120+205717076+205638330+207403445+209324126+212200974+214304410
1819+214813007+215025237+214971698+213632035+212225705+212969738+214851284
1805+215381621+213669169+211425275+211506478+213083941+212383253+209037723
1792+208756350+213973367+218318867+219131414+218685253+218185878+218359069
1778+219394249+218367547+213587699+209496878+211885916+217798152+222582459
1765+223854561+222152817+221837397+223195104+224178994+225027779+223248242
1751+218479768+216561507+219713174+223575456+225266893+225129407+225716026
1738+226352449+222946940+220104711+225529975+232912273+238455893+241678932
1724+242525432+241454890+236131654+227613481+226280257+235024854+244115984
1711+248890497+248672018+245578900+243810242+241658107+236659094+235840164
1697+241501550+251197894+261887749+266949656+267313776+264527771+257620252
1684+256814163+268856543+279705395+283572344+283794158+285910549+288192301
1670+290019604+298209438+308245114+312616316+315957712+323292111+329346157
1657+327785042+318553969+317714443+331784276+338364791+341566700+353947440
1643+367657612+374433419+374097746+368724954+369033267+381365231+391520444
1630+394308183+394546077+395080357+396286594+400745383+404957208+404689973
1616+406727790+414870450+420796271+422216661+422453679+423361777+424004506
1603+424328138+425503509+427296573+428698559+430096506+432485010+435713251
1589+439325445+443300977+447783200+453201567+459058150+462131758+461510520
1576+465514479+476015349+482590453+486924598+496342504+507589636+515847451
1562+517366879+510983179+515970190+540860847+562971045+579416560+592660471
1549+605085451+614750701+618774322+618786668+622471720+643582557+668754664
1535+683451812+695609748+711293301+723804400+731602889+738768822+745192837
1522+753482433+767893331+784077365+800649238+816917638+828287547+831887547
1508+830712824+842792872+871222332+891432311+899735243+902171647+907292522
1495+917815189+926049988+929598393+934610591+944202335+953390463+959272462
1481+962912778+965472720+965701050+961875845+956938029+959099157+968122821
1468+974061521+973495956+972324358+972740625+968796911+959773400+959026680
1454+968527885+973801183+970585898+964166380+961955638+961885295+959570830
1441+955263588+947341713+936877500+931741230+929267559+923054802+918221929
1427+918305457+918149681+917069079+917030592+918912253+926477153+937168933
1414+945108870+950434983+954634919+956452257+956032104+956829733+959093746
1400+960288360+962029335+965308180+969307147+974608338+978309928+978736789
1387+978775733+980170783+981308163+981135010+981534053+983441855+984914565
1373+986912905+990621354+992983680+993419076+992997931+990592317+988296295
1360+989481916+992392736+994077848+993810879+992374750+990911110+989711389
1346+988175652+985678356+980277784+972386241+967580881+967657702+968273948
1333+967160346+965465099+964264693+964268427+966159157+969414833+973089140
1319+976336662+978197212+979034471+980634987+983411218+986270900+989348242
1306+993141819+996862080+998991580+999599748+1001248811+1004807581+1008712122
1292+1012686777+1016904395+1020655979+1023842227+1027029466+1030820376
1281+1035137068+1039333804+1043983083+1049438527+1053861915+1056063207
1269+1056487628+1055784730+1055199655+1055410379+1056458515+1058652643
1258+1060703036+1061590137+1063177774+1066563086+1069783858+1071292006
1246+1071816112+1072007251+1071807424+1071915492+1072939088+1073741823
1234+1073160482+1072331683+1072803508+1073130302+1071089817+1068461208
1223+1068274871+1069414309+1068548165+1065858664+1063332178+1061180043
1211+1060226562+1059998918+1058938360+1058339642+1057839391+1055880375
1200+1054279021+1054394557+1054853655+1054201818+1052694508+1050676124
1188+1047477835+1043709408+1041408660+1041026003+1040361134+1037805917
1177+1034558776+1032480337+1031892214+1031509937+1030002627+1026687963
1165+1022941179+1022017116+1023501333+1023900148+1022054459+1018680350
1153+1015570008+1014077865+1013445843+1013376795+1013787804+1013908904
1142+1014315187+1015248472+1015176529+1013637896+1012185839+1011957662
1130+1011811336+1010622666+1009745549+1009478733+1008444238+1008534320
1119+1011781233+1014531246+1012895977+1009343610+1006951485+1004165423
1107+1001432633+1001927093+1003620206+1003721034+1004708049+1008725459
1096+1014482090+1019234712+1021003199+1020992224+1023135747+1028235284
1084+1032222971+1034205841+1037306198+1041306842+1044290444+1046530908
1072+1047308493+1045280811+1042372202+1041738122+1044586144+1048876391
1061+1050616222+1049841533+1050761176+1054909518+1059141616+1059026917
1049+1054597127+1050381491+1048287734+1047962235+1049268270+1049917287
1038+1048311664+1045600366+1042929079+1042384167+1043809931+1043264866
1026+1041463380+1041200222+1041491731+1041709238+1039964682+1036179031
1015+1034548106+1033858393+1030815574+1028237341+1029119260+1032251703
1003+1034949283+1035545257+1035676645+1038111144+1041520005+1043924705
991+1045358700+1045287594+1046142458+1050401382+1053522165+1052232134
980+1050953687+1051873482+1051710390+1049647194+1049417721+1053441533
968+1058687167+1061424910+1061490300+1059135290+1055948204+1054537911
957+1055047384+1056795599+1058644869+1059450196+1060286007+1062189997
945+1063137839+1060663101+1056848870+1055526373+1056595696+1056913879
934+1055593820+1056009020+1058661560+1059428475+1057908438+1056218830
922+1054071039+1051772731+1050278377+1049591178+1050559902+1052714018
910+1052901499+1051584641+1052261399+1053845073+1053701414+1052794879
899+1051391902+1049327563+1048931568+1050557158+1052439886+1052836109
887+1048915869+1042289893+1039630724+1042453214+1043482145+1037216802
876+1029483094+1026429758+1025612390+1023765940+1020732495+1017920446
864+1016837481+1017096829+1017997953+1018957379+1018611379+1015906558
853+1012083030+1010252584+1010451572+1010779967+1011806840+1013297231
841+1013645365+1011646262+1006760346+1004521864+1009473703+1013484330
829+1009983252+1005893899+1005791318+1006180911+1005829576+1005769674
818+1004503649+1002851919+1004185162+1007218377+1007920208+1005448748
806+1002400747+1002676480+1005426646+1003546434+996853697+993792436+995369174
793+995362087+991925179+986909780+981964343+978861242+977997842+977979094
779+976993680+973744177+969290151+965932732+962530958+957277018+952550231
766+949988231+948711232+947296138+944334866+941164928+936604358+929737631
752+926662042+927438789+927087988+925902214+923216218+919438264+917450060
739+916173061+913797017+910541416+906848057+903119336+900150367+897390446
725+892451258+885648015+880218102+877643679+875558305+872198524+869915229
712+870129764+872209117+875203236+876815947+877211713+878418673+879328790
698+878283855+875650445+872669968+871788964+874053739+877372671+880591843
685+883053015+882867821+880878322+880689774+883566909+886922042+887068901
671+881070984+872095562+874125378+885719120+892051072+892162950+890797241
658+891223187+891836918+891937212+893351010+893894474+891349317+887403164
644+884750168+885453904+885895169+881354872+876773268+880385996+889487243
631+889877826+880301172+874660001+874564661+872391110+866815252+863349156
617+866577777+869505211+866573129+865038535+864899144+860775038+856618161
604+851257296+838172400+825152285
##END=
