##TITLE=Sample description
##JCAMP-DX=4.24
##DATA TYPE=INFRARED SPECTRUM
##DATE=12/9/2023
##SAMPLING PROCEDURE=Instrument type and / or accessory
##ORIGIN=Default
##XUNITS=1/CM
##YUNITS=ABSORBANCE
##RESOLUTION=4
##FIRSTX=4397.6552
##LASTX=599.8556
##DELTAX=-1.9287962
##MAXY=1.851493
##MINY=0.29322404
##XFACTOR=1
##YFACTOR=1.7243372e-009
##NPOINTS=1970
##FIRSTY=0.32365009
##XYDATA=(X++(Y..Y))
4398+187695357+187182456+186548313+186178778+185930001+186225909+186628594
4384+186348241+185907481+186294438+187165328+187101864+186630962+187175163
4371+188002845+188399481+188686021+188557243+187801909+187079309+186737911
4357+185868248+184403864+183911392+184648164+185484817+185927858+186242570
4344+186658442+187395404+188827693+190050611+189687107+188185841+186817950
4330+186049567+185870875+186425895+187033837+186694547+186077152+186203821
4317+187022793+187763419+187556675+186693044+186118148+185835513+185530393
4303+185378680+184933875+183866594+183305231+183769565+184644587+185819111
4290+187066260+187612881+187678195+188099338+188443691+188173069+188138830
4276+188610752+188120994+186415335+185392731+185635942+186167371+186465353
4263+186650146+187244123+187985907+187981258+187189128+186302354+186005201
4249+186453393+186919732+186480856+185841061+186024316+186156240+185570680
4236+185233534+186063169+186795499+185566619+184065214+184985086+187180624
4222+188146470+188156891+188340060+188407915+188129480+187698485+187527950
4209+187948990+188406031+188449637+188211472+188049095+188489164+189216620
4195+189022148+187836043+187064739+187064376+186819765+186270673+186183565
4182+186555606+186815047+186701167+186444907+186192673+185708947+185103857
4168+185173924+185975992+186303131+186053300+185974091+185607805+185043625
4155+185161065+185697678+186186054+186597069+186545928+186048357+185934702
4141+186427122+186891024+186794860+186248291+185702604+185032287+184139878
4128+183481642+183223394+183626545+184889941+185907827+185822326+185467464
4114+185379855+185164452+184813877+184850379+185293213+185214125+184558239
4101+184372391+184607877+184526178+184430740+184894590+185433779+185596156
4087+185786636+186024455+185857809+185328247+184782802+184493547+184710920
4074+185283120+185618711+185711125+185901847+185831002+185474360+185440865
4060+185606647+185532985+185377038+185569851+186002539+186005840+185297154
4047+184373947+184234643+185138769+185924367+185481809+184134486+183273343
4033+183641789+184605578+185376208+185772170+185814704+185707132+185592976
4020+185138147+184581226+184603469+184739247+184390936+184123528+184427231
4006+184905254+184998377+184830746+184827323+184688659+184219537+184189810
3993+184994453+185510880+184936986+184570372+185129523+185492646+185206883
3979+184923609+185022850+185108333+184882163+184543686+184141295+183957936
3966+184488449+185586253+186341811+185901847+184615257+183676736+183526786
3952+183805480+184444895+185045457+184819373+184255348+184445361+185057952
3939+185123214+184571893+183916076+183676633+183930473+184113659+183740495
3925+183300443+183435426+183608018+183514377+183871934+184811751+185212189
3912+184696264+183868910+182255077+179638793+178135816+179051539+181362945
3898+183779590+184399889+182640081+181168196+182010984+182316589+181368649
3885+181259850+181058897+181225370+182863900+182795683+180619830+178481811
3871+177685930+179625986+181191875+180746396+182026401+184481190+184090966
3858+179746814+172527801+170050285+177371546+183361350+184513890+182702007
3844+180177843+177965609+175910757+176071458+178739039+179965016+179820112
3831+180619502+181670934+181997884+180645271+177023355+175985041+178387219
3817+179839401+182534065+185331479+184544792+180886236+178356939+178610900
3804+177776616+177730711+180804555+182224416+182866372+184798961+186078258
3790+186197374+185920789+185660968+185741837+185446741+184906291+185877581
3777+187471728+187581304+186126202+184901953+185791060+187848418+189853287
3763+190446780+189164995+189145084+191107488+191374533+188793092+187610772
3750+191952972+195749536+197801778+204055896+210902159+213417975+213885248
3736+215676961+219491206+224656006+229709675+232814611+234304851+235216496
3723+236206590+238210974+240818185+242667140+243367099+245632254+254010634
3709+266105989+277204768+286286356+295292968+307547727+320311618+329322880
3696+334809617+336517869+334156722+332150954+333887620+334431873+330303572
3682+322666855+313773327+304426146+296359593+293949015+292786640+289930273
3669+290665006+293621184+294800946+294509203+293343717+291428169+290699399
3655+291978851+291038533+286808537+285928815+292151304+298757623+302354115
3642+304428670+306133499+307293108+308231456+308784938+307819317+306647299
3628+309744682+314092689+314641366+311441009+307806113+307710156+308705711
3615+307934424+307803175+309780113+313168998+317120179+319841027+320642594
3601+320778649+321155910+321388959+321987896+323528914+324115476+322559664
3588+321529265+322885282+324492910+325297000+325228385+324223186+323291060
3574+323611355+324619666+324600205+323498184+323529916+324925374+325956118
3561+326147687+325798494+325552414+325819580+326088889+326050174+326640055
3547+328092340+328673752+327756456+326839228+326791146+326851188+326100918
3534+325353379+325397831+325624416+325924213+326573618+326977599+326636633
3520+326010422+325781349+325647403+324831076+323893247+323828814+323976967
3507+323596561+323537728+324124567+324078455+323014976+322287174+322566162
3493+322739721+322069784+321349898+321244504+321289614+321159816+321203197
3480+321482012+321596117+321164206+320418118+319889282+319372199+318726148
3466+318409551+318572741+319075790+319548697+319430202+318753974+318006745
3453+317440508+316964940+316419685+316018331+315764231+315419359+315476463
3439+315832915+315507366+314722287+314282668+314204823+314282529+314275996
3426+313841804+312976323+312281740+312231514+312374966+312462489+312769994
3412+313040375+312999794+312824575+312623362+312386131+312272096+312214162
3399+311827119+311398249+311326593+311368902+311173428+310520566+309838738
3385+309771921+310234838+310844664+311352587+311342563+310676359+310237707
3372+310523539+310819845+310665124+310430866+310642034+311008821+311093509
3358+311346607+311884776+312129508+311792137+311232779+311121232+311741670
3345+312682057+312931144+312324879+312013226+312289068+312673622+313219327
3331+313497831+312968062+312330513+312041881+311725631+311515776+311559849
3318+311586500+311324450+310873285+310822541+311037753+310769447+309964354
3304+309142461+308729666+308747813+308998180+309067037+308842042+309337383
3291+310784933+311589265+311451379+311556461+312245860+313454242+314632137
3277+315034217+315030207+315111370+314943929+314349520+313859053+313784734
3264+313902503+314090719+314292554+314242017+313874124+313403291+313065643
3250+313403291+314328676+314825987+314402268+313371144+312427231+311722693
3237+310958388+310651229+311131360+311632439+311850071+312115336+312282051
3223+312275829+312180459+311961548+311774231+311725631+311766074+311695869
3210+311254625+310547874+310050183+309689721+309406205+309489891+309283597
3196+308755729+308835924+309173537+309022653+308540240+307855578+306757981
3183+305231551+303490668+302628194+303220979+303464639+302026941+300518347
3169+300796436+301566755+300622807+298817250+298419284+299208545+298920916
3156+297120302+295789864+296481959+297805794+297076229+294827216+294455693
3142+296705502+297345884+294240032+291218626+291520220+293190829+292048088
3129+288525621+287291987+290166035+292460815+289554758+284791743+283992907
3115+286949708+287407647+283098891+279405422+280187165+282566080+280700688
3102+275379370+272656240+274707808+277170651+274479408+269434762+268555558
3088+272484858+274832352+270841574+265654133+264967984+267552847+268019428
3075+264524977+261496295+261974300+264645909+265208896+262158869+259502937
3061+260211451+262872844+263003731+259740445+257051467+256967712+258114946
3047+258147093+256835131+255527438+254966231+255077777+254834583+253714588
3034+252502334+252054038+252329863+252369615+251782845+251307311+253570427
3020+264956888+285541218+298531349+292161571+277724478+266565933+259813916
3007+255525917+252440667+250102921+248495569+247385546+246104021+244829927
2993+244568533+245940693+247740840+247855550+246768721+246540771+248028366
2980+249888642+249315682+246792157+245388974+245954295+247599998+248014073
2966+245882552+243500111+243468742+246585863+249487236+247864209+244163498
2953+242499682+243802743+246483891+246465398+243297153+240777534+241159635
2939+244020098+245665248+243718313+240993749+240160069+241907243+244242517
2926+243188492+239727847+237860969+238594613+240255508+239796238+236943344
2912+234910892+235346864+237347101+238491984+237285036+235456510+234808782
2899+235390003+236425380+236302841+234784118+233643832+233858180+234911324
2885+235409706+234606497+233651696+233672505+234445261+235037665+234781491
2872+234057906+233650763+233952685+234724542+234957401+234096103+233057581
2858+232761413+232980860+233049509+232364553+230989922+229820461+229433090
2845+229616172+229844814+229913567+230027792+230230336+230322733+230218272
2831+230149778+230308820+230446222+230361292+230184967+229992431+229696626
2818+229282327+228868927+228558742+228433455+228507705+228672570+228893780
2804+229133414+229252928+229250128+229166701+228979004+228828397+228912809
2791+229117893+229143922+228960200+228794072+228722848+228574315+228277922
2777+228045945+228072838+228255713+228339244+228227801+227951457+227607812
2764+227454042+227545212+227600864+227456946+227215964+227061036+227090591
2750+227297628+227477202+227384079+227164529+227034195+227009117+227096813
2737+227132451+226992888+226798934+226631217+226594541+226719656+226817808
2723+226838098+226829457+226767911+226679040+226548862+226443692+226550970
2710+226790759+226847068+226650315+226517060+226628676+226792315+226819381
2696+226693748+226535623+226485777+226484464+226419634+226467941+226671902
2683+226722231+226681667+226693350+226462860+225978839+225598865+225412274
2669+225307865+225278103+225295006+225204528+224969163+224822808+224882228
2656+224841249+224512002+224187524+224108384+224119376+224016298+223808051
2642+223570025+223313211+223002197+222694917+222573933+222647526+222651207
2629+222440368+222089809+221707761+221490371+221450706+221375212+221195344
2615+220855433+220403957+220128218+220099079+220062714+219844599+219488769
2602+219122915+218875901+218739761+218697555+218760310+218733919+218536318
2588+218349935+218249190+218108832+217867470+217636996+217461380+217286214
2575+217167373+217200730+217251128+217125824+216898444+216633542+216328543
2561+216120158+215985054+215743139+215442305+215245707+215196605+215187531
2548+215117464+215005140+214747653+214394588+214266346+214240715+214010656
2534+213702943+213501160+213421034+213452058+213441170+213257569+213071496
2521+212992373+212931898+212922825+213007945+213017970+212844220+212707025
2507+212719037+212643284+212382081+212141686+212110455+212261840+212400435
2494+212385917+212364261+212507056+212731671+212983593+213284669+213560511
2480+213698622+213646409+213514416+213433375+213330383+213138573+212998854
2467+213022636+213148597+213287486+213427568+213600764+213780027+213891159
2453+213891591+213885041+214035233+214243947+214335998+214417800+214609040
2440+214828936+215014646+215136234+215181897+215239208+215339555+215418402
2426+215443152+215454075+215525680+215681351+215875236+216051733+216171386
2413+216180304+216161793+216301564+216542010+216692444+216718265+216733008
2399+216935604+217570265+219091701+222543394+229469436+241338777+259064752
2386+282292225+308975746+336515622+363528944+390345719+418140801+447589174
2372+478374068+509997170+541029562+568255434+587986659+599621049+605970951
2359+605278580+591482734+566393015+537937363+511747697+496692102+501176129
2345+520365071+530196013+521542620+509095290+499834215+495360351+497483300
2332+502545592+502820052+498553346+496329359+496578689+493644287+484758192
2318+471235734+457385238+451496110+455296753+457780336+449058881+430297529
2305+409082218+393182124+383438152+374974876+365110059+353613383+340079103
2291+325784840+312905427+301717051+291751748+283229536+276256586+270550367
2278+265751697+261571097+257793631+254409119+251592884+249219292+246999972
2264+244953554+243207763+241661785+240155679+238749385+237507680+236344442
2251+235294720+234425057+233627050+232958063+232494230+231945691+231189614
2237+230495687+230043589+229827081+229758898+229666432+229514529+229474259
2224+229548024+229541888+229386753+229203066+229176812+229384748+229742583
2210+230088319+230274720+230344994+230465614+230646000+230879965+231255256
2197+231669417+231925089+232049581+232151207+232289612+232574459+232935975
2183+233121028+233150496+233223829+233312009+233285358+233167900+233073326
2170+233108532+233223535+233252986+233234873+233188053+232908650+232446234
2156+232157758+232122742+232082783+231891681+231630892+231420191+231311513
2143+231388234+231637304+231911747+232238385+232639064+233027836+233402193
2129+233776585+234155540+234514325+234817147+235114801+235460347+235790994
2116+236074562+236280182+236343560+236434125+236705197+237024144+237261185
2102+237503567+237852293+238245455+238644389+239088709+239635347+240245242
2089+240832098+241455335+242208959+243131457+244217007+245492328+246914333
2075+248387272+249992204+251816669+253871140+256190963+258783483+261449820
2062+264156047+267236700+270696930+274279717+277853447+281478301+285270924
2048+289040077+292554490+295842786+299077538+302121343+304723593+307059818
2035+309171152+310838511+312019067+312743032+312942240+312758795+312443304
2021+311917718+311155142+310185546+308937688+307406072+305673659+303951096
2008+302209038+300330477+298528342+296974569+295549695+294087938+292597457
1994+291140229+289808754+288719194+287791027+286870585+285964332+285172928
1981+284503163+283909394+283423922+283098131+282895518+282670489+282359527
1967+282120982+282160855+282445218+282749785+283024141+283397668+283895654
1954+284468078+285067223+285555235+285854254+286099678+286532488+287397640
1940+288542265+289527104+290349757+291198370+292042385+292830989+293550703
1927+294085484+294393439+294643736+294756320+294782383+295466355+296688564
1913+297359676+297380762+297456498+297811498+298171475+298394845+298497474
1900+298579984+298686968+298825062+299010582+298929799+298700588+299027036
1886+299701363+300198466+300730724+301386766+301765686+301765306+301687185
1873+301357833+300312260+299328215+299913084+301420503+302341913+302356223
1859+301895864+301463677+301172867+300926061+300744413+300449870+299363853
1846+297464241+296674461+297566627+297927123+297315638+296878612+296535814
1832+294994727+292895042+292502364+293190276+293517622+293678150+293839715
1819+293946768+293745763+293021072+291928107+290994323+290884746+291215204
1805+291335772+291208913+290613328+289967588+289908479+289298221+287822240
1792+287910489+289967277+291535395+292215115+292415187+292218156+292347678
1778+292839769+292308030+290159295+288652152+290725255+294233499+296204596
1765+296372486+295995087+296596997+297704687+298467954+299171490+299279822
1751+298446108+298046966+299271042+301122745+302073986+302003609+302447480
1738+303228721+302633725+302813506+306098622+309327048+311489748+312879813
1724+313701083+313755906+311951801+309358503+310351985+314858169+318670875
1711+320615805+320628733+319709674+319807947+319830657+318520337+318926773
1697+321991249+326849909+331903699+334544422+335571502+335077579+332724209
1684+333883195+340474166+345382326+346801427+346979100+348476080+350104586
1670+351755803+356403261+361469564+363906654+366312324+370851069+374783412
1657+375238448+372459942+373922632+381340472+384824242+387473953+394740806
1643+402235557+406389126+407207528+405829630+407771760+415310204+421038804
1630+423246752+424523923+425860375+427331464+430207725+432455251+432374849
1616+434115490+439261158+443273798+445398924+447418346+450236154+453391367
1603+456582219+460067407+463824772+467515735+471372791+475786613+480505866
1589+485435250+490669892+496173429+502088068+508173708+512798179+515740220
1576+521276491+529210413+534413807+538944879+546492898+554966820+562246981
1562+566617387+568135246+576232668+591875066+605154348+616810515+627694185
1549+638021125+647096266+653843547+657452794+662055557+677036073+693805969
1535+704720404+714972610+727206732+737710860+746443238+754559430+761490882
1522+770013163+781107138+792144976+804360363+816717820+826300538+832164986
1508+834622125+842781110+860096537+873549066+881209876+885825498+891509854
1495+899536656+905995513+910531977+915916432+923171636+930100185+935686855
1481+940498124+944258082+946843118+947686753+947434969+951381380+958794900
1468+962627586+962630075+963551831+965102423+963777413+959060510+956935142
1454+959895158+961868087+960917433+957784653+954625672+952302721+949123276
1441+944302258+937956642+930487194+925296658+922317769+918782702+917862053
1427+919166531+917409920+915148705+914768264+915550578+922997281+935177549
1414+942370464+943930252+945731799+947868090+947577038+947958655+951362645
1400+955951927+961995638+967968971+970799707+972621026+974356551+974717012
1387+975457708+977194684+978189859+979374253+981769448+983846423+984785669
1373+985878184+987596564+989407997+991983839+993537404+990861181+986954038
1360+985719108+986098167+987968640+990360448+990283848+988802043+987769052
1346+985206415+981358589+978449317+975819967+972879308+969698550+965816157
1333+962557692+960845051+960200382+961441395+964613443+967618050+969532561
1319+971956032+974874913+975369286+975017673+977958055+982934415+987709736
1306+992412811+996244322+998164433+998256726+997644619+998279333+1000918708
1292+1003966315+1006844892+1010866727+1015338275+1019787009+1025080553
1281+1029872742+1033757210+1037584711+1040300409+1041959956+1043812800
1269+1045542794+1047060895+1049150797+1050845741+1051427291+1052472104
1258+1054236665+1056027911+1057857665+1059660180+1061313643+1062153683
1246+1062841975+1065014077+1067667141+1069604051+1070869192+1071249011
1234+1071708679+1072552590+1073240398+1073741823+1072765521+1069843875
1223+1066410779+1064571624+1065969155+1069213102+1070867809+1069174110
1211+1065709836+1062862784+1061406144+1062090564+1065717717+1069043932
1200+1066792119+1060462680+1055575571+1053958334+1053975202+1054598855
1188+1056348413+1056729269+1054222562+1052798206+1054187926+1056321590
1177+1057620468+1056567843+1052202829+1047177868+1044875104+1044469498
1165+1043254479+1039996568+1036334019+1035466118+1036190152+1034719408
1153+1032493589+1033258550+1036728701+1039471914+1038950026+1036081474
1142+1032658265+1029817297+1029580308+1031759946+1033298579+1032995152
1130+1031623753+1029963445+1027496835+1023911439+1021793606+1021851056
1119+1022612284+1024307296+1025222139+1023849979+1022351305+1021997619
1107+1021591391+1020198422+1019674114+1022242213+1025735454+1025796015
1096+1024291119+1025483601+1026937200+1027484183+1029577335+1032123587
1084+1033993508+1034992070+1035012396+1036864756+1042117096+1047212297
1072+1047439607+1044289959+1044728610+1048088079+1047364943+1045661704
1061+1045776604+1042023628+1036978480+1037605658+1041034053+1040640476
1049+1038479781+1040885208+1046723316+1051391272+1053086838+1051586367
1038+1049269707+1048216598+1047449770+1047273895+1048886086+1047930109
1026+1038767169+1028825440+1029691544+1037354497+1041136508+1040876705
1015+1041112173+1043019149+1043147530+1039174710+1035445240+1034765658
1003+1035024356+1034092092+1032542259+1033442998+1038140543+1043571179
991+1045355236+1044427327+1045483478+1047814656+1048447019+1048236162
980+1047925062+1048290225+1050738930+1053779970+1054826027+1053663895
968+1051980358+1052015063+1055063638+1059466814+1061197084+1058865353
957+1057826555+1062709792+1068387441+1069424097+1069001139+1067762890
945+1063848350+1062550301+1065989273+1067653245+1065922421+1066193078
934+1069556833+1069942943+1065827847+1065122893+1069425479+1070914060
922+1067408996+1064005628+1063106549+1064321430+1065776895+1064945428
910+1065151445+1068856028+1071184786+1070139282+1067520440+1063571263
899+1059629554+1059227750+1062682968+1065586364+1065152828+1062865964
887+1062327346+1064859080+1066585618+1063373957+1058329016+1057049080
876+1055845952+1049924884+1044979910+1044806593+1045111056+1043400143
864+1040526475+1037714267+1037259853+1038585209+1039639701+1040664535
853+1039610319+1034411834+1027391683+1023375033+1026810271+1035233761
841+1040505666+1039978109+1037029155+1033754444+1031250433+1032215604
829+1035253878+1033983691+1028340608+1024761019+1027832408+1033214374
818+1030969613+1025226218+1024663610+1024465059+1020560266+1018459994
806+1020162542+1019738892+1016963947+1017029278+1019013960+1020916511
795+1020553007+1016227054+1012245109+1009986452+1006433410+1003485769
783+1003498905+1003481068+1000731633+995496506+991458563+992482221+993644561
770+990025082+986789777+986537164+985516409+983217517+980642159+977802021
756+979305327+985052732+983552399+973979566+967187694+964097017+961622940
743+961569845+962884970+960609306+953739520+947036761+943331626+940354050
729+936880235+932901055+928679839+927390709+927734578+924322499+918891103
716+914774417+912775632+914866710+918604545+919647699+920292161+923779042
702+928927198+933717382+935388821+933243404+932408203+935680356+938934465
689+936458867+930006440+927577369+929093257+928139354+925301705+926681538
675+934140479+943595992+950683755+949452697+937454181+931825340+936062664
662+940973485+940915275+939509724+940929931+943534048+945346933+942613191
648+934478334+929693404+932012898+934678337+934641627+938230618+947820664
635+954756265+948172830+921839366+887113246+874620980+892903445+915495271
621+926714792+937905345+943877641+929284964+905288209+896475153+908380407
608+918766663+910052260+901970704+907658931+913076777
##END=
