##TITLE=Sample description
##JCAMP-DX=4.24
##DATA TYPE=INFRARED SPECTRUM
##DATE=12/9/2023
##SAMPLING PROCEDURE=Instrument type and / or accessory
##ORIGIN=Default
##XUNITS=1/CM
##YUNITS=ABSORBANCE
##RESOLUTION=4
##FIRSTX=4397.6552
##LASTX=599.8556
##DELTAX=-1.9287962
##MAXY=1.7481914
##MINY=0.16644545
##XFACTOR=1
##YFACTOR=1.6281301e-009
##NPOINTS=1970
##FIRSTY=0.16923992
##XYDATA=(X++(Y..Y))
4398+103947422+103056398+103000953+102765537+102231051+102509300+103349116
4384+103822016+104021876+104015158+103974329+104362625+104962816+105181913
4371+104852595+104740872+105467136+106421585+106760560+106493367+106376593
4357+106571940+106600724+106719750+107042387+106852001+106126423+105580881
4344+105779532+106692567+107129416+106290158+105301562+105257374+105587425
4330+105531715+105482036+105831014+106129919+106238228+106737706+107644710
4317+107797023+106710451+105742804+105820525+106544162+107409404+107571428
4303+106667737+105548171+105064398+105622579+106575143+106905935+107013365
4290+107704292+108771617+109411958+109509668+109656508+109765174+109293381
4276+108486165+108458735+109569625+110360532+109820197+109050387+109163427
4263+109772898+110201748+110407135+110398331+110040201+109456365+108980719
4249+109048456+109552510+109399786+108576562+108660178+109633362+109813782
4236+109004598+108511819+108848194+109651703+110587866+111062633+110896610
4222+110595353+110449181+110615543+110842841+110491209+109818852+110009769
4209+110947845+111322330+111214040+111022134+110621565+110631651+111202005
4195+111316894+110717719+110536439+111065956+111406861+111160948+110699488
4182+110519526+110367744+110367067+111082430+111703433+111518968+110939050
4168+110577881+110725160+110870737+110742019+110737104+110961217+111529237
4155+112306525+112406367+111873556+111704851+111882644+112061499+112535525
4141+113022520+112958142+112693036+112620321+112739905+112998010+113022639
4128+112543048+111875734+111488372+111527809+112038856+112755391+113030555
4114+112985919+113220127+113398085+112957410+112579822+112868504+112986258
4101+112569205+112537831+113465583+114667429+114877291+113886791+112920846
4087+112894872+113640612+114573801+114818131+114278849+113973528+114330761
4074+114932736+115026813+114595244+114528725+114747081+114516516+114032112
4060+114067513+114567449+114877044+114972247+114921662+114710737+114545319
4047+114550471+114930906+115443444+115466453+115056375+114676224+114600278
4033+114859261+115198876+115351326+115350274+115300540+115148539+114848581
4020+114545071+114516196+114738826+115000610+115439006+116048577+116554261
4006+116891359+116782977+116143935+115509826+114926869+114278538+114125090
3993+114630234+115435821+116388952+117050573+117076520+116771720+116311011
3979+115770795+115450693+115390407+115411878+115549099+115814992+115928874
3966+115743018+115870565+116980805+117956844+117515135+116563642+115862492
3952+114803386+113770831+114031599+114771436+114867901+115483275+116725126
3939+117294940+116737015+115126875+113994880+114765908+115765176+115326267
3925+114673323+115014430+115232520+115101953+116106704+117985152+118642316
3912+117786163+116263584+113373319+109499583+108202736+110572902+114091821
3898+116983642+117099282+114084316+112391074+114337497+114458344+113008407
3885+113969217+114043149+114267381+116832125+116350750+113292174+111012634
3871+110553115+113439719+114700789+112860377+113954033+117217932+117248080
3858+112225490+104276566+104713562+115718060+121190101+120026531+116229711
3844+112440972+109377198+107330237+109303082+113949301+115906488+116291736
3831+117223652+117747641+117819075+115687866+111054213+111181421+114637180
3817+115869686+119134464+122370110+121302419+117433533+115431455+115683839
3804+113728072+114438520+119261425+120641091+121137640+123007843+123518853
3790+123059764+122469083+121941150+122306199+122173545+121684885+123663094
3777+126069174+125566730+122880818+121385403+122896953+125028143+126766004
3763+126604996+123834617+122994362+124597143+123251276+118289009+116388778
3750+121279336+123231214+122302501+127514114+132603909+130619495+125854891
3736+124900222+129934517+137094365+141597323+142141538+141833407+143677232
3723+147139014+151457625+155781701+158188285+157557781+157056180+162786829
3709+172042585+178771166+182518362+186518181+194799856+204639236+212000224
3696+216953879+219223104+219857323+224675798+235309178+243697752+247321630
3682+248647215+248704527+247462539+249970200+259149827+264755200+268141831
3669+276948904+285916270+291619426+295922552+299106203+301273875+305190242
3655+310384182+310855270+308332635+313587895+327188713+337881913+343695501
3642+347922663+352120061+355885617+359530142+362844416+364130939+366374244
3628+375501556+384578860+388284413+388611371+388871955+392969374+398602442
3615+402508394+406141827+409939379+414109650+419816376+424739370+427178023
3601+429263287+432733186+437188204+441926138+445351594+445970950+445359172
3588+447531419+452873370+457295440+459367707+460318340+461054699+461888292
3574+463483394+465197550+465071907+463952505+465543800+468979360+471581400
3561+473616838+474957579+474868473+474180621+474627291+475874459+476486163
3547+477124702+478228617+478954250+479458103+480069294+480695496+481161642
3534+481061845+480365171+479822109+480375348+481227538+481044163+480445491
3520+479923626+479961663+481028055+481532420+481103909+481360357+482008890
3507+481672304+480728627+480403976+480349575+479362443+478040006+477511698
3493+477008284+475870907+475280400+475799263+475941014+474930232+473914655
3480+473692217+473723957+472807481+471009051+469658791+468741985+467783225
3466+466791846+465623205+464591593+463916225+463212009+462348836+461589597
3453+460832956+459501258+457589412+456123138+456149423+457302652+457534425
3439+455778315+454015835+453774654+453721424+452594627+451188026+450368418
3426+449317695+447629386+446626365+446735973+447103494+447130035+446719902
3412+446213156+445174295+443661527+443058097+443228989+443483350+443577839
3399+443202667+443177297+443674743+443907798+443727717+443145373+442878199
3385+443445862+443667824+442860956+442206968+442358164+442193532+441051763
3372+440054746+439630371+438825260+438313829+439187472+440194520+440291315
3358+440338285+440788505+440966609+440861175+440716056+440135689+439591419
3345+439698794+439568172+438592206+437851271+438180681+438753543+438619223
3331+437958207+437171949+436100616+434456567+432993368+433241725+434477251
3318+434528687+433734669+432573826+430102883+427277673+425834756+425534706
3304+425158619+424577850+424909127+426535201+428054156+428116135+427121388
3291+426574190+427391016+428651253+429401596+430190892+430712318+430066164
3277+428886614+428283696+428718834+429866754+431117216+432079271+431935250
3264+430523011+429180184+428229844+426750170+425179267+424940062+425816854
3250+425921959+424597582+423013353+421862760+421043116+420598459+420298703
3237+419707573+418855858+417704314+416589269+416488886+416854723+416151898
3223+414947893+414892320+415644896+415959333+415516288+414069929+412144282
3210+411356304+412367123+413719652+413337634+411467047+409789903+408987355
3196+409144336+409791148+410305838+410559028+410364596+409847270+409255957
3183+408518683+408051879+408119679+408113126+407866233+407510684+406652929
3169+405821386+405659353+405023231+403672166+402806247+402150721+401401293
3156+401329722+401521591+400928228+399993704+399669748+399505922+398753418
3142+397943292+397536197+396886529+395870658+394998150+393722097+391852865
3129+390750780+390771024+390483532+389290509+388149398+387336819+386280825
3115+385063970+384167738+383760533+383300867+382119047+380293416+378278186
3102+376774278+376070062+375393742+374014159+372222501+371036105+370680922
3088+370203647+369033688+367574992+366436261+365826423+365526374+365048733
3075+364296266+363544348+362508892+361292036+360453794+359681924+358778774
3061+358058633+357357602+356413376+355630231+355297379+354897460+354365051
3047+354086272+353644947+352680842+351878074+351666143+351246674+350196757
3034+349126229+348337336+347695209+347112756+346509911+345935914+345987570
3020+347151525+348645476+349323662+349071608+348647636+348711922+349163790
3007+349782743+350972324+352992497+355205856+357329633+360259728+364815202
2993+371178734+378809460+386278848+392362576+396834983+400077356+402692429
2980+405314897+407737405+408405597+406444695+402984900+399016822+394448572
2966+389733957+385907557+383192431+380966734+378765931+377012640+376454898
2953+376808031+377204693+377884124+379593154+381981433+384220639+386125528
2939+387807871+388947517+388837286+387354794+385344982+383309800+380696155
2926+377354351+373879620+370046410+365485335+361046132+357394980+354255150
2912+351590362+349280281+346631417+343878071+341949898+340620396+339015848
2899+337080243+335352432+333981855+332940175+332563868+332708511+332586383
2885+332059941+331699084+331540090+330994685+329788593+328146338+326438442
2872+324796956+323017197+321146646+319499413+318074909+316734425+315323321
2858+313521010+311303477+308806835+305880784+302481266+298976259+296045504
2845+293781496+291461859+288926778+286569178+284450453+282541792+281048336
2831+280078007+279261859+278278497+277156533+275830857+274490811+273597875
2818+273022963+272197534+271032682+270038521+269464762+268972349+268420574
2804+267979982+267579165+267113587+266592985+265929771+265075238+264044504
2791+262956477+262013733+261055962+259929732+258978660+258241954+257364558
2777+256447734+255712107+254900004+253814356+252662025+251561129+250549670
2764+249872582+249591807+249365525+248901667+248265948+247569877+246901850
2750+246524683+246388295+246055627+245489574+245010597+244550254+243882922
2737+243221813+242741445+242357926+242094742+241842248+241470005+241199920
2723+241171145+241099263+240740931+240282565+239998642+239915759+239848105
2710+239629804+239372367+239196094+238956266+238575988+238229902+237945887
2696+237526986+237079767+236812849+236495868+235970872+235474927+235030820
2683+234415491+233674922+232971384+232313351+231706644+231114141+230450726
2669+229805817+229308773+228867321+228326382+227683285+227029645+226460353
2656+225958550+225436813+225020108+224882951+224880901+224704792+224257482
2642+223814876+223620481+223543729+223494948+223519146+223467143+223208627
2629+222925198+222809457+222729832+222524967+222372251+222575854+223026550
2615+223244009+223156239+223186588+223478400+223720625+223730711+223674516
2602+223720973+223797102+223732999+223604263+223550795+223465678+223278093
2588+223003102+222651031+222350926+222187795+222019741+221660897+221145182
2575+220627344+220140807+219644495+219217485+218892797+218421306+217734022
2561+217160831+216841470+216532470+216030666+215519747+215351839+215444204
2548+215421305+215236172+214987851+214717693+214574441+214560621+214510522
2534+214476859+214676105+215022777+215185560+215125466+215082724+215219771
2521+215424929+215525312+215659796+215955196+216238204+216426724+216631534
2507+216790601+216768068+216721776+216853917+217041796+217104764+217157884
2494+217278932+217318708+217311862+217342614+217309135+217247210+217283289
2480+217341388+217323358+217204890+216940407+216680462+216545722+216326616
2467+216016810+215855308+215760453+215511931+215201796+215023600+214929624
2453+214763931+214543708+214407887+214340215+214194876+213942931+213708797
2440+213566405+213426613+213245012+213066158+212852030+212572336+212289309
2426+212037639+211836837+211778079+211884228+212028432+212139889+212219111
2413+212177633+212007583+211899457+211991420+212215743+212391303+212466663
2399+212577205+212734350+212795176+212807495+212852067+212718040+212306095
2386+211674127+210532101+208509110+205579069+202016182+198221431+194382400
2372+190408593+186274125+182235117+178693481+175866862+173843632+172984358
2359+173903617+176838838+181173320+186440203+191537238+193640587+191448826
2345+187282106+184753047+184196183+184486037+185327794+186153077+186623249
2332+187166806+188316959+189966591+191490122+192688654+194201056+196401822
2318+198675898+200401073+201615823+202670463+203843442+205123394+206250025
2305+207128263+207947853+208747784+209383888+209890981+210377866+210800246
2291+211093779+211379404+211793492+212188945+212306040+212113292+211828728
2278+211665249+211639019+211665561+211682035+211619872+211458993+211322202
2264+211300200+211362582+211437723+211398258+211295551+211326046+211432836
2251+211491667+211510740+211487127+211475504+211534701+211652784+211813169
2237+211901398+211839638+211789629+211878755+211971358+212004874+212114830
2224+212227989+212218287+212224291+212300896+212348122+212403311+212560657
2210+212766328+212896986+212961053+213114482+213407539+213621319+213635121
2197+213719194+214056274+214363609+214406771+214382316+214465785+214626353
2183+214891734+215151293+215127955+214904913+214800778+214810754+214796861
2170+214868871+215140567+215413562+215464541+215399706+215426925+215565344
2156+215728091+215872642+215999731+216160190+216411128+216669736+216856553
2143+217043517+217214171+217289329+217456744+217864223+218217850+218313968
2129+218391891+218612956+218800011+218851593+218971562+219212176+219330259
2116+219289678+219281972+219375691+219481382+219503897+219493537+219561392
2102+219727122+219948535+220125449+220247157+220443620+220730820+221049705
2089+221350871+221598240+221889174+222243259+222496833+222666626+222914709
2075+223183165+223393778+223624581+223815974+223883720+223956554+224145110
2062+224418892+224777352+225195668+225515614+225671240+225763715+225928201
2048+226269454+226686745+226952583+227143482+227485156+227893606+228259314
2035+228646201+229046907+229443294+229884454+230397991+230879714+231211503
2021+231471630+231812316+232392189+233241725+234079803+234712246+235277054
2008+235895402+236511189+237107608+237803807+238618656+239397225+239978983
1994+240297740+240701448+241600078+242729126+243712853+244500593+245190495
1981+245930185+246701030+247353864+247861781+248348556+248687320+248686222
1967+248790705+249374806+249992953+250350552+250609911+250759112+250736615
1954+250630888+250505117+250332504+250028171+249457085+248731123+248576174
1940+249137870+249528400+249504805+249436547+249456993+249516062+249534605
1927+249286632+248686570+248323827+248350844+248394409+248976167+250029178
1913+250550421+250568103+250813092+251539969+252413795+253117224+253615604
1900+253961672+254276603+254842289+255624556+255987775+256218194+257383430
1886+258988655+260220758+261327383+262408875+263319293+264186731+265062260
1873+265267528+264453246+264334394+266525697+269377467+271246480+272437562
1859+273567709+274790275+276048096+277232790+278102736+278471263+278264037
1846+277843140+279072296+282179617+284585578+285856102+287104057+288154524
1832+287999721+287687701+289126664+291316740+293509965+296005417+298042448
1819+299381743+300591844+301685820+302263002+302998299+304765264+306787266
1805+307985286+308191287+308234119+309303806+310890305+311320244+310837075
1792+312239283+315919283+318692837+319771383+320244228+320696792+321664448
1778+322988385+323047107+321343128+320288745+322382502+325897467+328595973
1765+329438059+329119046+329710066+330923224+331992397+333006547+332577011
1751+330853996+330627128+332513640+334417541+335162613+335138012+335895860
1738+336937357+336181266+336083373+339562644+343489098+346776719+349145302
1724+350577420+351252971+350053798+347937379+349734565+355747124+361258246
1711+364576510+365508728+365363865+366264966+367022594+366897098+369073555
1697+373739955+380617738+388019399+392608114+395746260+397883070+398887921
1684+404764843+416012783+424932996+430374817+434632108+439801044+443965384
1670+447494517+453895318+460289638+463950931+467831806+473710229+478727382
1657+480304253+479230064+484303485+495575954+501833978+508406732+521070463
1643+533645159+542933625+549394355+554692009+565932920+583664178+598485439
1630+610496682+622967189+635960842+649837584+665663183+679305333+690081050
1616+703910273+719159862+730321221+738791287+746196902+752262472+756688898
1603+759586960+761066927+761406514+760959076+759646487+757115762+753220536
1589+747934012+741762202+735702051+730078575+724222557+717131416+707940221
1576+699713899+696408595+693522833+689881237+689807506+692159504+693792717
1562+693234572+689779829+692051873+704520183+716666698+727684549+738825700
1549+750229266+760241534+768744914+777583636+790830551+814463003+836600552
1535+851406364+865323449+878759562+887525577+893669710+899578372+902980032
1522+903785875+905828965+908922667+911114171+911606858+908734862+902679396
1508+895940143+895965989+904515424+909633839+908727613+906507993+909481105
1495+916050125+919009618+917869898+918839751+926255909+935466800+942368452
1481+947359832+951195239+953132674+952333567+951112209+954979172+961974544
1468+965291416+964485646+964741399+966530127+963716266+955276000+953291851
1454+960351069+963893748+961576747+957458791+954339462+952628784+950651152
1441+945855411+939026246+932941786+929318860+926453892+921897649+916177232
1427+912107527+911390132+912860067+914716376+918022778+924002170+930917733
1414+937401380+942838002+946191338+947522963+948921071+952386504+956968373
1400+960070862+961511070+962299707+964153673+969667541+975916157+977692365
1387+975085273+973178077+974071123+976451677+979442874+981817644+982362756
1373+982629637+983903127+983686839+981319977+979176724+977711109+977300939
1360+977771661+977166583+976355248+976891867+977315949+976630111+975670509
1346+974519367+972831534+969620901+963858090+957852340+954386322+953048546
1333+953514216+955911757+958333825+958843207+958473453+958776871+959969454
1319+961834330+963143917+963446236+964375818+966444462+968811177+971402381
1306+974093748+975919671+977009749+979113244+981923225+983453419+985087949
1292+988277055+990720065+993147552+998744303+1005959330+1012314845+1017722253
1279+1021994627+1024994537+1027038286+1028321148+1029369125+1031412141
1267+1034251043+1035746092+1035095912+1034007592+1034564126+1036829287
1256+1039801740+1042378812+1042280700+1039350641+1037298105+1038303176
1244+1040021615+1039700918+1038740511+1040063350+1042854586+1044044827
1233+1043485657+1042819808+1042146856+1041886564+1042654700+1043018010
1221+1042257929+1041633155+1041111839+1038999851+1035760516+1033973545
1209+1033315823+1032274289+1031554258+1030857145+1029494768+1028249247
1198+1027290670+1026266855+1025151225+1024244999+1023804077+1023407086
1186+1022650592+1022219335+1023279613+1024840046+1024817495+1024405933
1175+1025564250+1026614717+1025870231+1025186662+1025841529+1027219868
1163+1029567840+1031705308+1031968822+1031678144+1031592186+1031565607
1151+1032416187+1033511975+1034305371+1036122655+1038929195+1041472806
1140+1043177041+1042992750+1040815670+1038974663+1038932270+1039510916
1128+1040343703+1042441341+1044777744+1046271622+1046781077+1045332960
1117+1043012153+1041221154+1039170596+1037889858+1039143286+1041783399
1105+1043972194+1045880049+1046596566+1042933955+1038358163+1038314232
1094+1038052696+1034916746+1034413149+1037945943+1043600024+1048859092
1082+1050094069+1048393056+1048123685+1048717121+1048672897+1050711520
1070+1053234997+1052264193+1050395582+1050099487+1049850470+1049442424
1059+1051128500+1054546707+1054586465+1049922005+1045479910+1043837618
1047+1044893137+1047943933+1049889130+1048586133+1045625249+1044248521
1036+1046796599+1050689628+1050443687+1046672274+1043279254+1041249343
1024+1042268692+1044297943+1040909317+1035431692+1034916380+1035299752
1013+1031820334+1029092651+1031027597+1035580033+1039595849+1041247440
1001+1039310663+1035330138+1033920022+1036099372+1039196516+1041950850
989+1043340831+1043539253+1044857260+1047552141+1050121818+1051539329
978+1051989477+1053207760+1055316160+1055971173+1054058266+1051842088
966+1054585366+1062339868+1065933945+1064285870+1065263923+1066449550
955+1064437066+1062945604+1061823164+1061820382+1065596628+1070474519
943+1073365260+1073741823+1072366266+1071120893+1070258012+1069196343
932+1069214868+1070858477+1072214704+1071822033+1070616929+1070771128
920+1071820935+1070665400+1067680061+1066088949+1064902882+1062323759
908+1061978461+1065591210+1068879307+1068319844+1066296011+1066509882
897+1066150453+1062266576+1058919757+1060324088+1064166377+1064060283
885+1059115470+1054203092+1052315665+1051781316+1049697078+1048246985
874+1049393440+1048647929+1043984861+1039954840+1039437478+1040045045
862+1038241014+1034624018+1032172955+1030536887+1028317267+1026632875
851+1026765986+1027174912+1025322044+1022458320+1021200426+1021140533
839+1019805686+1018533661+1022651837+1029262738+1030468940+1026797177
827+1021296050+1016174999+1014605633+1015294034+1014910442+1013134673
816+1010220209+1007495528+1007604331+1009890946+1011666495+1011742349
804+1010569462+1008944523+1006345778+1003662904+1003840899+1007265183
793+1009756883+1007027149+1001171497+996942835+994746718+992231076+988936535
779+986830697+987131259+989137959+990557666+988922477+984867342+980018445
766+974253950+968771713+965290830+962910423+960598548+957856075+954741065
752+953618479+954147410+952983162+949915452+945362431+939061391+934512250
739+934030619+932995821+929275148+926584514+924716782+921295720+916131617
725+909123359+902272667+899000824+898687156+898516996+897837309+896418919
712+896383774+899988689+903023816+902037343+901167727+903411142+904728417
698+902538158+900539512+900544564+900739764+901141514+901916972+901642476
685+901400781+900768612+896387289+891936188+892744374+895893064+897025608
671+894029433+888483349+892564842+903545645+905152718+899782066+897386282
658+899289086+899417657+898032656+898720544+898757885+896879464+894391059
644+892983872+895695447+900304407+901907307+900318172+900571655+903627869
631+904099250+902336294+900284345+893866521+879011946+862036010+856344515
617+863366977+874431468+884059924+884383623+875798971+872125011+873983371
604+874045533+873253455+872224735
##END=
