##TITLE=Sample description
##JCAMP-DX=4.24
##DATA TYPE=INFRARED SPECTRUM
##DATE=12/9/2023
##SAMPLING PROCEDURE=Instrument type and / or accessory
##ORIGIN=Default
##XUNITS=1/CM
##YUNITS=ABSORBANCE
##RESOLUTION=4
##FIRSTX=4397.6552
##LASTX=599.8556
##DELTAX=-1.9287962
##MAXY=1.8472633
##MINY=0.21179907
##XFACTOR=1
##YFACTOR=1.720398e-009
##NPOINTS=1970
##FIRSTY=0.22491124
##XYDATA=(X++(Y..Y))
4398+130732096+130642987+130896837+131371355+131410773+131253343+131275490
4384+131129692+130700880+130743538+131528223+132377098+132929829+133464493
4371+134318504+135025868+134775041+133883170+133372473+133251438+132376336
4357+130824878+130573392+132091590+133283373+133213224+132850282+132627613
4344+132584869+132696299+133082297+134273958+135773543+136283244+135437340
4330+134153330+133404711+133106462+132833141+132631225+133282966+134980274
4317+135975797+135513405+134476887+133092821+132411034+133232435+133873842
4303+133500594+133357723+134064853+134658683+134040003+133137566+133355349
4290+134102167+134792797+135677513+136484250+136675080+135798358+134540593
4276+134239823+134471942+134082869+133335549+133296971+133769532+133483054
4263+132682198+132598502+133423342+134476454+135050449+135053914+134891113
4249+135198318+135889823+135685109+134721435+134405023+134372508+133756566
4236+132945039+132740819+133230980+133485072+133539024+134103189+134509879
4222+134320115+134255319+134722518+135323277+135672827+135927457+136354095
4209+136963004+137156986+136513500+135652689+134970435+134551489+135008649
4195+135788744+135482059+134930376+135339941+135568569+135050761+134907986
4182+135332328+135335238+134669259+134183593+134325936+134521312+134288353
4168+134417634+135567695+136436820+136027350+135140745+134380018+134156890
4155+134801138+135464511+135645449+135861829+135906245+135436872+135325563
4141+136083372+136702718+136400425+135902685+135847884+135454195+134668592
4128+134683983+135282568+135577785+135726892+135855801+135920060+136207560
4114+136612076+136543815+135907354+135311679+135210990+135471457+135813819
4101+135944910+135788493+135741573+135836650+135768961+135637108+135714420
4087+135984181+136241600+136351072+136125423+135883223+136002127+136131746
4074+136154197+135882530+135274547+135094952+135428514+135633712+135458465
4060+135148090+135069176+135328422+135847832+136424244+136743661+136754757
4047+136920684+137404617+137645891+137384809+136922105+136483835+136091548
4033+135864791+135835438+135740188+135857888+136691502+137371712+136831428
4020+135738074+135098087+134995986+135154335+135194360+135155080+135682277
4006+136716863+137134189+136557769+135684910+134957694+134652732+134810354
3993+135067123+135510780+136234454+136719998+136697418+136263981+135704537
3979+135738299+136357317+136639169+136322974+135867061+135705256+135809774
3966+135717928+135680294+136413339+137132483+136746346+136031862+135850257
3952+135647380+135041918+134685369+134443437+134193450+135257008+136795595
3939+136773353+135527020+134000802+133273118+134108559+134875046+134118034
3925+133268882+133561657+133652108+133458750+134609009+136611375+137399169
3912+136839188+135947179+133894525+130240333+128045579+129105526+131697009
3898+134469170+135178552+132760498+131154888+133261433+134248840+133196905
3885+133550899+133370334+132827815+133805702+132872282+130433050+128691256
3871+127823335+130081612+132280523+131753525+132608220+134870343+134547262
3858+130173700+123340379+123110504+132151874+137607321+137709232+135039891
3844+131548621+128290525+126025735+127128625+130736894+132562730+133102106
3831+134071046+134343631+133663169+131573375+127902960+127953811+130721364
3817+131495188+134401056+137852380+137079778+133235241+130644148+130321309
3804+128667108+128648426+132107311+133897081+135130256+136867962+137216525
3790+136795058+136228469+135641663+135851132+135423239+134215675+135311263
3777+137568969+137709882+135550935+133535863+133840599+135121318+136461358
3763+136474844+134195780+133089512+133845969+132158760+127250700+124715992
3750+128499959+130469506+129519119+133038990+137003722+135541875+131220646
3736+129052933+132047339+137681559+141253216+141398521+140696458+141593335
3723+143834704+146978278+150168433+151826565+150888217+149187332+152421002
3709+160613982+168522727+174464022+180582964+189172916+196859045+200384779
3696+200421227+197261924+191251182+186735806+187408299+188307411+185728253
3682+180726917+174777082+168014837+163372709+164426861+164531526+162923491
3669+165573015+169165564+170184169+170229884+170033356+168689079+167402194
3655+167139579+164327531+159054607+159082497+166141657+171827820+173605585
3642+173386675+173149593+173128945+172618646+171262278+168250463+165512731
3628+168727917+173313815+173531460+170749797+168260476+169101105+170907938
3615+170966524+170586407+170129810+170052480+171793018+173471384+173274526
3601+172657917+172684161+172506012+172498650+173255194+172928934+170937162
3588+170866398+173747789+175814933+176388495+176605343+176337340+175481571
3574+174863454+174327656+172767190+171357970+172834212+175456470+176486733
3561+176873502+177600822+177778815+177016468+176376542+176287069+175760383
3547+175278875+176374308+178160561+178861845+178433830+177898915+177839844
3534+177886945+177619791+177214764+176988596+176977111+177156541+177381358
3520+177438160+177479770+177698558+177728007+177261692+176915753+177035957
3507+176739475+175943590+175986361+176903003+177410166+177405836+177308948
3493+176902691+176126728+175446163+175231202+175273834+175430936+175860354
3480+176266732+176424198+176559645+176691109+176753177+176641150+176294622
3466+176112662+176233178+176401816+176720991+177214746+177482056+177439840
3453+177444829+177275117+176704760+176631362+177277126+177685358+177737708
3439+177849493+178063812+178441071+179088030+179795637+180067174+179813964
3426+179520843+179465341+179737709+180443289+181240784+181757406+182050042
3412+182201687+182195918+182054892+182062982+182813134+184212861+185168185
3399+185388949+185657090+186074850+186411677+186863736+187350943+187643111
3385+187784345+187957886+188356417+188950749+189581252+190291526+191106189
3372+191767179+192104509+192199040+192198312+192459403+193212396+194184126
3358+195126441+195818162+196058708+196327335+197030316+197680463+198026038
3345+198541430+199384536+200274831+201115616+201939546+202572301+202763909
3331+202707800+203039205+204043294+205096961+205551964+205704268+206012702
3318+206502161+207106835+207636692+207907102+207955970+207835368+207804533
3304+208189535+208596485+208799631+209443854+210379707+210884947+211441689
3291+212621137+213820369+214646534+215496032+216661380+218151758+219657674
3277+220481067+220459985+220657986+221570419+222309606+222717093+223293166
3264+223844174+224048030+223891379+223578943+223298606+222968500+222573780
3250+222289459+222019984+221667427+221558743+221686708+221799359+221943988
3237+222121080+222463017+222823767+222684543+222201528+221702472+221230214
3223+221096239+221213394+220761543+219778484+219334792+219426309+219140793
3210+218488359+218021264+217836013+217661086+217143979+216333059+215776438
3196+215599762+215439265+215241039+215020778+214553839+213661604+212558151
3183+211705361+211141188+210645233+210023894+209170342+208606567+208782464
3169+209121335+208921533+208270122+207713969+207567383+207700353+207979997
3156+208307089+208261720+207635566+206917132+206594683+206679773+206912230
3142+206974332+206699314+206051350+205109589+204095297+203367094+203219260
3129+203395295+203346566+202815151+201905680+200948051+200210337+199569562
3115+198633570+197571727+196927609+196449444+195557677+194352834+193257193
3102+192353907+191445337+190449217+189503714+188848423+188501895+188113775
3088+187578999+187093108+186424011+185529004+185069237+185109166+185015276
3075+184752331+184438561+183831271+183335628+183417150+183644600+183686954
3061+183598139+183561138+183770693+183904825+183756384+183676734+183745402
3047+183776081+183765773+183604012+183222405+182906123+182738975+182416439
3034+181816997+181256409+180960274+180690106+180299335+180025685+180058425
3020+180190634+180075627+179748207+179441036+179180032+178862260+178417321
3007+177953812+177538962+177074708+176825327+176944942+176898014+176618232
2993+176692252+177106305+177455033+177788915+178263493+178637374+178714929
2980+178795480+179197372+179704657+179910124+179741000+179391701+179106964
2966+178874837+178426121+177909396+177626807+177387006+177163644+177137711
2953+177151552+177116352+177096535+177143047+177280747+177304739+177157338
2939+177159486+177326601+177214850+176678896+176137884+175954331+176013488
2926+176098509+175991246+175308030+174184759+173366667+173148485+173134886
2912+172983086+172849786+172998555+173343194+173602952+173649187+173573641
2899+173440982+173282893+173271027+173501439+173868166+174232467+174444205
2885+174485070+174551330+174706283+174928294+175250725+175554933+175805735
2872+176003025+175965001+175752033+175520201+175265900+175152262+175248699
2858+175329701+175265537+174920256+174226092+173621920+173402976+173319012
2845+173321558+173506117+173713645+173815088+173875303+173981561+174159312
2831+174434348+174788688+175155467+175355373+175200679+174880309+174791373
2818+175050957+175309866+175260669+175159156+175249513+175402786+175565743
2804+175799013+176047909+176284090+176521587+176746335+177032804+177382969
2791+177658820+177687610+177471437+177296978+177270578+177325804+177449039
2777+177549443+177602607+177609519+177525745+177366842+177161756+177027849
2764+177076527+177159521+177188623+177319845+177483719+177526594+177608704
2750+177877469+178233785+178433778+178332802+178199416+178373130+178675000
2737+178727973+178557671+178455120+178543709+178786091+179122884+179370827
2723+179419331+179363828+179310404+179367535+179509566+179653571+179849338
2710+180051444+180196143+180318806+180407950+180522992+180731300+180901549
2696+180946468+180999233+181214731+181541354+181790752+181898224+181900943
2683+181907821+181954766+181917227+181875565+181930843+181964189+181937044
2669+181886496+181821016+181710686+181558989+181447014+181373824+181317906
2656+181288907+181196386+181014945+180911805+180995665+181126851+181088568
2642+180925923+180798703+180659184+180484950+180367241+180290085+180146876
2629+179916845+179702526+179559335+179475890+179385776+179217623+179050630
2615+178902986+178697277+178570300+178630480+178661418+178493559+178214192
2602+177960568+177834491+177847622+177891137+177800850+177578424+177472841
2588+177528447+177524480+177419070+177303769+177254191+177302141+177294189
2575+177122537+176905376+176732875+176612255+176547415+176528759+176450598
2561+176164336+175709696+175207435+174772093+174575079+174613017+174688701
2548+174710441+174687921+174562520+174344217+174161893+174008481+173761508
2534+173493003+173387870+173378724+173302953+173150269+172969626+172867594
2521+172874072+172898810+172907523+172848712+172691714+172583983+172618802
2507+172635744+172543534+172472007+172452380+172361608+172208751+172188223
2494+172341219+172495584+172604857+172747026+172976191+173311112+173642656
2480+173807535+173822606+173827786+173868529+173918367+173971653+174020365
2467+174063897+174122483+174181104+174211610+174227807+174242757+174297272
2453+174417112+174549390+174724559+174946829+175118482+175306401+175578908
2440+175893908+176245009+176476270+176471351+176428927+176482628+176517984
2426+176507850+176633684+176925540+177203677+177372870+177393034+177351009
2413+177477656+177769929+178032804+178231221+178393710+178440672+178431231
2399+178599246+178954609+179262836+179476566+179707290+179834284+179695787
2386+179229905+178164493+176188346+173293270+169689513+165633195+161344524
2372+156992192+152755992+148812515+145326381+142603486+140883000+140326665
2359+141442807+144580430+149289727+155208225+161105173+163908369+162044232
2345+157627250+154570170+153794553+154152254+155219069+156581448+157639463
2332+158540307+159966330+161796791+163393150+164674856+166247881+168613569
2318+171370131+173704897+175383280+176870765+178518470+180162761+181649415
2305+182991993+184132586+185020992+185757459+186448297+187092762+187696102
2291+188257174+188776862+189319849+189862559+190236093+190366309+190367557
2278+190356279+190414051+190547576+190707190+190927624+191168690+191346094
2264+191473625+191580733+191740987+191951409+192131099+192324995+192556983
2251+192780051+192968871+193025118+192973028+193025499+193207303+193377276
2237+193472032+193532541+193662342+193887245+194086788+194166370+194226809
2224+194366692+194510611+194595493+194619277+194606077+194624838+194719213
2210+194865939+194966983+195000849+195115077+195313355+195418349+195465398
2197+195630087+195853155+195931593+195923503+196081575+196349508+196489391
2183+196560883+196702324+196827967+196842449+196810696+196831467+196937691
2170+197151126+197409273+197526358+197525475+197589881+197670260+197729643
2156+197873094+198028342+198112341+198191697+198277740+198402067+198643895
2143+198925306+199095555+199095434+199033747+199098206+199274051+199424968
2129+199513107+199583507+199659642+199716149+199824694+199978349+200015888
2116+199990180+200022453+200072863+200136853+200243736+200368374+200455474
2102+200506611+200597072+200692833+200724291+200753463+200852862+201048784
2089+201253247+201318606+201277828+201267573+201342875+201414506+201379496
2075+201326280+201406918+201600588+201707367+201639721+201608834+201772501
2062+201944691+201965773+201970693+202019769+202021085+202008162+202045337
2048+202126374+202197900+202157711+202070785+202148045+202357271+202525771
2035+202646027+202755542+202852880+202947463+203027495+203059334+203073470
2021+203084210+203038218+203083708+203367301+203653493+203780245+203911917
2008+204114197+204253646+204309305+204460239+204774321+205056771+205077923
1994+204797846+204592136+204852898+205343431+205707819+205926694+206135245
1981+206378441+206596173+206855410+207160692+207371235+207367130+207166790
1967+207159029+207589885+208095091+208450990+208764137+209002517+209183577
1954+209429718+209744493+210024535+210072416+209767810+209377472+209613202
1940+210547029+211324621+211683222+211924843+212187458+212514497+212865893
1927+212951936+212646238+212517806+212712620+212842438+213389115+214404151
1913+214946445+214916494+215100429+215835302+216624326+217117458+217476545
1900+217776768+217888570+218004530+218343540+218416227+218275842+218831509
1886+219804261+220484358+221032404+221625471+222191671+222639936+222851155
1873+222380041+221031157+220315858+221841246+224181122+225600424+226206622
1859+226635988+227161722+227770778+228347839+228730018+228742265+228105855
1846+227042245+227507158+229949863+231814641+232522127+233154275+233653591
1832+233038506+232196213+232955494+234389867+235843676+237740727+239322864
1819+240263169+240978606+241401961+241272351+241352123+242528574+244072826
1805+244880577+244747398+244472899+245165920+246357148+246475810+245690146
1792+246662274+249844443+252217285+253062037+253434463+253802852+254650047
1778+255912022+256050536+254447109+253362192+255397687+258938874+261688143
1765+262597146+262367253+263085444+264519159+265695662+266559539+266102612
1751+264633057+264688005+266872426+269211107+270552871+271153318+272152210
1738+272925436+271824980+271694313+275345639+279154569+282029948+283930360
1724+284779928+284698371+282668315+279630828+280354770+285245845+289700365
1711+292103904+292357719+291457655+291258857+290830842+289248809+289604102
1697+292581081+297622121+303081752+305657566+306105329+305009031+302206182
1684+302887354+309104308+314058976+315817426+316124769+317240504+318178783
1670+319189748+323457666+328065252+329782404+331393747+334966288+337524226
1657+336316194+331843970+332251509+339373171+342242436+344090480+350715493
1643+357341234+360337476+360145953+358177169+359889366+367355026+373149267
1630+375700864+377609400+379828120+382631523+387322155+391403816+393280097
1616+397528058+405070597+411013365+415135181+419476028+424606073+429805237
1603+435152754+441096907+447241001+453065730+458988610+465414929+471931432
1589+478446652+485139883+492152895+499817353+507649012+513548853+517661869
1576+524844819+534210422+540453604+546236272+555281818+565165931+573698371
1562+578843002+580243976+588138032+604766305+619180294+631355121+642297942
1549+652408708+660404831+665870282+669941585+675895820+689931960+705097071
1535+715775959+726148648+737755076+746999558+754064192+760732686+766802153
1522+774236458+784330802+795021679+806816718+818489111+826567137+830287200
1508+832593920+841892311+857367570+868349125+874222151+877536303+882861023
1495+891056636+897582528+901137330+903870264+908886843+915613196+922384310
1481+928800998+933359421+934447301+933282993+933790901+939293423+948301274
1468+954959720+954878094+951275758+950182404+949319446+945886458+946470171
1454+950588523+950077289+946885367+945112193+945608945+946521863+945946603
1441+943245128+937644073+929634785+924182153+922143591+918657873+914181491
1427+913358513+915974760+917444506+915699672+915036481+918940583+924673846
1414+930320218+935449605+939121441+941174554+943258502+947198843+951951144
1400+956131928+960840159+965900947+969641105+971699276+971829059+971311520
1387+972582468+974429438+974129336+973624961+975690200+978559638+981100218
1373+984790347+989326805+992841557+993850929+992678790+989949807+987159292
1360+987309377+988393446+986190039+982702242+981156691+980599517+981291117
1346+982909494+982489517+978264872+970506350+964111559+963430699+964777383
1333+963857397+961764164+960684253+960502155+961615949+964486357+966543766
1319+966439967+966423476+967423009+969968716+974890158+979139333+980437443
1306+981514652+984413123+987977488+990515850+991694918+992489832+993759533
1292+995830662+999076908+1002858571+1006669337+1011752437+1017300831+1022013151
1279+1027493708+1033432283+1038226991+1042312914+1045083542+1045864459
1267+1046148486+1046166917+1044207834+1041851085+1044401573+1051823060
1256+1057936388+1060653870+1061765447+1062345003+1063197914+1063735479
1244+1064087065+1065078144+1066275505+1068155596+1070824296+1072746032
1233+1072652627+1071618656+1072138968+1073741823+1073473110+1069958289
1221+1064775755+1061701144+1063455472+1067743103+1070056891+1069999864
1209+1069290455+1067182602+1063221127+1060366032+1060675350+1062451643
1198+1063733886+1063137908+1059979800+1056390768+1054633392+1053464857
1186+1050828170+1048141592+1047994902+1049176394+1049354197+1049545442
1175+1050095964+1048927568+1045538234+1041351769+1038251797+1037028175
1163+1036611524+1035394000+1032542924+1029561580+1028955970+1029536912
1151+1027862339+1024696679+1023574362+1025526101+1028889034+1030416985
1140+1028293057+1024873027+1022682162+1021450779+1019946595+1017330487
1128+1014597554+1013247197+1013301106+1014044329+1014448230+1014202799
1117+1013229043+1011159369+1007518992+1004431008+1006647926+1010021461
1105+1007063330+1002064489+1000402389+1002831825+1008263739+1012260899
1094+1012945432+1012549084+1012584492+1013512307+1014488281+1013814488
1082+1013345661+1014979143+1015377085+1014750966+1016542225+1017830635
1070+1018579193+1025220663+1035266157+1039535356+1039683848+1040104518
1059+1037880186+1035248626+1036550686+1038911107+1039699993+1038048149
1047+1033695730+1031764847+1036403580+1041180272+1040015756+1039157994
1036+1042294829+1042805578+1036840810+1031012617+1031313759+1032024899
1024+1029060808+1029112639+1033170914+1032877533+1026948521+1024136941
1013+1026999935+1028898943+1027557248+1028361378+1033338323+1036636608
1001+1035767967+1033605235+1030171762+1028179834+1031436128+1037558672
989+1043251539+1045961329+1043355130+1038592851+1037413714+1039241767
978+1039089464+1039000909+1045010023+1052879273+1054292754+1052616865
966+1053529575+1055593013+1057303478+1058794012+1060370605+1060622411
955+1058466054+1058738717+1061942002+1060886621+1057032062+1056164877
943+1055771993+1054134700+1053300705+1052701332+1053915599+1058239955
932+1060701958+1059255564+1058849722+1062030904+1065250265+1065321843
920+1063566061+1061990714+1061540804+1062404178+1062624872+1059957280
908+1056017216+1053715970+1053409909+1055743445+1059455886+1059842464
897+1056066413+1051195762+1049271809+1052463246+1057047515+1058085158
885+1055254384+1051797768+1049693172+1048379609+1047715587+1047731316
874+1047809823+1046244386+1042559246+1039031744+1036578403+1034655004
862+1032932343+1031325330+1031229431+1032219540+1031520733+1029854822
851+1028813576+1027849936+1027297543+1025512797+1020994286+1019250075
839+1023871900+1027417210+1024221823+1020575833+1020422421+1018868486
827+1015336966+1016694805+1022776814+1025399782+1023154801+1020940585
816+1021168970+1023611156+1025426598+1022819914+1017084294+1013743811
804+1014910960+1017696486+1018571224+1016594679+1013276438+1010513848
793+1008227915+1005018186+1001016175+995710510+990713609+991323999+994994242
779+994597685+991712449+989462825+987389686+985444599+982912612+979849919
766+976291929+970854264+966150259+965928318+968975212+972431204+972319437
752+964554125+953625301+947164474+945128407+944567629+944567907+944310211
739+944713766+946856126+947404639+942950500+934852380+926658845+921641711
725+919609455+916821435+911054357+903889457+899401365+899533089+903019500
712+907462414+910347720+912024856+913585998+914544718+914392415+913399811
698+913584889+915298265+915398738+912137732+908665110+908513084+910296721
685+912905346+916045922+916465206+915772705+917614894+917446169+911970809
671+906145110+905599230+914553310+924115633+925723685+922873371+920463198
658+921271347+925838363+931730651+936329263+937772956+936228998+934836304
644+933417003+928168919+921259498+920502972+927165853+934363596+937181482
631+938169720+935344628+922685452+910174283+908765721+910637983+906520532
617+898418601+894639987+900455153+914485958+928714661+935142712+933319232
604+925805033+920628320+923730925
##END=
