##TITLE=Sample description
##JCAMP-DX=4.24
##DATA TYPE=INFRARED SPECTRUM
##DATE=12/9/2023
##SAMPLING PROCEDURE=Instrument type and / or accessory
##ORIGIN=Default
##XUNITS=1/CM
##YUNITS=ABSORBANCE
##RESOLUTION=4
##FIRSTX=4397.6552
##LASTX=599.8556
##DELTAX=-1.9287962
##MAXY=1.7513717
##MINY=0.11900222
##XFACTOR=1
##YFACTOR=1.631092e-009
##NPOINTS=1970
##FIRSTY=0.150785
##XYDATA=(X++(Y..Y))
4398+92444200+91719237+89977599+88679891+89065765+90387536+90645272+89884433
4382+89809109+90589115+91515502+92443570+92917612+92634195+92539129+93003451
4367+92758934+91922835+92090183+92916013+93146516+92579683+91582293+90999344
4351+90962244+91005237+91441366+92197619+92645432+92738315+92869248+92998572
4336+92715768+92594848+92998618+92814634+92021318+91875878+92245608+92186510
4321+91985515+92736880+94178274+94587773+93492622+92071482+91565237+92473288
4305+93604845+93621152+93195264+93369619+93759941+93656544+93333222+93234995
4290+93414694+93625190+93455065+93596769+94524234+95004671+94843344+94974404
4274+94961276+94271531+93773773+94352675+95288398+94954023+93685248+93541891
4259+94743381+95497268+94981658+94262259+94427898+94940465+94700772+94026137
4243+93922374+94546415+95297908+95398785+94871061+94431726+94168216+94170107
4228+94751831+95357747+95519824+95451059+95267806+95208324+95721576+96515477
4212+96568702+96283230+96837319+97441581+97067950+96086785+95333730+95468189
4197+96076197+96396330+96511549+96784012+97080767+97028831+96759181+96494520
4182+96211898+95919474+95707845+95767958+95959753+95964102+95999037+96420375
4166+96845176+96749050+96303730+95769758+95322538+95280021+95607051+95776674
4151+95616945+95686605+96032766+96283001+96841046+97919195+98677312+98179654
4135+96737201+95678154+95727368+96436426+96584077+95841464+95368600+95582851
4120+95928308+96060629+95878683+95659289+95744607+96036612+96355237+96788004
4104+97150271+96967813+96349217+96094231+96562024+96918773+96713028+96587476
4089+96731153+96874976+97100199+97379504+97369117+97078300+96706002+96484279
4074+96697442+96820290+96573864+96609511+96734917+96387961+96038978+96153658
4058+96220194+96004902+96216137+96935610+97316413+96945796+96388464+96573909
4043+97541444+98270225+98074785+97359333+96888972+96917156+97218451+97398863
4027+97145292+96711438+96434645+96279950+96587293+97314147+97664264+97708883
4012+97798760+97798641+98175205+98941261+98900525+98023041+97487077+97341436
3996+96919440+96318137+96244156+96864607+97443966+97593407+97687423+97879062
3981+97891231+97543070+96936752+96476167+96634561+97290294+97736920+97710847
3966+97646696+97847453+98132943+97958040+97439635+97247347+96976720+96068916
3950+95358341+95905304+96265360+95117524+95068758+97006558+98130002+97141382
3935+94557122+92791265+94092636+95966376+95372300+94212588+94683515+94445749
3919+92939729+93592320+96827644+98952507+98591373+96917859+93143200+87010699
3904+83020273+84285749+88954739+94273093+95983104+92563951+89928631+92471872
3888+93177787+90480574+90018618+89583613+89688271+93146854+93232720+89264393
3873+85769496+84139359+86686583+89107369+88421698+90399394+94713361+94960500
3858+88323544+76532901+72958615+85528972+95871310+98075937+94728499+89514008
3842+84865537+81441935+82584034+88122413+91686604+92962231+94429460+94986418
3827+94165703+90696368+83904042+82395537+86496999+88618436+93531120+99493605
3811+99647943+94682272+90816895+90059875+86863359+86119567+91417494+94316305
3796+96505922+100244148+101862856+101502892+100557831+99471195+99333821
3782+98684255+97389389+99113076+102236762+102466643+99419249+96447325+97121521
3767+99455701+101615096+101850231+98552966+96871870+98858354+97475456+90386019
3752+86607093+93614291+99224741+101339600+111220961+122401226+125488552
3738+123491461+122757262+128584850+139679833+148702456+151117240+149945349
3725+149369865+149264174+149543242+150010487+148953743+145969047+145371919
3711+155245935+173050438+189486086+200953029+209159771+218269119+226722635
3698+230403790+229154265+222831431+211580182+202380408+202501785+204532796
3684+201023264+192910948+182670637+170584513+161404399+162087658+162906527
3670+161014963+165146490+170838650+172120132+171296933+170042492+167020367
3657+164326817+164171857+160168869+150856571+148880365+160101832+171441935
3643+176953701+179394430+181754418+183877992+185025180+184749282+181344390
3630+177601879+182303163+189409327+189496226+182735318+174158946+171049575
3616+170834521+168687796+167978282+170107812+174196877+180497492+185392143
3603+186398494+185877705+185636559+185029364+185022056+186170851+184824286
3589+179627244+176972009+179837840+181998853+181639783+180827072+179986771
3576+178984877+178411210+177197167+172984150+167963244+168435688+172951883
3562+175957801+177296984+178308909+178470976+177325926+176361617+176439928
3549+175751206+174389019+174860932+176977929+178329829+177754463+176535506
3535+176477640+177007419+176558454+175226159+174244821+173919426+173996531
3522+174696289+175624165+176204263+176512191+176350307+175596210+175018450
3508+175073045+174701003+173509525+173248902+174400439+175294348+175412856
3495+175528423+175756980+175445580+174746700+174521633+174688944+174666744
3481+174553589+174623514+174836412+175033816+175112530+175282362+175639751
3468+175811958+175358335+174457098+174138847+174554740+174768187+174755598
3454+174859526+174792999+174134371+173194746+173109218+173868960+174558632
3441+175250278+175872893+175961290+175852119+176065931+176538246+176769489
3427+176609486+176450854+176468431+176759166+177341822+177884592+178210353
3414+178383036+178564288+178784093+178948828+179278023+180031554+180971471
3400+181388113+181089869+180936116+181434066+182164392+182714799+182918507
3387+182953807+183311543+184026941+184559497+184714365+184953812+185388032
3373+185630840+185872516+186417204+187089957+187858817+188514669+188756107
3360+188946221+189327289+189833005+190855801+192364433+193370236+193416701
3346+193432414+194101878+194667542+194914991+195537808+196339100+196985231
3333+197575489+198272122+199279150+200215741+200620690+200706767+200930610
3319+201356370+201702923+201949020+202125997+202045366+201732340+201572392
3306+201839758+202289015+202472880+202555558+203436019+205131550+206403476
3292+207121816+208191862+209292987+209826457+210338038+211287748+212360462
3279+213137745+213583403+213960396+214478536+215052843+215458303+215686440
3265+215703706+215466251+215236233+215062728+214748368+214389847+214053288
3252+213747681+213740591+213763778+213298003+212746810+212589786+212565558
3238+212345516+212093297+212023574+211840184+211496572+211402803+211487838
3225+211492406+211435600+211134433+210520167+209928795+209534042+209219408
3211+208726008+208221516+208065351+207860072+207313995+206584126+205749324
3198+205081998+204505663+203677366+202720402+201820280+201086282+200555461
3184+200074577+199453386+198622439+197828785+197240190+196725010+196201370
3171+195645792+195068800+194332773+193407967+192796387+192763462+192922953
3157+192946632+192927448+192897245+192602180+192078796+191670778+191500835
3144+191438640+191217885+190720519+190208664+189731982+189013642+188285399
3130+187893186+187582590+187118680+186554587+186042239+185600985+184768303
3117+183335515+181899036+181018976+180605349+179998592+178633591+176855949
3103+175437249+174514543+173605249+172349895+171004298+170072786+169514321
3090+168861813+168071137+167556158+167321937+166988758+166546809+166078952
3076+165509469+165074939+165056028+165174847+164973606+164546933+164254280
3063+164058538+163712716+163259841+163092457+163470181+164069410+164265096
3049+163888961+163442646+163286535+163212573+163118238+163069544+162808263
3036+162185940+161563525+161319218+161254355+160905188+160394430+160016449
3022+159658257+159315157+159121279+159006718+158763306+158283444+157658508
3009+156987308+156389852+156037160+155899338+155704346+155244747+154668724
2995+154452281+154883559+155543558+155852308+155824426+155845986+156091170
2982+156264602+156195700+156214703+156428825+156536736+156368895+156051630
2968+155777359+155547998+155287429+155079464+154834884+154254913+153653748
2955+153537304+153621608+153604689+153642237+153705748+153598696+153329540
2941+153143501+153194451+153271821+153070004+152555500+152077840+151968294
2928+151983880+151729825+151227088+150609067+149915028+149298597+148952829
2914+148831735+148860824+149134328+149599216+149988242+150155215+150268068
2901+150412969+150484593+150592422+150780041+150915314+151018300+151164170
2887+151301598+151221323+150985448+150950842+151069405+150994575+150665069
2874+150322718+150098765+149874977+149642218+149412364+148992396+148501599
2860+148299060+148230013+147975063+147577496+147095350+146515453+145958833
2847+145624832+145571717+145674969+145896619+146256255+146533030+146483341
2833+146299796+146337873+146560775+146781932+147004724+147119149+146994584
2820+146927665+147164462+147342891+147131528+146802286+146662008+146679165
2806+146809028+147044757+147345349+147679834+147961031+148075282+148073601
2793+148147472+148307621+148416482+148387384+148209056+148016283+147894870
2779+147837571+147923245+148118576+148208306+148132910+148038839+147902087
2766+147683287+147596142+147664495+147688677+147653834+147681104+147825128
2752+148080544+148385831+148562452+148527151+148428723+148413595+148531226
2739+148747395+148888971+148848637+148783828+148855634+149015281+149099484
2725+149038001+148996233+149078253+149156053+149141490+149069921+149101312
2712+149374149+149688107+149794967+149781656+149794967+149875900+149981024
2698+149979855+149933226+150038981+150267684+150449183+150525320+150541600
2685+150532994+150495629+150416706+150356520+150393510+150456245+150440998
2671+150328044+150114159+149880221+149736087+149607256+149407412+149253028
2658+149166084+148980876+148727305+148629782+148679507+148653379+148537493
2644+148439558+148295379+148085221+147917746+147793884+147681634+147568187
2631+147323268+146922594+146605467+146450197+146227359+145961711+145934697
2617+146028694+145894070+145570456+145336226+145218540+145128636+145105778
2604+145052472+144881506+144695503+144503599+144365595+144335703+144247900
2590+144097919+144015506+143916941+143735177+143601568+143565893+143471786
2577+143264369+143177187+143269997+143199332+142865898+142584326+142476123
2563+142337836+142040679+141674420+141354735+141159642+141145564+141217462
2550+141153841+140945529+140778117+140658366+140564579+140548811+140479544
2536+140232113+139974340+139960436+140091122+140066062+139899820+139751119
2523+139636036+139522781+139454227+139529450+139614110+139487563+139317447
2509+139355077+139457205+139407607+139362769+139516450+139715307+139824469
2496+139901355+139983713+140136462+140364206+140519595+140573486+140716296
2482+141058318+141396841+141474906+141369388+141383750+141552915+141608643
2469+141512874+141466135+141526102+141649544+141778357+141857107+141929818
2455+142023605+142070197+142127404+142306555+142521381+142696513+142880305
2442+143078403+143316671+143652545+143994165+144178341+144197571+144129227
2428+144029027+143990758+144113002+144410579+144772517+145021940+145128608
2415+145223145+145348221+145521800+145806103+146107005+146341619+146528133
2401+146680151+146973581+147545037+148422575+150331314+155092711+165207900
2388+183309843+211006643+247509760+289984516+335867472+384624280+437190783
2374+494226140+554531528+614814515+670780154+719330825+757575918+782605752
2361+791962167+779654045+743340823+692539775+634648915+580264299+550754173
2347+558712388+597996283+632130825+633078452+618661008+606651259+600749343
2334+600300488+601938738+600411066+593471482+581533028+565471597+546339951
2320+525146305+501315184+476996509+460303546+453534763+446020251+426855936
2307+397039472+366540937+343843227+328086673+313940157+299319188+283728629
2293+266633805+249372894+233802196+220023557+207990091+198949479+193386571
2280+190124415+187811037+185749677+183761293+181966019+180559232+179475172
2266+178381081+177138388+175883747+174637693+173299605+171933691+170694817
2253+169555633+168372834+167181887+166080048+165089575+164286693+163657883
2239+163093571+162579707+162142253+161796485+161532135+161295538+161103999
2226+161023788+160995559+160928356+160837292+160755418+160691249+160651728
2212+160690938+160869066+161067493+161146864+161222873+161361571+161442166
2199+161503503+161648468+161843954+162007538+162046072+162011357+162070775
2185+162233500+162452592+162733552+162976963+163089533+163113286+163082444
2172+163056937+163184490+163469834+163750483+163930876+163992706+163993656
2158+164066358+164245162+164431896+164517187+164506297+164516401+164650787
2145+164907464+165165346+165309635+165363152+165445556+165599657+165772852
2131+165937952+166069104+166172045+166313630+166513939+166740815+166959049
2118+167174980+167419086+167658277+167879580+168144880+168439086+168693899
2104+168935611+169243941+169663379+170193176+170809562+171496329+172295154
2091+173271906+174459071+175920984+177689782+179726440+182041900+184568340
2077+187018826+189185832+191210923+193208425+194892298+196083410+197181868
2064+198531009+199933759+201282681+202703921+204102103+205378415+206633330
2050+207928827+209214914+210392797+211363118+212164044+212955981+213776458
2037+214529842+215132597+215536231+215658320+215449807+215072156+214673017
2023+214204411+213503155+212411256+211202878+210292670+209505776+208582632
2010+207579588+206547035+205545050+204634879+203863077+203269512+202780734
1996+202127002+201035067+200122393+200236607+200906382+201476486+201924062
1983+202317701+202756927+203262606+203857175+204583518+205404853+206054840
1969+206269547+206682828+208023381+209732615+211209510+212602558+213931253
1956+215264224+216868416+218621903+220185606+221388192+222043642+222314296
1942+223574931+226375497+229066873+230737682+231848674+232864198+233905868
1929+234799869+234984282+234118218+233348719+233289227+233133153+233649137
1915+235049018+235436042+234421213+233418698+233297833+233441793+233056486
1902+232213901+231131449+229629467+227985608+226761059+225235618+223440051
1888+223109028+223726273+223827441+223726492+223690680+223599085+223624885
1875+223687939+222695181+219936146+218148948+220674347+225117822+228114422
1861+229677046+230916778+232329961+233771902+235021008+235870847+235903479
1848+234576428+232282309+232415909+236088587+238802071+239029276+238586122
1834+237632940+234520134+230674353+229606829+229996028+230412853+231671697
1821+232374269+231723204+230773549+229608473+227492884+225447602+225210567
1807+225945406+225668047+223693914+221419582+221125230+222106093+221224426
1794+218162963+217749061+221971634+225440732+226027938+225650744+225281205
1780+225578371+226625888+225832964+221850824+218588394+220905023+226089184
1767+230216417+231428633+230249562+230243495+231566600+232665021+233757833
1753+232550368+228700659+227242712+230097434+233497941+235052763+235208125
1740+236096188+236873343+234060974+231830786+236668740+243054647+247846867
1726+250629747+251411232+250679390+246542893+239952347+239360792+246787583
1713+254215233+258023686+257740698+255105488+253614726+251852651+247725673
1699+247054108+251753035+259833522+268604941+272526347+272532267+269865923
1686+263760793+262994948+272934658+281659266+284609840+284552103+285873380
1672+287243004+288513724+295396411+303724019+307201850+310110217+316737580
1659+322160749+320958199+313684577+314679271+328025317+334275011+338557898
1645+351578860+365270929+372872596+374700904+372672743+376624663+391328091
1632+403462488+409174527+412766829+416047603+419126296+424155899+427771223
1618+426303847+425874798+430517486+433472043+432907201+432115356+432832947
1605+434100981+435643123+438119408+441317304+444518890+447947188+452213997
1591+457107880+462499219+468518035+475084262+482334606+489695017+494460196
1578+496243521+502017025+512321615+518577082+523283464+533019558+544548697
1564+553376483+556186879+552227249+558171627+580743448+600722484+616079041
1551+628754198+640298283+648877067+652865566+654308202+658983193+677746817
1537+699212048+711316188+721614968+735677143+746439943+752017030+756988018
1524+761855224+768026716+779687007+793997453+808375431+821281466+829845486
1510+832299334+830585186+840279328+864076867+879979629+885145536+885772245
1497+890802651+901804514+909083618+909864829+912463314+922626081+933680931
1483+940464734+944398638+947476709+948311712+945273253+942776942+948985342
1470+959728043+963582649+959861644+957309423+957781336+954852944+947147532
1456+945751378+954024738+959797913+958835595+953910871+950370021+948789619
1443+945763584+941835234+938205951+933225681+928638758+925129774+920294213
1429+917056303+916100344+914267285+913253442+912806743+912328617+919067764
1416+931963567+941504230+945584597+948505608+951373924+951103581+949708670
1402+950481623+951426546+954176756+961422240+970913790+978655159+980798467
1389+977495949+972569470+969990646+971180990+975996014+982241103+985262314
1375+983719404+981917187+983451180+987177229+990438892+990788387+988031672
1362+986470784+988698432+992010451+993835251+993969948+992977592+990257713
1348+986595249+984118086+982859991+981364295+979007870+975283722+969717452
1335+964546136+961891157+962019714+964801205+968841741+971801122+971890871
1321+970211364+970086022+972415333+974521878+974822625+975844069+979122322
1308+982876509+985870094+988055133+990012510+991893002+992852835+993583691
1294+994942863+996245759+999049760+1005099345+1012303390+1019024777+1025612783
1281+1032077348+1037714146+1041080686+1042457107+1043505665+1044506353
1269+1045732437+1047544593+1048578096+1048491490+1050284644+1054948965
1258+1058915319+1060446023+1060731203+1060239849+1059713121+1060635315
1246+1063972183+1068091066+1070131323+1071349879+1073156627+1073741823
1234+1073201501+1072900827+1072771831+1072338434+1071353021+1069294128
1223+1066711503+1065822271+1066552542+1066687969+1065334425+1063216697
1211+1062260592+1063860508+1066301785+1066243974+1063339554+1059931720
1200+1058205731+1058413514+1058211286+1057016556+1055921150+1053785735
1188+1051025586+1049827859+1049332266+1048063939+1046061833+1043694080
1177+1042522957+1042710129+1041530966+1037996621+1034412432+1032392859
1165+1030869536+1028993941+1028031916+1028731929+1028957106+1027032032
1153+1024372667+1022019093+1019686932+1017784077+1017100215+1016977066
1142+1016218730+1015135163+1013494100+1010575355+1007886683+1006503538
1130+1004597394+1001950015+1000413829+999553905+999361543+1000839260+1001836659
1117+999980286+996872614+994426002+993685572+996059391+998117992+997634093
1103+999697079+1004134981+1005459876+1003490878+1001517714+1001174577
1092+1002317928+1005452641+1010626953+1014644320+1015447677+1016443833
1080+1019019734+1019775658+1018449155+1017216202+1017052636+1017618318
1069+1017574833+1018230118+1020000835+1020280387+1020817566+1025258684
1057+1033211051+1041244179+1045869691+1046257629+1042427288+1036307102
1045+1032845331+1035033513+1039998362+1040564044+1035372630+1031143680
1034+1032462801+1036496467+1036673480+1033206082+1032073255+1031910640
1022+1027282789+1021831190+1020845850+1022547428+1025043301+1027774289
1011+1028796902+1026874240+1023807424+1021609741+1019581397+1020339952
999+1026115539+1032585147+1036096177+1037095257+1037617380+1038072119
988+1038355179+1040227778+1042892624+1044228116+1045119102+1047647425
976+1052266725+1057154542+1059009453+1056976140+1054747834+1053292554
964+1051000810+1050337631+1053445303+1057006543+1056255077+1053411318
953+1054338408+1058397946+1061331601+1061022376+1058010081+1055377978
941+1054487138+1054206343+1055127952+1057218711+1058427911+1057099654
930+1053286342+1050568655+1050204177+1050118886+1050388499+1050276093
918+1049603852+1050005969+1051324213+1052506665+1052167475+1050293853
907+1049307783+1051574312+1056697464+1061047517+1061286653+1058046039
895+1054419606+1052002594+1051214585+1050866698+1048334429+1044457605
883+1040980924+1038475478+1039363906+1042650710+1042848407+1038847337
872+1033277852+1027473761+1022430565+1019646297+1019326255+1019727129
860+1020723432+1023318554+1024763895+1021307897+1015580108+1013838260
849+1016186572+1018174353+1017882742+1016156826+1015365675+1016355692
837+1016978527+1015112945+1011705550+1009203538+1007616339+1006976256
826+1008374748+1010523318+1009782376+1005556057+1003199413+1003662410
814+1001487456+998603719+1001063487+1005533400+1005583099+1003824002+1004226265
800+1003904688+1001674336+1000007474+997843995+995158538+994362783+993487291
787+991146652+989104495+985841736+980523446+976300415+974961415+975451526
773+976171054+975872572+973397457+969300791+965380847+960953250+954400763
760+948137111+944563957+939881949+933735234+932712036+935674486+935526634
746+932006322+929245441+929348346+930560981+929347176+925560905+921554647
733+917104613+911752922+907900655+905828752+903670243+901933291+900342291
719+897103358+892899184+888905350+885189460+882193244+882613048+888999703
706+896318785+898845499+900531510+903858730+904408626+901653812+901489369
692+907310050+914973730+918977211+918417668+915082481+912228709+912331467
679+914047663+915068449+916897342+922432843+927717149+923404881+909521400
665+902098172+904279996+911191698+917678846+923116120+925886355+921610338
652+914689939+909626790+905780735+905655247+910479844+912945532+907595522
638+901957629+905069758+914883981+918274932+911542874+908357513+909105763
625+902869810+893743249+885641348+876042071+873947804+884412342+893042724
611+891610905+885600347+876427232+867709073+866373873+870176150+874341516
##END=
