##TITLE=Sample description
##JCAMP-DX=4.24
##DATA TYPE=INFRARED SPECTRUM
##DATE=12/9/2023
##SAMPLING PROCEDURE=Instrument type and / or accessory
##ORIGIN=Default
##XUNITS=1/CM
##YUNITS=ABSORBANCE
##RESOLUTION=4
##FIRSTX=4397.6552
##LASTX=599.8556
##DELTAX=-1.9287962
##MAXY=1.8689368
##MINY=0.2465629
##XFACTOR=1
##YFACTOR=1.740583e-009
##NPOINTS=1970
##FIRSTY=0.25404495
##XYDATA=(X++(Y..Y))
4398+145953941+146361788+146969414+147144539+147131440+147007665+146607660
4384+146267908+146205070+145851757+145312858+145604258+147001484+148381451
4371+148293273+147151559+146307733+145798952+145500258+146016231+147149675
4357+147953657+148214888+147908695+147039957+146502839+147041430+147785399
4344+147541564+146915018+146976092+147638133+148227045+148402375+148113988
4330+146938389+145551830+145527054+146624046+147165770+146633977+146339084
4317+146633189+146653992+146684504+147001210+147314851+147587349+147642036
4303+147499256+147529288+148122036+148906225+148815564+148178778+147965420
4290+147599471+146845091+146995183+148355203+149750255+150453440+150248644
4276+149363058+148726734+148525396+148322997+148394088+148901499+149064107
4263+148527109+148061458+148093596+148616417+149692229+150405653+149723049
4249+148755791+148859464+148887664+148046562+147475970+147393544+147322984
4236+147508964+147888166+147705679+147073739+147354335+148873950+150208064
4222+150247548+149579309+149517978+150389781+151042353+150447944+149912607
4209+150674674+151042404+150045371+149134119+148845099+148852342+149292327
4195+149571655+149343419+149692075+150480322+150307201+149364564+148646501
4182+148175354+147401301+146522615+146563879+147553344+148576352+149153313
4168+149364085+149585678+149703427+149593572+149751129+149838862+149459044
4155+149258750+149133246+148599826+148182870+148350289+148921703+149409065
4141+149454780+149141327+148769437+148971374+149880571+150372778+149522310
4128+147814764+146729432+147092162+148197852+148987298+149058919+148854362
4114+149085835+149737106+149799122+148783186+147975265+148180935+148680231
4101+149002810+149176547+149506523+150018609+150362351+150621544+150695426
4087+150478524+150447122+150652655+150614250+150285336+150027376+149976009
4074+149886513+149326828+148469442+148216292+148901174+149821295+150153925
4060+150065643+150184607+150351393+150219005+149922007+149590712+149130249
4047+148868436+149329670+150082577+150461813+150470802+150496879+150773605
4033+150634900+149849529+149523337+149996641+150529822+150613377+150306413
4020+150055216+149793951+149412523+149295032+149265085+149348230+150049326
4006+150825673+150745114+150224313+150285953+150434709+149658122+148545600
3993+148112584+148400149+149005755+149547085+149704779+149644356+149713118
3979+149767497+149740222+149664731+149615967+149898498+150121632+149919267
3966+149851566+150301602+150938713+151055434+150867948+151081203+151072350
3952+150350229+149900262+150393410+150537629+149668121+149564310+150494704
3939+150849028+150237343+149034486+148241239+148718019+149485515+149526813
3925+149630384+150236127+150133412+149362578+149367801+150271947+150804408
3912+150611888+150032889+148532605+146477533+146044191+147378751+148978874
3898+150390842+150140758+147612843+146051245+147425682+147989323+147487579
3885+148029508+147725866+147725986+149437008+149069432+146940581+145716527
3871+145824892+147661247+148460281+147568463+148400560+150221916+149952723
3858+146668358+141655351+142124118+149147098+152344689+151501600+149345987
3844+147204654+145340544+144174345+145544536+148166193+148780617+148829552
3831+149897334+150454553+149721422+147174793+143369062+143452668+146383310
3817+147471895+149249093+150904709+149658824+146665070+145527311+146367815
3804+145543628+146023525+149172507+150233953+150226265+150624404+150640498
3790+150575264+150303691+149989553+150247993+149810354+148945640+150085745
3777+151970709+151953416+150025749+148454152+148997947+150142264+150972683
3763+150664281+148834466+148468534+149820130+148791336+144814076+142984167
3750+146264963+147839779+147443352+150812763+153726214+151822159+148035912
3736+146724107+149330663+153295082+155439342+155029047+154422311+155699632
3723+158058158+160657556+163032451+164236216+163667490+163117736+166410029
3709+172428031+177891415+182500307+188141778+196371056+203562396+206797244
3696+207087155+204927056+200899851+198189022+198238676+197608979+194924929
3682+191002698+186133260+180373185+176822623+178093489+178160162+176577898
3669+177912561+179541671+179483148+179432467+179461916+178590097+178141106
3655+178672454+176944943+173376865+173926140+179065045+182651614+183496638
3642+183494173+183834559+183862742+183207755+182159544+180262714+179084530
3628+181874805+184391076+183588361+181367976+180234052+181810255+183539957
3615+183459774+183037271+182919780+183019516+183667619+183931264+183292116
3601+182996641+183391817+183358275+183499155+184539661+184602345+183167690
3588+183358241+186013594+187840293+187801340+186878822+186051828+185868074
3574+186138123+185957931+184906929+184153987+185157801+186690702+187316324
3561+187476278+187596955+187530949+187300897+187364232+187845806+188026153
3547+187896419+188213964+188784950+188981185+188855287+188800856+188919135
3534+188956564+188826043+188733121+188572157+188109503+187741670+187840687
3520+188155201+188359296+188162547+187311171+186406939+186642624+187716073
3507+187865137+186886202+186542871+187397945+188066766+187849059+187366869
3493+187126715+186845040+186346327+186176733+186695188+187505917+188080121
3480+188120974+187586442+186880860+186635895+186968422+187388100+187593564
3466+187571066+187256569+187020610+187241604+187577983+187639777+187488743
3453+187516173+187740523+187744683+187659895+187909192+188524986+189373725
3439+190083725+190235683+190171184+190487154+191038757+191380804+191246208
3426+190769907+190542664+190985371+191864005+192500945+192630388+192651602
3412+192927044+193197435+193146942+193255273+194029669+194967511+195279303
3399+195249716+195625768+196319878+197023251+197678785+198269427+198892686
3385+199480811+199874789+200217572+200690397+201215530+201829714+202506771
3372+202812622+202772796+202981411+203659221+204515682+205150379+205511722
3358+205902926+206530192+207388400+208145810+208565882+209043638+209716586
3345+210141691+210248738+210503857+211147063+211817117+212218663+212564220
3331+213116765+213807125+214513632+215167625+215447827+215451611+215829837
3318+216509051+216844506+216769717+216595072+216700321+217421844+218274418
3304+218451528+217981563+217712884+218385900+219624285+220794063+222114223
3291+223751466+225146004+225885043+226402385+227266602+228181929+228824759
3277+229918925+231553258+232726169+233246113+233351722+233250617+233512806
3264+234063434+234082730+233419988+232868607+233054364+233785218+234407912
3250+234642689+234601014+234139439+233213616+232374585+232208535+232657715
3237+233397078+234137624+234297937+233814907+233336261+232910402+232233927
3223+231747593+231950523+232297810+232117395+231643405+231120516+230506519
3210+229941852+229491731+229155266+228863746+228523240+228229854+228029714
3196+227816374+227375019+226899010+226655021+225955791+224644979+223750935
3183+223444742+223151527+222817253+222417968+221850081+221152290+220316426
3169+219892365+220241723+220446126+219877811+219022257+218489009+218442505
3156+218629426+218849119+218908259+218741781+218724317+218875504+218821245
3142+218402388+217741512+217338031+217254698+216726347+215546227+214621638
3129+214597513+214864565+214672130+214183930+213656229+213053567+212422090
3115+211683086+210823080+210029628+209016757+207582393+206292881+205280712
3102+204136104+203018685+202128494+201249123+200442573+199854174+199316730
3088+198869606+198743176+198875530+198922359+198482065+197563348+196736919
3075+196326555+196062243+195772247+195522967+195348202+195390545+195637120
3061+195781338+195819281+195902699+195914394+195989714+196167988+195929958
3047+195483381+195572432+195862685+195663864+195096611+194591511+194320555
3034+194012735+193431288+192977811+192962846+193170656+193263749+192924801
3020+192324091+192013070+192053906+192111384+191958724+191497474+190906284
3007+190497376+190254123+189961473+189483734+188874772+188316183+188121368
2993+188657887+189583265+190219314+190635499+191073104+191282250+191052352
2980+190779701+190925821+191265779+191497234+191666588+191701414+191538652
2966+191276446+190972547+190698799+190432655+190090728+189750633+189512191
2953+189374393+189250087+189127956+189191102+189522293+189774621+189599154
2939+189340885+189447829+189656102+189567564+189269435+188933603+188535174
2926+188264663+188246684+188004254+187288364+186561928+186119203+185830166
2912+185609412+185484592+185422268+185372340+185534982+185965362+186211251
2899+186124631+185963084+185769263+185707709+186013971+186459538+186769840
2885+186997906+187321410+187741704+187870034+187599745+187472460+187746824
2872+188094589+188228330+188188418+188128320+188108647+188141093+188222337
2858+188273206+188166536+187773260+187091392+186471575+186162573+185957605
2845+185848059+186016642+186373585+186760714+187075982+187219842+187229995
2831+187317883+187602553+187949840+188108099+188071269+188151383+188388626
2818+188480845+188341181+188132994+187980437+187940919+188024064+188156520
2804+188387890+188796798+189214679+189561434+189888157+190115503+190284446
2791+190456009+190474449+190322098+190174334+190113380+190088296+190097011
2777+190267358+190468594+190398239+190199418+190138104+190139508+190116308
2764+190119356+190171544+190257976+190368652+190471659+190511245+190589355
2750+190941196+191455628+191684532+191497765+191240438+191241414+191456501
2737+191652103+191736720+191808187+192021203+192317568+192431019+192367564
2723+192358353+192396329+192407459+192434768+192470999+192531730+192659324
2710+192826452+193042070+193331980+193565799+193647180+193767256+193952020
2696+193988713+194043760+194336102+194606938+194626166+194605722+194742082
2683+194901043+194997235+195066699+195097810+195123236+195072418+194872569
2669+194764872+194867416+194909724+194774443+194608685+194530231+194606442
2656+194777679+194841013+194738213+194716416+194890445+194950714+194768330
2642+194547199+194317319+194076258+193965393+193977121+193936251+193730906
2629+193428651+193208873+193105849+192976390+192859960+192928465+192995207
2615+192754591+192411482+192327156+192415866+192395816+192166826+191858817
2602+191673009+191571338+191422496+191366268+191484239+191497046+191286393
2588+191077642+190996569+191020831+191065708+191009427+190814699+190535353
2575+190361769+190408769+190470511+190346462+190113620+189932811+189779055
2561+189568095+189344481+189088575+188804794+188690419+188736631+188659788
2548+188445283+188321508+188285534+188187990+188034679+187940320+187902634
2534+187795519+187571135+187290453+187072986+186962515+186844356+186707756
2521+186642812+186629423+186646219+186645620+186519739+186307665+186158310
2507+186113399+186086757+186083538+186193393+186288300+186238184+186214744
2494+186297255+186369972+186500836+186758437+187016740+187190906+187275146
2480+187332864+187392483+187385429+187354010+187366560+187413115+187428799
2467+187389778+187483144+187760932+187970164+187980266+187907035+187892823
2453+187944600+188040398+188245554+188517178+188700607+188802277+188943431
2440+189156258+189421496+189685089+189857251+189923719+189959282+190043471
2426+190142231+190186286+190239261+190366906+190556721+190774034+190943867
2413+191035984+191131011+191311905+191571133+191847825+192080976+192261613
2399+192447182+192616382+192684305+192744386+192972383+193262567+193299380
2386+192879599+191838100+189975941+187327351+184126352+180528088+176697016
2372+172852075+169028639+165255918+161813242+158982234+157081551+156708445
2359+158125807+161017496+165199416+170779333+176341340+178836431+177070636
2345+173191451+170596846+169922392+170296577+171439678+172779443+173597979
2332+174059658+175096140+176868682+178650777+180240198+182081913+184361369
2318+186794342+188904890+190385706+191499511+192759608+194267802+195782760
2305+197095472+198124335+198920081+199602189+200300699+201092183+201835638
2291+202364692+202802605+203287330+203703396+203928122+203981355+203935947
2278+203913226+204053969+204356807+204633995+204726728+204709777+204796295
2264+205028230+205233198+205358172+205511739+205708249+205894177+206069096
2251+206265622+206478038+206620477+206694615+206852103+207124566+207340218
2237+207381003+207349875+207426650+207639529+207838333+207888278+207848657
2224+207895537+208095489+208303008+208377351+208381495+208382231+208395330
2210+208489364+208645739+208786431+208925102+209067130+209145737+209162808
2197+209244480+209467255+209698984+209795107+209858459+209988809+210090137
2183+210180473+210359467+210545652+210663845+210726940+210734473+210752811
2170+210805975+210852667+210957950+211153535+211371910+211573539+211746437
2156+211896067+212022290+212127026+212232069+212328603+212433527+212577027
2143+212690409+212745114+212842247+213029374+213211587+213292317+213330482
2129+213421366+213539302+213630666+213716841+213840393+213919891+213903557
2116+213975041+214195607+214326317+214272605+214236169+214309828+214369396
2102+214423827+214550975+214640215+214624172+214606827+214684698+214858213
2089+215031077+215135761+215191973+215242654+215321929+215386907+215390605
2075+215373517+215417367+215549857+215649011+215660414+215729022+215883754
2062+215997753+216065761+216157844+216253316+216263555+216186146+216204279
2048+216341203+216367109+216300419+216326479+216448524+216592178+216705012
2035+216783979+216890256+217026787+217089505+217107877+217209325+217285946
2021+217241583+217230796+217378131+217676346+217968533+218096383+218193123
2008+218403193+218624084+218764536+218864324+219000872+219164028+219232173
1994+219168582+219188683+219486110+219919144+220284425+220539133+220743518
1981+220913061+221026391+221161861+221350392+221569759+221756954+221789247
1967+221810718+222082444+222499691+222851806+223136699+223402844+223667054
1954+223908509+224091184+224226448+224318103+224303275+224242475+224537795
1940+225229936+225786796+226077700+226295030+226551364+226912656+227298723
1927+227477820+227419656+227479601+227682428+227833034+228269115+228973789
1913+229449576+229687127+229989913+230492651+231013760+231358957+231639776
1900+231964529+232190574+232381297+232748462+233022380+233161222+233675757
1886+234453080+235098153+235632754+236131741+236590595+236939371+237151701
1873+237060149+236518374+236354927+237502566+239073118+240056779+240619392
1859+241191542+241838293+242430972+242952886+243400867+243628316+243428605
1846+243092225+243833524+245525129+246644003+247204082+247874118+248495819
1832+248442296+248242601+249015336+250263070+251577272+253020933+254162185
1819+255006199+255830368+256491553+256755626+257075739+257971752+259057392
1805+259802543+260084543+260275385+261056510+262171120+262567598+262427608
1792+263446660+265655385+267279136+268149107+268859928+269522054+270413410
1778+271485780+271741584+270935358+270791208+272820974+275556150+277504552
1765+278211435+278433457+279447852+280719009+281719073+282603991+282719034
1751+282301342+282877430+284657659+286449565+287570836+288166786+289076685
1738+289932752+289784236+290530448+293302266+295747224+297660509+299055783
1724+299928493+300319869+299508421+298330596+299819768+303578500+306656699
1711+308418351+308915438+308849073+309272775+309390849+309003891+310130726
1697+312719715+316573542+320409118+322232066+322935748+322696519+321457191
1684+322924618+327680024+331077138+332400295+333215475+334927952+336241829
1670+337367328+340674415+344123991+345779863+347608942+350667554+352887254
1657+352633369+350660773+352640389+358037048+359827774+361707054+367280927
1643+372296690+374711479+375138434+374584878+376965697+383105214+387589475
1630+389946425+392167941+394673648+397647163+401909420+405606854+408150264
1616+412873103+419476798+424617586+428761598+433322600+438555539+443859397
1603+449058743+454481633+460238644+466135096+472191296+478403033+484565767
1589+490709941+496929417+503648377+511395345+519544474+525994208+530770913
1576+537830944+546380250+552700575+559264136+568201906+577160839+584818430
1562+589993325+593567515+603172840+617531926+629999301+641495720+652095149
1549+662145784+670435177+676595616+681903790+689188393+703013683+716717954
1535+726008918+734593495+744249569+752934207+760989919+768803457+775531868
1522+783821193+794508904+804200797+813316500+822696225+830421824+835486316
1508+840560671+851459804+865051618+874437232+880141609+883510883+888047743
1495+894749581+899629155+902187393+905998073+913713947+922728287+930268420
1481+935768565+939152153+941521363+944009537+946031444+947822614+950148335
1468+951366670+951372971+952453029+954316934+954016202+950645901+950680214
1454+955561569+958073987+956314048+951615761+948392504+948538110+947959522
1441+944599974+940835797+937083195+932164651+927103788+922410639+919190806
1427+917032539+915555798+916268486+917048702+918273202+924831626+933411614
1414+938872996+941692721+944349170+946898299+948641185+952698696+959429162
1400+963707822+965142854+967489052+970877228+973784824+975432032+976535581
1387+977732412+977344289+975725504+975569351+978286618+983829020+989775640
1373+992359286+992247377+991926167+991885006+992970817+995126618+995435431
1360+992872125+990614551+989574970+988082134+986197614+984881340+984134066
1346+983329125+981705751+978560502+974406011+970775250+967285984+963735491
1333+962399424+964176486+966736299+968584177+970427124+971205150+970243165
1319+970784290+974490594+978280248+979877871+980292841+980718974+982074560
1306+985023522+987229045+987510189+990182185+996269343+1000175290+1000168852
1292+999843465+1000433421+1001914203+1006504963+1014706555+1023376811
1281+1029977834+1033954598+1035947123+1037412770+1039233869+1041319744
1269+1042720532+1043808671+1046505529+1049818437+1051132861+1051521258
1258+1053686579+1057155640+1060191376+1062863373+1064967191+1066057385
1246+1067087858+1068037309+1067351126+1065101291+1063444837+1064101022
1234+1066323119+1067866774+1069270095+1071752517+1072463697+1070410765
1223+1069168528+1068394406+1065460374+1063727898+1065928285+1068696370
1211+1068973816+1066977044+1065633307+1067420984+1070111541+1071245019
1200+1072477737+1073741823+1072226112+1068585077+1065136083+1062808445
1188+1061627093+1060340270+1058367332+1056738547+1055588083+1054197021
1177+1053182369+1053075048+1052791781+1051605429+1050714878+1050957326
1165+1051193953+1050570779+1047691469+1043818534+1043595947+1043685530
1153+1038225313+1032954055+1033316494+1033632293+1030180765+1027525617
1142+1028663889+1033479085+1038211478+1036514479+1029718812+1024450499
1130+1023348320+1025210033+1025914433+1021964928+1017091517+1015968243
1119+1015960230+1014113653+1012200848+1010845605+1010037376+1012052913
1107+1016024267+1017844407+1017163087+1017060561+1017358895+1014315282
1096+1010022309+1011076547+1017267943+1022475507+1023766919+1022088206
1084+1018546205+1016537380+1019256838+1025516106+1031198498+1031631070
1072+1028985921+1029639366+1031772977+1032929947+1036526739+1040358239
1061+1039987718+1037190526+1035171016+1038924440+1049261560+1057105027
1049+1057339325+1054497478+1053017381+1054276741+1055674241+1052882391
1038+1048015966+1045243703+1042870452+1040427412+1039505219+1038368385
1026+1037223879+1037365581+1036276620+1031732774+1026500829+1028001952
1015+1037105121+1042806005+1039649387+1034169377+1031531351+1031866395
1003+1032614148+1032024123+1031831466+1034286355+1037213880+1037915473
991+1039637744+1044495265+1048603800+1049162800+1048250949+1048560515
980+1050056776+1051685835+1053734178+1057066948+1058851885+1056637664
968+1054762048+1055385221+1055915388+1056369807+1057884080+1060835302
957+1064783369+1067494130+1068401323+1068704383+1067554810+1066306066
945+1067684938+1069184006+1068829922+1067352017+1064866377+1064298405
934+1067071078+1070117568+1070826214+1066958004+1060448070+1058441847
922+1061805779+1064631873+1064885690+1064771384+1063911858+1059719288
910+1054680067+1054802045+1059758052+1063124312+1062879810+1062637499
899+1062001175+1059758052+1059387805+1060470397+1060817974+1063683381
887+1069216127+1071685193+1066957594+1057644919+1052374277+1053953408
876+1056641499+1057008048+1054172022+1049280326+1045727777+1043010853
864+1040573292+1041766492+1047190547+1051994922+1051191556+1045362736
853+1039327492+1036497974+1036385311+1036833976+1036747339+1035767000
841+1032868924+1028545610+1027903329+1034432097+1039752324+1034933773
829+1028149612+1027572052+1028506024+1027861071+1028587525+1031072891
818+1032754823+1031932280+1029637037+1028704571+1028907776+1028415346
806+1028755047+1031274794+1033833648+1033337520+1029744016+1024778215
795+1020699883+1018938574+1015070432+1008206346+1004135616+1002673257
783+1000832433+997681636+993175117+992089101+996552883+999350487+996864025
770+994182030+992310180+987955088+984143655+984418635+984043662+978435716
756+971381781+969682453+971296033+968033327+960999595+955541639+952835878
743+951345302+948300593+945681949+946696806+949355584+949225046+944007620
729+936560699+930228834+925642936+923774785+923370500+919815212+913070158
716+907478992+905981841+910149550+917633180+922769791+923378650+922856154
702+924103323+926508079+929652301+931651880+928959680+923242633+920345790
689+921312705+921817874+920930199+919273129+916795365+918249505+925255088
675+929216168+924038328+913612790+903828232+905359626+916714480+923483163
662+923877244+923047510+926617317+931736258+931217254+930474569+934285044
648+936140661+933442297+928009339+923857588+925770872+926541501+921897046
635+924418095+930214109+921191344+908390432+913195080+933650159+948063967
621+944502036+934225870+922883549+913434378+915803588+924942234+930348072
608+941006743+962188275+968230710+942384999+916818240
##END=
