##TITLE=Sample description
##JCAMP-DX=4.24
##DATA TYPE=INFRARED SPECTRUM
##DATE=12/9/2023
##SAMPLING PROCEDURE=Instrument type and / or accessory
##ORIGIN=Default
##XUNITS=1/CM
##YUNITS=ABSORBANCE
##RESOLUTION=4
##FIRSTX=4397.6552
##LASTX=599.8556
##DELTAX=-1.9287962
##MAXY=1.899006
##MINY=0.26754737
##XFACTOR=1
##YFACTOR=1.7685872e-009
##NPOINTS=1970
##FIRSTY=0.28064752
##XYDATA=(X++(Y..Y))
4398+158684583+159184667+158815093+157924370+157520066+158358854+159231816
4384+159182072+158500840+157697742+157815631+159024971+159599689+158832871
4371+158359495+158934027+159381638+159379380+159664346+159861788+159534543
4357+159517203+159809483+159638378+159475868+159832046+160101239+159888716
4344+159728430+159975532+160162391+159768804+159078894+158946749+159262148
4330+159386524+159750370+160619742+161243732+161195302+160807158+160461714
4317+160328171+160400697+160407134+160217325+160150073+160338012+160431332
4303+160569998+161125725+161517256+161441764+161347719+161038488+160420244
4290+159981884+159846588+160486873+162340322+163908385+163670315+162563749
4276+161607863+160566628+160174103+160951823+161458834+161116052+160740395
4263+160722010+161124933+161718372+162464851+163382939+163719233+163127682
4249+162397649+162016296+161811709+162104140+162844064+162936559+162228752
4236+161912663+162402924+162598799+162262505+162426178+162964868+163395915
4222+163619324+163125440+162608117+163266634+164082337+163463605+162327650
4209+162375945+163074028+163251266+162932211+162606954+162842935+163253710
4195+162732932+161854123+161924442+162601191+163072259+163297573+163346676
4182+163228905+163121093+163397802+163825563+163574871+162716064+161969804
4168+161742098+162131354+163077466+164132165+164469032+164079826+163810447
4155+164007384+164084106+163497138+162824264+162633798+162544909+162534698
4141+163136512+163887389+163765944+163195928+163033081+162948742+162569411
4128+162170566+162209290+162723344+163114100+163184486+163271673+163333549
4114+163439087+163968441+164257570+163436610+162563277+162809166+163373250
4101+163488847+163698102+164069716+163833044+163476631+164009608+164703782
4087+164805595+164940049+165300052+165319767+164961298+164533874+164274033
4074+164297776+164068890+163655924+164136968+165187033+165650147+165456951
4060+164804652+163967077+163743836+164319867+164839617+164839988+164682803
4047+164460977+164204051+164416592+164974374+165110462+164577720+163838521
4033+163726479+164291608+164651207+164580821+164538913+164629318+164628576
4020+164505834+164500459+164718527+164902539+164762878+164562993+165008413
4006+166094758+166836991+166700009+165950059+164974947+164183729+163768842
3993+163945305+164894922+166061326+166877618+167387241+167341052+166412870
3979+165273916+164604850+164394618+164757267+165517732+165898698+165608424
3966+165058713+164836921+165322902+165738193+165362417+165088876+165280640
3952+165075716+164486287+164406380+164466841+164096441+164285778+164944026
3939+164954406+164124009+162647161+161756724+162641212+163730372+163264022
3925+162823303+163740617+163720885+162280535+162330785+164509356+166064089
3912+165894856+164764934+162112768+158266882+156714912+158674708+161665190
3898+164064273+164139967+161422133+159823873+161859835+162675774+161563091
3885+161875372+161537292+161480504+163914451+163803757+160820487+158299033
3871+156980938+158535536+160139457+159790155+161287477+164064947+164137743
3858+160056214+152948613+151277457+159331034+165320694+166099274+163401897
3844+159910824+157376698+155654096+156635595+160103127+161897868+162424695
3831+163520915+163936509+163150666+160528174+155865457+155467590+159071126
3817+160526270+163384624+167043381+166733644+162948489+160450037+160673817
3804+159128368+159085028+163003002+164854513+165804063+167587547+168379726
3790+168588256+168404885+167605949+167074757+165941735+164697395+166368265
3777+168966155+168835510+166228993+164130025+164864995+166422391+167583958
3763+167538141+165199873+163892225+164977930+163871549+158783177+154932169
3750+157349585+158669737+157364549+161346084+166428760+165399017+160591028
3736+157797466+160789414+166952504+171026197+171122365+169873864+170506835
3723+173127406+176686404+179906464+181294626+179700225+177019867+179755564
3709+187918032+195327601+200153266+205043404+213569076+222899819+228503340
3696+230017176+227923685+223550905+221915034+225876922+229279915+228368263
3682+224447087+219086354+212368044+208151017+211316833+213890120+214338068
3669+218733260+223154150+224337540+224971269+225916100+225396721+225084136
3655+226477253+224640890+219507493+220389537+229639244+237639859+240979189
3642+241880578+242738442+243640994+244007384+243477338+241075492+239109141
3628+243684200+249777914+251158055+249284721+247719355+249563874+252174705
3615+252728696+253356645+254739836+256072997+258345091+260515203+260869173
3601+260446367+260674309+261239203+262170620+263944719+264965582+264071775
3588+264158827+266926203+269355381+270528205+271575102+272661633+273366288
3574+273871142+273720157+271761912+269816187+271761255+275507130+277247409
3561+277715224+278407797+279117743+279252062+279049514+278943825+278567038
3547+278297929+279608442+282129087+283756195+283661931+282916008+282549096
3534+282423826+282215414+281796938+281057335+280236594+279803694+279879860
3520+280266841+280853607+281186901+280595822+279425930+278819246+278983576
3507+278972589+278674345+278864255+279300020+279250158+278883532+278786943
3493+278841186+278102863+276629283+275732225+275616391+275813042+276180779
3480+276094132+275577348+275118531+274578543+274135078+273807142+273063072
3466+271941020+271051376+270911934+271419838+271828962+271638866+270960145
3453+269868290+268481998+267681411+268148906+268782096+268473488+267870815
3439+267605396+267686736+267975122+267917964+267357283+266686027+266189262
3426+266004576+265959297+265830371+265870240+266121807+265954781+265392028
3412+265232584+265350844+265190491+265106590+265365572+265407396+264797140
3399+264148312+264452707+265409317+265858697+265430785+264817883+264809508
3385+265369582+266000818+266316621+266166092+265763709+265600019+265834887
3372+265948546+265703281+265290653+264917405+265052987+265696002+266220823
3358+266411492+266545692+266725374+266824120+266830877+266860552+266917087
3345+266902612+267057657+267518226+267937882+268188522+268175311+267703469
3331+267132425+266931225+267087770+267592505+268167189+268197133+268011773
3318+268038128+267628398+266749369+266284469+266322637+266674450+267433567
3304+267762245+266959939+265947822+265833269+266868977+268637869+270301611
3291+271419097+272042261+272407858+273021619+273917448+274741997+275355455
3277+275893943+276781194+277712713+278148495+278201575+277824317+277372207
3264+277591016+278063415+277776460+276898831+276011158+275375693+275565451
3250+276017056+275532053+274403209+273376399+272817942+272896670+273051058
3237+272444964+271574698+271474334+271841768+272033532+271757025+271098491
3223+271014641+271505104+271128486+269889623+269228949+269150862+268587266
3210+267782786+267501932+267509430+267531876+267417643+266998055+266632121
3196+266151128+265124216+264261162+264159147+264202875+263756056+263032141
3183+262460844+262055394+261538930+260814644+260058105+259367891+258987920
3169+259175453+259312350+258575072+257408129+256929563+257290054+257703306
3156+257733621+257400024+256699581+255950373+255526167+255502155+255727418
3142+255657537+255225513+255008861+254815884+254086745+253193545+252613941
3129+252070836+251412420+250912048+250765243+250570750+249373930+247317140
3115+245758632+245269753+245372881+245358928+244622088+243221928+241912443
3102+241093522+240374847+239513176+238840183+238317333+237492801+236566657
3088+235996051+235777781+235710226+235467741+234903791+234224952+233600255
3075+233110516+232784788+232442866+231925189+231602258+231728320+231728842
3061+231364188+231149137+231168313+231221309+231598584+232240790+232437238
3047+232147099+231939243+231798992+231388268+231005651+231128814+231231875
3034+230572751+229667418+229374448+229536554+229660863+229621736+229317644
3020+228867926+228609231+228457236+228347368+228607192+229076591+229015979
3007+228254940+227438884+226928706+226613374+226561878+226662798+226711127
2993+226951168+227464683+228046629+228670434+229316414+229770698+229774607
2980+229544002+229613175+229883599+229945526+229853217+229653803+229180393
2966+228470531+227929094+227923432+228052510+227717514+227042079+226538068
2953+226385280+226277401+226292988+226745283+227242824+227362701+227238308
2939+227176161+227197124+227007551+226582402+226217833+226041639+225930777
2926+225794234+225592815+225181299+224451822+223651421+223244791+223153560
2912+222903105+222609697+222671034+222813239+222623211+222421286+222454382
2899+222441423+222394376+222506400+222651234+222699563+222761102+222880946
2885+222922770+222944322+223196075+223582719+223678230+223431904+223311470
2872+223592695+223963449+224001819+223704282+223333949+223094110+223068497
2858+223136591+223083696+222841902+222267539+221339221+220545004+220274749
2845+220508303+220965333+221242750+221281254+221257444+221272694+221394813
2831+221569287+221672651+221731781+221869840+222022088+222031474+221961341
2818+222010427+222141022+222043506+221705325+221481106+221545039+221797954
2804+222091447+222361331+222532722+222535553+222478428+222491319+222735337
2791+223233922+223462218+223151083+222821243+222734309+222616858+222425718
2777+222372166+222413030+222317990+222135444+222044770+221967019+221788838
2764+221658816+221747924+221970727+222100260+222044786+221993694+222079044
2750+222154452+222181195+222229152+222280784+222293877+222209706+222174387
2737+222350563+222572995+222727282+222850142+222973997+223055555+222936267
2723+222783598+222852198+222945300+222924388+222972615+223219683+223503571
2710+223519545+223315262+223247251+223358282+223449294+223561133+223667817
2696+223595627+223432207+223301039+223249476+223336342+223513984+223700575
2683+223804292+223762637+223588466+223365932+223257480+223285385+223324428
2669+223332854+223309229+223165423+222834522+222476743+222346687+222394679
2656+222289984+221928330+221581150+221487375+221620716+221741992+221612240
2642+221321966+221105230+220951937+220801593+220724466+220702745+220588260
2629+220355414+220097780+219872079+219765261+219826447+219983043+220085513
2615+219980245+219745377+219558534+219413481+219258790+219078991+218923558
2602+218860316+218776112+218563352+218345184+218239040+218208523+218208084
2588+218149612+217888709+217486292+217215161+217208859+217291816+217229669
2575+216995610+216669814+216323781+216072382+216011500+216019992+215871603
2561+215609420+215340395+214988716+214639868+214493164+214497545+214429822
2548+214285679+214234334+214142598+213866276+213620960+213506391+213427664
2534+213388957+213334849+213159178+212970481+212907762+212890844+212788289
2521+212628509+212576237+212658419+212698811+212634491+212581562+212581124
2507+212525684+212372729+212254654+212321114+212474390+212482967+212426331
2494+212439694+212437032+212436256+212497594+212656094+212931674+213186729
2480+213313515+213284380+213137828+213038812+213082405+213208265+213287531
2467+213291306+213332068+213457540+213604160+213665295+213564695+213383312
2453+213316127+213450328+213688314+213894552+214055057+214344101+214798166
2440+215102375+215145564+215160697+215295858+215519065+215640105+215580049
2426+215545437+215697129+215981657+216259393+216439884+216510556+216555161
2413+216701343+216962481+217263456+217503261+217644168+217779330+217956854
2399+218154077+218343785+218430702+218445244+218563403+218736125+218735485
2386+218317194+217184644+215157141+212209056+208461765+204382831+200426386
2372+196396286+192012974+187637279+183708537+180618398+178910541+178800218
2359+180119999+182865991+187294750+193399417+199446606+202192615+200288765
2345+195974187+193169756+192838956+193601965+194593457+195600704+196465594
2332+197204709+198383785+200131899+201871824+203374927+205133404+207545529
2318+210226191+212515692+214272619+215836772+217413665+219024545+220677553
2305+222192855+223404790+224400848+225282000+226015015+226626805+227217025
2291+227791355+228388383+229052107+229618686+229904966+229965562+229955586
2278+229969235+230093932+230264396+230372865+230558411+230802294+230892379
2264+230937186+231158759+231510892+231826965+232037113+232192445+232356573
2251+232510860+232629777+232722473+232830303+233032362+233291664+233444519
2237+233439278+233467587+233664153+233802483+233695800+233593144+233765225
2224+234063537+234285767+234473402+234623931+234743101+234892114+234992764
2210+235022911+235069318+235159588+235296586+235479267+235693999+235881600
2197+235957800+236001326+236145957+236330020+236487913+236652647+236781473
2183+236856813+237005101+237264100+237462216+237521127+237595473+237772256
2170+237966884+238142353+238273116+238287861+238272661+238349805+238510226
2156+238705747+238883575+239089965+239325979+239435880+239460853+239571277
2143+239758036+239943043+240083208+240147680+240161195+240189538+240233755
2129+240296844+240440044+240617686+240766918+240941375+241069678+241041402
2116+241025579+241152315+241303063+241472702+241696701+241881589+242021806
2102+242140436+242201015+242224455+242263920+242331172+242428789+242552357
2089+242636612+242653109+242661248+242753186+242946247+243044724+242946618
2075+242867149+242946382+243067372+243122980+243090896+242993480+242995958
2062+243151020+243308727+243419809+243468676+243470395+243506069+243576034
2048+243619593+243577517+243463689+243386545+243461397+243650902+243841351
2035+244040715+244256508+244418900+244481619+244519112+244600469+244645460
2021+244591369+244477187+244496330+244836887+245314156+245609535+245707237
2008+245800945+245910880+245932601+245986389+246214635+246502112+246577166
1994+246254252+245957945+246298839+247010774+247550222+247804250+247912568
1981+248072651+248301672+248518763+248663798+248751288+248820630+248764820
1967+248775335+249225069+249831736+250239747+250579293+250855311+251020804
1954+251243894+251511486+251624674+251578806+251373460+250988383+251146360
1940+252233464+253288433+253787894+254005085+254187884+254419247+254680993
1927+254769831+254453842+254221873+254333948+254425078+255063323+256321464
1913+257085114+257175232+257304597+257864637+258642493+259348243+259900110
1900+260207134+260141770+260044270+260334729+260443468+260351816+261142192
1886+262412347+263213018+263750495+264330015+264970131+265535951+265831112
1873+265384748+263833200+262749803+264216963+266885929+268689096+269474231
1859+269911209+270484342+271142472+271750689+272244421+272306314+271551595
1846+270301544+270718166+273396316+275515202+276294708+276983406+277553624
1832+276748554+275547876+276261209+277915784+279638218+281878783+283667087
1819+284546031+285175278+285651452+285574578+285594192+286714374+288305910
1805+289151220+288862867+288360541+289167599+290723377+290890639+289672857
1792+290322594+293835472+296676639+297692783+298122347+298501661+299238214
1778+300411039+300370900+298245763+296638286+298738652+302735387+306000388
1765+307212946+306937434+307684065+309272298+310457490+311469658+311146053
1751+309330265+308948221+311213591+313901279+315405831+315943139+316928749
1738+317777193+316369332+315545727+319161362+323555677+327012644+329287821
1724+330252705+330121504+327760622+323965930+324247239+329739123+335161614
1711+338203475+338527282+337314218+336892945+336253655+334155311+334468233
1697+338266127+344224275+350293438+353037273+353409106+352122437+348681243
1684+348869434+355856736+361845384+364028354+364150220+365099702+366105129
1670+367081842+371672841+377082054+379301826+380999118+384976846+388318821
1657+387396368+382201802+381931379+389744746+393126760+395186043+402834676
1643+410765899+414498041+414345844+411746387+413180535+421902740+429282736
1630+432718369+434922739+437332792+440264481+445099988+449560258+451599961
1616+455601852+463289310+469822108+474437778+479120649+484591705+489995896
1603+495308958+501183829+507316486+513163351+519353200+526353072+533374312
1589+540018933+546603329+553477427+560996577+568873675+575079262+579456997
1576+587054875+597322276+604400471+610549844+619488112+628926447+636643293
1562+640486314+640281272+647446216+664862856+680384913+693034360+703421538
1549+713104009+721291804+726727237+729933226+734189027+747979821+764140056
1535+773500001+780623088+790718407+799910180+805877428+810682434+814700435
1522+819762991+828835527+839140472+849166770+859183766+866894141+869982375
1508+869921914+875815220+888997291+898444322+902948438+905391417+910736260
1495+918128692+921183561+921425810+924809475+931825187+938673671+943393547
1481+946093806+948906494+952334915+953655825+953257941+956301622+961575893
1468+963690077+963033228+964227082+967216974+966656108+960370310+957272235
1454+962240156+966180508+964526893+958307421+952895781+950417213+948074463
1441+944593804+939021811+931461477+925902830+921781432+917402956+915632396
1427+916653697+918144936+919532306+920543833+921390962+924779346+931001312
1414+936353165+939481370+941926977+945777278+951293730+956538681+959854066
1400+961237594+963024128+966071449+969046310+973381917+978231882+979262821
1387+976173239+975044025+977853343+981662932+985290261+987819786+988326999
1373+988891101+991065476+993420156+994557256+993209115+989887731+988672713
1360+991019035+992936400+991950756+991240928+993001714+994341497+993791753
1346+991523754+987316618+982104426+977761202+975815595+975059528+973824490
1333+972049953+969255262+965662376+963479305+964868293+969921547+975809865
1319+979837168+982326454+983103281+982820186+984209578+986266064+987179721
1306+989215784+993431076+997048766+998462019+998662275+998735004+999849120
1292+1002710473+1006214454+1009349062+1013987177+1020897942+1027022375
1281+1031546308+1035305210+1037254861+1039307775+1044007497+1048622357
1269+1050559135+1051053002+1051203986+1051464838+1052063316+1053238229
1258+1055709316+1058444961+1059551326+1059976238+1062542768+1067024642
1246+1069140578+1067135184+1065431016+1067057198+1068659653+1067388824
1234+1065585236+1065206562+1065204270+1066093864+1068952319+1071449491
1223+1071364900+1069192951+1067503477+1067870153+1068104112+1067310366
1211+1065237163+1061104172+1058862325+1060663149+1062634707+1062157826
1200+1059157014+1055242882+1053908626+1054532515+1053083268+1049709377
1188+1046826926+1045742468+1046294234+1046383477+1045562904+1045521384
1177+1046205396+1045771654+1043861568+1041151064+1037647285+1034758700
1165+1033566127+1033118836+1033687521+1036042269+1038376526+1038942110
1153+1038451748+1036971968+1034622208+1033724189+1034128543+1032550354
1142+1030363576+1031500811+1032370925+1028485709+1024316050+1024693645
1130+1027699782+1027763277+1023919582+1022479434+1023898889+1021793535
1119+1018668430+1019350758+1019473163+1016093272+1010745801+1004688906
1107+1002889969+1008251258+1015061659+1019089838+1020816451+1019161016
1096+1016132704+1016917889+1021182722+1022953350+1020804925+1019536118
1084+1020225455+1022031604+1026127726+1030141144+1030331559+1028023859
1072+1028393097+1032672893+1034677614+1033239152+1035294695+1040283039
1061+1042563845+1044289851+1047387926+1047306975+1043427623+1038782296
1049+1034856368+1035083114+1038057706+1036337834+1032014090+1032370318
1038+1034990434+1034249061+1032551095+1034732952+1039868237+1042192788
1026+1038357855+1032678353+1029740159+1029406444+1030063899+1029647614
1015+1029044284+1029784241+1028782892+1027008760+1028831423+1031749867
1003+1032443788+1031931049+1032096525+1034559657+1037249132+1036961318
991+1036061479+1037306897+1039966107+1044698452+1049673451+1049946907
980+1046935917+1044648978+1045597145+1050806506+1056307388+1058131467
968+1055924131+1052698932+1054584955+1061186337+1064074450+1061715051
957+1058966531+1056664763+1052244362+1043399853+1038863248+1047996177
945+1059541822+1060793980+1058274767+1059478799+1062360374+1062538926
934+1061589478+1063255091+1066780168+1067366985+1062090692+1056304962
922+1055542828+1058264320+1060284812+1060644411+1062482105+1065293985
910+1065633429+1065491410+1065603974+1062482577+1057949544+1056615019
899+1060280970+1067300457+1069273094+1063651626+1061385784+1065923805
887+1069684728+1069360314+1068832813+1071826076+1073741823+1068600944
876+1061705884+1057494098+1050801384+1043607052+1043870802+1045944746
864+1041973389+1037571321+1036496165+1036769689+1036944669+1035373826
853+1033481198+1033830889+1035485447+1036611358+1036192107+1032918108
841+1025896195+1019044880+1018166071+1021282884+1023124555+1024925245
829+1027708545+1028133121+1025878130+1022882037+1020835256+1021620644
818+1022579462+1020026884+1017063346+1017895647+1020483948+1019751001
806+1016077096+1012839427+1010268920+1010706842+1016002952+1021352310
795+1017057078+997763919+980543761+984724677+1000657829+1005493437+997687349
781+989703517+987742272+988917860+989230006+988870610+986975286+983653025
768+981286482+979995162+980279067+982080430+982318837+981621883+984860697
754+988402491+981898845+969234164+961078588+957866398+955996216+954949841
741+956147874+958194385+957598536+954196672+949158314+943117327+937881745
727+935711886+935381810+932444897+924753193+914922366+908845519+909177685
714+913450741+918717126+922576795+923189158+923009190+927632341+935234938
700+937281448+934589412+934221388+933013582+926910178+921953716+921254672
687+921471442+920730272+919430189+918651205+921355441+927532651+929754007
673+925330640+915552995+902533906+902478230+914871746+922380853+928046200
660+933651153+931503470+925917187+925842302+926423658+923700010+921755212
646+921942055+920647095+917013498+916504667+920990450+910199457+865368526
633+832974248+851073216+885164044+895165402+895735840+893355479+893713460
619+904126318+907157933+895441960+886597788+889925777+898535924+904971088
606+914217188+931701030+940701578+926662133
##END=
