##TITLE=Sample description
##JCAMP-DX=4.24
##DATA TYPE=INFRARED SPECTRUM
##DATE=12/9/2023
##SAMPLING PROCEDURE=Instrument type and / or accessory
##ORIGIN=Default
##XUNITS=1/CM
##YUNITS=ABSORBANCE
##RESOLUTION=4
##FIRSTX=4397.6552
##LASTX=599.8556
##DELTAX=-1.9287962
##MAXY=1.9612285
##MINY=0.32985255
##XFACTOR=1
##YFACTOR=1.8265364e-009
##NPOINTS=1970
##FIRSTY=0.33936262
##XYDATA=(X++(Y..Y))
4398+185795710+185658588+185114847+184812587+184952500+186718022+188840234
4384+188450487+186865929+186322906+186572904+187038735+187224496+187360264
4371+187972582+188633931+188934836+188695574+187920811+186968314+186296245
4357+186293732+186773367+187304169+187969091+188964385+189702877+189372521
4344+188419274+187978978+187993239+187340815+185965840+185236191+185681757
4330+186533256+187318070+187623348+187241563+187142050+187729747+188121534
4317+187580094+186323004+185489469+185590190+186132642+186857428+187637592
4303+188162863+188444727+188802234+189131692+189375703+189984138+190865071
4290+191015801+189610919+187677583+187331727+188602408+189600590+189865127
4276+190261645+190493419+190133008+189888443+190033690+189929723+189234909
4263+188644031+189005192+189817826+189919884+189614410+189696318+189524475
4249+189022700+188955770+188436553+186915775+186141012+186857444+187229114
4236+186341229+185652975+186162859+187383694+188591998+189657975+190608220
4222+190691939+189814187+189249447+189453809+189690020+189523333+189542309
4209+190403287+191340512+191159581+190016803+188829107+188238081+188523829
4195+189008537+188872459+188882004+189716191+190645340+191186698+191673854
4182+192087636+191737015+191100418+191374368+192005712+191913116+191152826
4168+190291765+189819457+190020801+190607698+190662537+190062374+189562704
4155+189584829+190151380+190818505+191337608+191750818+191605048+190988096
4141+190641114+190704421+190842261+190818439+190823514+191052758+191083726
4128+190593633+189917078+189723175+190217787+190462157+189824695+189231744
4114+189413965+189693463+189489101+189435600+190029644+190578035+190498428
4101+190209890+190109153+189961279+189684358+189738626+190312210+191039982
4087+191543487+191525751+191186927+191377436+192063194+192116744+191376555
4074+190582555+189991219+189911742+190442446+190726269+190278092+189594847
4060+189397648+190030509+191154653+191992251+192084813+191796602+191514297
4047+191471532+191856776+192086135+191912301+191608540+190950487+190358303
4033+190505052+190912943+191185719+191577653+191893994+191663510+191125806
4020+191056396+191381368+191217618+190747317+190864810+191458414+191885183
4006+192042391+192130613+192101961+191746853+191269667+191117207+191188819
3993+191330380+191668976+192157274+192731493+193015446+192568330+191539294
3979+190580809+190593829+191396363+191874365+192173672+192813613+193078525
3966+192617965+192165481+192275273+192718114+192784244+192257146+191501358
3952+190658882+190132388+190608318+191247052+190888045+190344206+190245672
3939+190083716+189718345+189164309+189358293+191001525+192046796+191173515
3925+190409536+190996842+191123522+190386302+190300968+191062450+191592534
3912+191652480+191492841+190066372+187080570+185204603+186171474+188697793
3898+190951205+190848282+188295906+187075039+189202864+190218081+189434278
3885+189644677+189528962+189450644+190528858+189783627+187718097+186670982
3871+186740685+188241410+188627111+187458700+188679959+191434559+191582352
3858+187742522+181347478+180589096+188578717+193520452+193225779+190589554
3844+188043787+186062547+184439923+185119546+187976694+189310797+189293077
3831+189875161+190417107+190261939+188526733+185264941+185556529+188757527
3817+190012104+191607659+193332602+192700917+190176589+188392939+188029934
3804+186471760+186593626+189956661+191786078+192875468+194305266+194522355
3790+193812922+192772235+191810063+191733474+191399610+190507353+191502027
3777+193538840+193782019+192186871+190801128+190966689+191737896+192716597
3763+192461932+190111323+189052868+190058948+189096270+185116169+182563287
3750+185028958+186360923+185592735+188416516+191457206+190021959+186244898
3736+184449974+186755696+190561376+192652376+192425807+191581161+191730929
3723+192960542+194977204+196931522+197723581+196470570+194383291+196086354
3709+201520352+205879399+207688600+209451250+214383408+220401416+224352588
3696+225885276+224318748+220111018+218161970+221407332+224014416+222849628
3682+219442409+215203498+210255204+207369274+209796193+211335930+210563892
3669+212491304+215241841+215848351+215455406+215106367+214128792+213389533
3655+213893397+212445749+208839291+209378855+215192060+219485435+220546370
3642+220327764+220412233+220558884+220325382+219676825+217770575+215831333
3628+218571526+222683332+223121115+220915363+219417934+221189950+223373496
3615+223288325+222529355+222264868+222758942+224337234+225399540+225032195
3601+224667933+225027626+225224776+225616906+226603732+226466936+225018962
3588+225436496+228034949+229479367+229720571+230067145+230390224+230377449
3574+230355683+230224385+229167595+227645235+228143176+230448147+231976446
3561+232344151+232479723+232577457+232412467+232436419+232819901+232689436
3547+232289491+232809035+233926196+234582682+234555434+234367519+234461876
3534+234664655+234503124+233965518+233828787+234277208+234760677+235293861
3520+235711085+235599775+235374023+235272748+234900883+234570135+234655143
3507+234564783+234084513+234014108+234625659+234865248+234251151+233681255
3493+233577728+233404302+232947544+232561206+232532865+232854100+233338515
3480+233773051+234101106+234183863+234013651+233994985+234091790+233947733
3466+233777326+233804705+233950262+234252979+234669191+234902645+234618839
3453+233990710+233586050+233621848+233967199+234390117+234808174+235154862
3439+235392036+235736718+236167044+236605006+236997642+236993498+236532122
3426+235988642+235700055+235821873+236371732+236983773+237224471+237394732
3412+237957253+238512823+238499166+238456222+239076274+239842798+240111592
3399+240139526+240363532+240796175+241184259+241308279+241444846+241902502
3385+242247592+242274057+242336353+242570084+242969491+243349220+243658479
3372+244156306+244525919+244507400+244813984+245657879+246296548+246499556
3358+246699708+247183845+247695835+247888889+248036029+248458622+249022530
3345+249621501+249929129+249523391+248852758+248722081+249320449+250154277
3331+250780660+251346934+251764011+251732374+251608941+251952334+252716557
3318+253321696+253403539+252963129+252159388+251482473+251381002+251648410
3304+251611568+251150159+251121981+251962613+253034758+254071022+255329793
3291+256805406+258223407+259172870+259907772+260988026+262214734+263371528
3277+264420095+265162422+265846744+266614622+266876612+266606447+266372651
3264+266347279+266822002+267753141+268333087+268259762+267991995+268026520
3250+268206228+267829338+266968963+266440412+266516479+266916587+267073893
3237+266642490+266252187+266399997+266808557+267119138+267060579+266718654
3223+266532436+266770442+267111632+267112595+266870331+266482721+265931034
3210+265610125+265842991+266218413+266172450+265500838+264587353+264239033
3196+264190704+263684311+263042640+262656205+262275578+261699580+261318333
3183+261353870+261225412+260715315+260267791+260017467+259738588+259505298
3169+259476434+259271077+258639914+258074374+257950109+257982106+258019796
3156+258143784+258094199+257739890+257306268+257079569+257105072+257030637
3142+256724086+256405543+256185077+255924391+255376115+254712726+254266019
3129+253993748+253781669+253382703+252819301+252563200+252367062+251568216
3115+250315923+249274731+248679463+248231401+247600433+246605514+245454089
3102+244420777+243259986+242068521+241452303+241279236+240976732+240510673
3088+239997133+239386349+238786937+238467659+238276693+237814632+237384420
3075+237314488+237367369+237405892+237369474+237227702+236990022+236649729
3061+236299321+236188663+236472632+236715631+236762932+236977132+237198186
3047+237314276+237488029+237459051+237006110+236365940+235902377+235685958
3034+235401728+234994375+234692442+234378043+234122856+234106344+234021695
3020+233846654+233789628+233730612+233594763+233292112+232620108+231781842
3007+231359592+231516702+231767369+231757433+231666176+231623508+231591953
2993+231775087+232246057+232748485+233163392+233600114+234081217+234399369
2980+234483022+234384178+234080842+233821690+233819764+233943393+234019248
2966+233833976+233488429+233452223+233622354+233376712+232761456+232485205
2953+232707449+232918550+232905203+232963713+233217154+233314954+233067877
2939+232829349+232814599+232663559+232211630+231939310+232027206+232020647
2926+231721749+231340111+230920863+230406247+230094018+230209799+230254212
2912+229833104+229492273+229740248+230210092+230395315+230267656+230037303
2899+229959458+230025995+229892332+229670316+229892577+230420230+230694980
2885+230769350+231027702+231365384+231478244+231561360+231785252+231921868
2872+231946685+231923810+231789772+231651833+231681431+231884308+232104595
2858+232154310+232015295+231812729+231486092+230887659+230254766+230019289
2845+230204284+230475705+230661515+230798360+230949400+231105042+231182103
2831+231302387+231528368+231610896+231595689+231772705+232004119+231957666
2818+231704715+231551717+231581184+231728716+232076759+232524837+232651990
2804+232571453+232725365+232955049+233122830+233513556+234072863+234358676
2791+234183488+233824300+233648525+233777897+234054589+234144279+233964147
2777+233871765+234119234+234507839+234622347+234289641+233808359+233591238
2764+233823697+234313643+234555613+234423615+234335719+234432915+234542691
2750+234667315+234787729+234904440+235127418+235282195+235170444+235019894
2737+235145187+235587228+236080274+236220317+235995625+235807074+235774931
2723+235764831+235870805+236194831+236544310+236786150+237072534+237400671
2710+237512715+237415193+237425847+237592551+237695882+237717566+237670967
2696+237614382+237777382+238072886+238258566+238397760+238607898+238859300
2683+239029968+239015952+238935480+239011041+239170044+239194029+239131847
2669+239110489+239116379+239094728+239011792+238931662+238895179+238823665
2656+238738249+238715896+238713106+238617672+238389929+238209242+238242870
2642+238329901+238270118+238100771+237931245+237926350+238104834+238131446
2629+237943074+237825597+237746789+237565107+237399056+237340741+237274252
2615+237156938+237135857+237241620+237314782+237213996+236860601+236280361
2602+235806307+235749657+235892310+235942940+235980092+236077386+236077729
2588+235909051+235728968+235643927+235607542+235522322+235404437+235368508
2575+235357968+235236623+235047974+234999319+235088863+234974192+234535039
2561+234060104+233812112+233706024+233515563+233329427+233272826+233165856
2548+232935502+232737732+232653296+232555218+232308287+232116946+232128987
2534+232131239+232101299+232112312+232043033+231874992+231684123+231514891
2521+231369741+231260911+231286087+231402537+231423944+231337402+231187684
2507+230939366+230722522+230683314+230719471+230740698+230808591+230930506
2494+230953235+230813698+230773152+230943412+231048979+231127770+231461422
2480+231826989+231915325+231858855+231809841+231825896+231942867+231949818
2467+231786590+231781205+231970834+232124452+232201513+232161277+232045089
2453+232063526+232242843+232398549+232421098+232505992+232792376+233019074
2440+233131771+233388606+233717739+233828265+233741773+233763555+233975846
2426+234182215+234270160+234300312+234453555+234731585+234918162+235006009
2413+235131008+235321566+235494241+235569411+235637091+235792830+235981756
2399+236144560+236285027+236456120+236684320+236856930+236880344+236728292
2386+236215553+235082989+233083964+230077147+226316680+222156283+217677523
2372+213029628+208482829+204023893+199714431+196272768+194358376+193974910
2359+195094355+198007142+202795014+209244800+215779855+218977427+217059445
2345+212348895+209284971+208865658+209618623+210811590+211979690+212773070
2332+213507484+215001209+217163119+219130865+220744401+222556065+224888987
2318+227498110+229892952+231766015+233347130+235049443+236842653+238491987
2305+239925358+241155607+242254543+243303632+244295027+245204971+245982215
2291+246544279+246988474+247476723+247960110+248269924+248330669+248313015
2278+248470418+248764259+248964248+249059894+249221213+249438595+249615317
2264+249783049+249909370+249976854+250152124+250489610+250857787+251126337
2251+251252365+251346852+251494189+251633236+251756685+251948777+252182785
2237+252307540+252329828+252412127+252577999+252730605+252835617+252932683
2224+253082401+253268228+253326885+253245173+253262272+253413214+253549929
2210+253656817+253758630+253897401+254102578+254299924+254450425+254544734
2197+254608057+254771481+254959625+254980216+254969626+255111219+255334818
2183+255539033+255723309+255909119+256078385+256179268+256142769+256052425
2170+256137140+256396210+256631344+256792663+256918821+257042629+257246028
2156+257456688+257499518+257475452+257572599+257712267+257819514+258012128
2143+258242840+258346367+258384841+258454577+258561693+258702732+258822346
2129+258941325+259111471+259227676+259237955+259298978+259477935+259625370
2116+259700245+259825456+260028611+260247331+260387259+260390359+260349357
2102+260356422+260406774+260459720+260506156+260577801+260673252+260817830
2089+260969784+261051186+261140909+261213615+261218738+261315967+261487647
2075+261556143+261622257+261815311+261940637+261859496+261773101+261892585
2062+262176016+262462220+262584690+262473968+262321557+262320333+262424350
2048+262509815+262477737+262356964+262327578+262458010+262617045+262758443
2035+262908732+263018296+263103092+263174900+263201283+263276257+263488042
2021+263665221+263645446+263628199+263802523+264092676+264388360+264623722
2008+264796251+264902340+264947226+265039968+265267123+265582061+265782066
1994+265684217+265571324+265894975+266515810+267029512+267296871+267472223
1981+267716298+267900150+267949050+268038855+268243707+268352895+268238959
1967+268254834+268667653+269122437+269358159+269573877+269845951+270075065
1954+270317786+270603289+270820035+270943843+270955313+270833757+271041577
1940+271803810+272458844+272697323+272804815+273048026+273503300+273946924
1927+273989085+273634940+273540060+273821778+274013592+274542958+275545204
1913+276143783+276173283+276296439+276865715+277569339+278116979+278597364
1900+278995514+279097230+279145820+279510620+279747892+279807218+280494461
1886+281490375+282046794+282403729+282910546+283533046+284072202+284357215
1873+284111133+283223362+282836927+284158189+286061584+287285567+287935152
1859+288415243+288968300+289638117+290301865+290836941+291030616+290580155
1846+289865762+290558292+292686460+294141058+294719373+295363835+295939050
1832+295649990+295220121+296042430+297362223+298678459+300310579+301615622
1819+302352206+303057690+303771659+304103728+304458804+305415233+306556460
1805+307320422+307514097+307512759+308241216+309512159+309895494+309349224
1792+310184195+312937277+315093411+316020373+316542723+316970831+317738121
1778+318838721+319004821+317862745+317331225+319308239+322415483+324920917
1765+325921922+325896697+326585441+327885035+329084805+330209455+330362372
1751+329550603+329611724+331334530+333483256+334951952+335667944+336596668
1738+337461432+336974195+337167837+340111494+343186823+345699175+347551239
1724+348595939+348904578+347597088+345288265+345921403+350164262+354199252
1711+356453773+356833258+356401920+356655051+356505006+355270058+355804580
1697+358687312+363171326+367751149+369979630+370662337+370140803+368087004
1684+368776042+374056618+378408763+380276197+380982628+382206383+383235942
1670+384344700+388043639+392106855+393991323+395688904+398848687+401326742
1657+400748459+397337895+397909129+404043471+406631759+408227820+413620620
1643+419282149+422316459+422808722+421803050+423985911+430815752+435869173
1630+438198488+440340166+443006544+446063762+450480227+454411706+456702808
1616+460814778+467379153+472941936+477409699+482074987+487122436+491955782
1603+496857297+502425987+508419096+514086270+519462851+525329574+531754412
1589+538289647+544472221+550375884+557035350+564499472+570504263+574833044
1576+581730403+590379610+596230637+601459947+609257574+617869515+625403862
1562+630125082+631614043+638229325+652916087+666193381+676641363+685479187
1549+694678776+703054326+708470948+711303784+716584197+730739504+744656920
1535+753258223+761274945+770276062+777516520+783684148+790138617+795595311
1522+801337018+810229730+820608597+830657743+839956861+847250641+850784295
1508+851787160+859532967+874517730+884679915+889364326+891456207+894377217
1495+900253371+906497620+910793246+914637759+921062075+928463738+934172617
1481+937687018+939521427+940476388+940552226+940594388+944049071+950201949
1468+954050574+954724046+955287545+956228866+955441441+951600191+947132396
1454+946869899+949840315+952670541+952153706+950252269+949083956+946445675
1441+942521930+938435479+933633395+929936513+926840266+920962741+915206153
1427+913700615+913429504+911775031+910145293+910810868+916057147+924237750
1414+932105145+938796918+944628235+949415047+953573289+957887777+960476913
1400+960229819+960022537+961051965+962434609+965174899+968449908+970792407
1387+972797093+975784086+978570193+979376741+980437366+982895841+985413643
1373+989159344+992933892+994060631+993464694+992210427+990957662+990786406
1360+991388216+992484933+993670280+993509662+991174146+986856265+981797754
1346+977791449+976436086+977609163+977494949+973392899+968902130+966333944
1333+964261969+963035767+962513319+961109660+960742151+962720601+964686324
1319+966858546+970877252+974954435+977158833+978812327+981351209+983786450
1306+986334731+990126248+993338928+993171915+990758211+990525214+993633862
1292+998116016+1002901718+1007043645+1010505116+1014788211+1020350178
1281+1025886691+1030747710+1035154221+1038559173+1040693150+1041998258
1269+1043490482+1045729275+1047707920+1049097417+1050492395+1051128209
1258+1051091204+1052928093+1055711459+1055676477+1054244166+1055136276
1246+1058042210+1060482933+1061324137+1061188124+1061022938+1060889144
1234+1060783937+1061946832+1065101035+1069229125+1072283537+1071995587
1223+1068148333+1063801604+1063028799+1066203299+1069130640+1068904887
1211+1067638677+1067906264+1067470815+1064604562+1062289018+1061596227
1200+1061180880+1062154767+1064478862+1063274000+1057460697+1052750963
1188+1051897686+1053747172+1056322798+1057905610+1058593962+1057839366
1177+1055463647+1053620100+1053553595+1053028210+1049493707+1045799108
1165+1045816143+1047483081+1046513763+1044118072+1044822153+1047042672
1153+1045458032+1041250253+1038816383+1037936608+1035821036+1031619392
1142+1027734676+1026887729+1027551085+1027025178+1026763595+1029009828
1130+1032528210+1033559727+1030220301+1025692266+1022967574+1021447025
1119+1020027441+1016877938+1012462289+1009756458+1008651323+1010075932
1107+1014552669+1016578436+1013913004+1012351991+1014961555+1015768625
1096+1010870993+1007286562+1010009687+1015091629+1018333939+1019111574
1084+1019778650+1022548049+1023286786+1020256065+1019877331+1023791678
1072+1027764371+1030346916+1031717681+1028654589+1020203723+1015620930
1061+1020829029+1029518961+1036525248+1040831381+1040094406+1037670652
1049+1038240287+1039678537+1040748494+1041997214+1041626377+1040757697
1038+1039952455+1037549846+1036299822+1036018006+1034065793+1033563316
1026+1034775814+1035159377+1033575913+1028444696+1024970563+1026385317
1015+1026182865+1022819879+1020499505+1021462101+1024369993+1026171574
1003+1028340272+1031564373+1033157301+1032658871+1030396191+1029328322
991+1032234517+1035618257+1036973293+1038062831+1039234080+1039527774
980+1038085152+1035697619+1034788867+1036854967+1040613657+1040937698
968+1037868210+1038826891+1045343688+1052155875+1054402826+1052420656
957+1051746336+1054723343+1057761439+1057354576+1055724708+1058148658
945+1065673998+1072252275+1071333275+1065359420+1060798425+1059324541
934+1058733630+1058378457+1057669219+1055979373+1059330350+1068501614
922+1072913673+1070835171+1067515783+1061125013+1053206058+1050723695
910+1053532319+1056837414+1057851114+1054740508+1049818989+1047974790
899+1051755473+1059432881+1062996950+1061512819+1065681243+1073741823
887+1071993433+1062788558+1055895311+1047908089+1036964744+1033891209
876+1044286783+1057890207+1062048189+1058150681+1053572718+1049474323
864+1046097044+1044577800+1043453868+1042711346+1040228592+1034039426
853+1029704380+1028492731+1026836887+1027465130+1032050208+1035773523
841+1035942625+1034439045+1033318376+1033007648+1031501327+1026757003
829+1020106151+1016241667+1016644353+1017714834+1019546176+1022381427
818+1021160967+1016985560+1015748849+1015888843+1016039737+1017931645
806+1015645665+1008435490+1006191607+1009325251+1011391156+1012299648
795+1010831311+1004728165+1001131073+1003586611+1003171981+996369845+991092826
781+991690198+995131503+996787085+993960384+990280666+990106668+989939263
768+987160792+985959456+988515111+989565620+984311835+976936605+973567092
754+974227837+974186459+971421759+968869498+968628147+970261409+970595175
741+965459847+957445866+955455147+960321908+961235165+953358110+943264714
727+935443330+928989841+922986616+918008903+914839950+914812213+916891432
714+917459500+917327404+919987875+925048017+931908893+939580623+941572583
700+937082075+934407963+933960831+931999546+931332862+930934352+927638720
687+925180114+926506434+930266689+931533748+928777076+929827977+934438833
673+933228164+925687617+915514205+912306877+920342134+926131028+925258106
660+921336124+919918498+923886297+928860159+930317727+930078921+929764539
646+928696800+933536933+946431186+952528132+945121052+930254224+915483988
633+913219219+936751767+977104336+978026338+942928533+926349406+925890526
619+930184325+938544407+938644132+925754905+910503142+903658648+907071432
606+915947436+922882322+921383115+914617331
##END=
