##TITLE=Sample description
##JCAMP-DX=4.24
##DATA TYPE=INFRARED SPECTRUM
##DATE=12/9/2023
##SAMPLING PROCEDURE=Instrument type and / or accessory
##ORIGIN=Default
##XUNITS=1/CM
##YUNITS=ABSORBANCE
##RESOLUTION=4
##FIRSTX=4397.6552
##LASTX=599.8556
##DELTAX=-1.9287962
##MAXY=1.9799501
##MINY=0.33852524
##XFACTOR=1
##YFACTOR=1.8439722e-009
##NPOINTS=1970
##FIRSTY=0.35018787
##XYDATA=(X++(Y..Y))
4398+189909516+189550105+189904053+189919957+188837828+188105414+188105349
4384+187747538+187136291+187104888+187786747+188486531+189128422+190032945
4371+190241581+189713745+189364177+188804114+188259971+188616667+188983836
4357+188106060+187078269+187288973+187552350+186905578+186809559+187950792
4344+188818806+188827566+188835259+188743782+188584505+188764437+188550759
4330+187828930+187300351+186927364+186924051+187738391+188932683+190087056
4317+190859035+190565710+189826734+189916837+190285235+189692896+188831073
4303+188884617+189091605+188737818+188299924+187988207+188283035+189228384
4290+189888942+190191883+190660242+191608387+192782300+193011833+192055833
4276+190874761+189916643+189420098+189360686+189398489+189890768+190633542
4263+190542195+190022780+190522121+191727227+191718564+190090951+188679861
4249+188818256+189611278+189482273+188992337+189518961+190138209+189536674
4236+188446837+188252327+189190985+190413367+190901848+190197895+189180738
4222+188598372+188251890+188829747+190103573+190317349+189795784+189972338
4209+190678828+190987749+190499559+189781173+189924304+191019637+191785765
4195+191453216+190766556+190425860+190172230+189939400+189946430+189941307
4182+190000508+190516206+191233364+191873347+192380641+192029020+190578769
4168+189589152+189815130+189944539+189407443+188774199+188365461+188626849
4155+189625048+190575585+191161232+191572459+191580993+191186623+191059686
4141+191590205+192202810+191984413+191223537+190942835+190834178+190277057
4128+189888635+190076922+190542954+191272395+192165735+192540241+191946448
4114+190886413+190311660+190608071+191216103+191426629+191310295+191331111
4101+191421813+191176522+190856368+191192506+191979063+192281939+191888637
4087+191295604+190978375+191080746+191482792+191973293+192069037+191759906
4074+191795689+192071284+191989843+191713295+191258447+190780972+190984258
4060+191591886+191668946+191300307+191138266+191246406+191369254+191258431
4047+190787405+190413626+190666012+191312848+191346255+190410086+189878404
4033+190528635+191217218+191193993+190953114+190741650+190526453+190548207
4020+190623328+190574341+190673155+190933978+191426968+192166575+192693813
4006+192724003+192490914+192523255+192838220+192644615+191795657+191230099
3993+191419308+192015331+192565987+192540710+191901437+191298933+191104843
3979+191489839+192351032+192840903+192880565+192975533+192415696+191258124
3966+190857952+191214244+191637867+191941050+191875933+191325132+190680170
3952+190622633+191112439+191540410+191750516+191746944+191503560+191138476
3939+190883068+190523447+189686335+189239487+190191058+191367573+191277567
3925+190652727+190692372+191025568+191399865+192152029+193084190+193213195
3912+192352907+191441450+190332315+188764307+188164712+189109140+190874179
3898+192538932+192100973+189521902+188377405+189999619+190518113+189872909
3885+190054910+189428712+189189821+190615780+190152447+188318413+187670946
3871+188200237+189997583+190715403+189953994+190724632+192246496+191703242
3858+188335723+183584783+184053142+190668452+194071932+193612349+191270326
3844+188591988+186597885+185465477+186699075+189753439+190948217+190612305
3831+190786160+191235885+191607498+190902786+188716662+188795452+190364380
3817+190625882+192485759+194148621+192827101+190198929+189050375+189168164
3804+188129415+188862589+192028454+192896581+192955007+193966232+194357709
3790+194101573+193790099+193334653+192947475+192361602+191809637+192404690
3777+193385014+193201009+191535981+190345648+191466145+192910077+193458987
3763+192883539+190965058+189880586+190290196+189376622+186270863+184703486
3750+187450901+188928029+188231769+190219487+192535489+191387258+188697914
3736+187953604+190109311+192978264+194423343+194006524+193281545+193733095
3723+195041330+196888504+198825700+199903724+199469482+198320185+199626383
3709+203824049+207791405+210070057+212197577+216905219+222797149+226957416
3696+228807547+228037088+225169945+223839988+225985593+227369289+225964130
3682+222915779+219488201+215986101+214171655+215952484+216796885+216255894
3669+217838948+219399278+219331397+219211427+219545803+219414212+219347511
3655+219783401+218353159+215458702+216284306+221266622+224769013+225664599
3642+225709659+226213623+227064748+227850739+227908939+226370444+225354596
3628+228615898+231763533+231503001+229719263+228649337+229710002+231035515
3615+231173183+231483073+232209395+233178179+234689199+235335486+234799327
3601+234700124+235126818+235068037+235275719+236323341+236799539+236330824
3588+237152000+239556732+240842760+240691096+240340719+240388559+240904192
3574+241511819+241384689+240285671+239704986+241277922+243019461+243039567
3561+242668939+243379842+244495183+244789478+244722648+245009427+244963300
3547+244702009+245296868+246297960+246525004+246174159+246232116+246680952
3534+246820220+246435386+245629887+244993798+245176720+245804275+246253999
3520+246486797+246428404+245965265+245363213+245030518+245098851+245241610
3507+245039876+244610386+244682792+245329952+245587025+245152962+244728143
3493+244620067+244272584+243556364+243252437+243752959+244525924+244831370
3480+244599008+244286483+244091569+244076167+244307057+244575169+244387900
3466+243617375+242943516+242971929+243327057+243379632+243152766+242717555
3453+242194988+242061716+242261769+242308559+242108440+242031752+242448425
3439+243113330+243464192+243483538+243639630+243892873+243600906+242872209
3426+242649432+243116450+243683882+244244898+244706890+244648803+244555290
3412+245058575+245462384+245302444+245227081+245539606+245984061+246158951
3399+245976788+245900698+246081163+246491258+247201773+247946244+248398280
3385+248403662+248228158+248349034+248642391+248669753+248542995+248836238
3372+249628953+250336672+250636655+250756739+250986563+251179408+251039316
3358+251041918+251725766+252567613+253064983+253343245+253415651+253682389
3345+254671796+255628102+255775096+255688177+255837869+256041915+256124665
3331+256021906+256080397+256598600+257161458+257395436+257263618+256784560
3318+256471906+256681931+256916345+256927254+256925574+256780261+256181636
3304+255216666+254627592+255063919+256302689+257531536+258023880+258073837
3291+258643338+260033288+261871363+263639618+265266438+266835205+267890893
3277+268322516+268650281+269176582+269568705+269453712+269307607+269675940
3264+270411893+271048031+271137601+270698317+270064135+269726462+269994428
3250+270010283+269132605+268449258+268792168+269544914+269993232+269980497
3237+269766237+269840081+269956221+269350889+268568049+268395988+268208525
3223+267751285+267655202+267818778+267799642+268014645+268612931+268615533
3210+267865001+267565648+267892072+267601253+266602100+265987346+265874680
3196+265826937+265740632+265561799+265155648+264413892+263616167+263235066
3183+263318397+263418392+263110069+262152598+260665692+259481032+259130284
3169+259314224+259670079+259937512+260012116+259948082+259682605+259108465
3156+258533210+258588630+258954667+258622295+257912152+257894180+258449281
3142+258699178+258427704+258012421+257531245+257117853+256878849+256235827
3129+255195461+254387990+253773575+253441575+253538207+253193940+252060271
3115+251025756+250401304+249876151+249367597+248777473+248005446+247192156
3102+246619310+246121374+245284957+244236462+243221277+242255095+241492409
3088+241043298+240611546+240123582+240017171+240136916+239824649+239134757
3075+238637452+238475007+238269443+238006115+238096299+238343044+238380459
3061+238472195+238605289+238327884+237866103+237860010+238193336+238222573
3047+237806740+237423603+237468727+237723893+237753098+237529594+237132493
3034+236666348+236532057+236705217+236679552+236396539+236011010+235681450
3020+235644035+235716376+235670896+235507838+235172944+234843659+234592065
3007+234171755+233657948+233225356+232927215+233035727+233344825+233168239
2993+232859852+233330716+234399123+235282054+235686072+235898344+236290338
2980+236653838+236580834+236306937+236228906+236259905+236243355+236270637
2966+236246394+235876671+235319679+235021167+234969060+234767859+234377062
2953+234078177+233957301+233993763+234024212+233926238+233836474+233754694
2939+233713320+233786437+233773345+233701327+233887013+234163125+234034006
2926+233585898+233262221+233062265+232591303+231827179+231324136+231262219
2912+231355426+231500916+231587609+231542243+231575569+231766426+231825531
2899+231671329+231587965+231591294+231599650+231802548+232210542+232676526
2885+233144966+233404690+233317059+233132925+233121321+233239158+233293091
2872+233330199+233446565+233416342+233205186+233126428+233193177+233198640
2858+233173670+233127592+232907966+232627716+232452989+232180756+231830201
2845+231821102+232100220+232224070+232163365+232135357+232144197+232230874
2831+232563375+233009560+233199981+233069958+232861516+232691540+232661317
2818+232948161+233280678+233269333+233146275+233256678+233472845+233621164
2804+233879675+234282174+234522956+234571426+234566109+234478737+234474341
2791+234710791+234965634+235131925+235241601+235162471+234954983+234832734
2777+234883353+234987873+234926813+234799375+234714492+234531150+234398024
2764+234616615+235064125+235324706+235292689+235272325+235377685+235454050
2750+235570013+235815530+236014436+236053112+235950548+235822641+235819506
2737+235848064+235846594+236038308+236489697+236912140+237023043+236868745
2723+236713815+236685096+236797890+237052264+237286113+237412774+237551008
2710+237712984+237782545+237794699+237940061+238169254+238276101+238265855
2696+238276182+238444073+238702924+238872464+238940797+238947472+238925217
2683+238914291+239011231+239226347+239331805+239277161+239179769+239019183
2669+238834564+238776187+238915503+239052945+238948975+238812891+238845441
2656+238803161+238598728+238420865+238359594+238435491+238524334+238410343
2642+238128138+237923737+237915721+237972692+237957709+237834862+237606379
2629+237405049+237298073+237173172+237074309+237117753+237170861+237046721
2615+236792460+236619575+236644739+236745137+236732887+236590984+236399755
2602+236142536+235788637+235505737+235549374+235891912+236127166+235980076
2588+235684230+235586498+235709911+235775384+235613941+235443933+235408247
2575+235298426+235016997+234746881+234653707+234731640+234750679+234468377
2561+234060609+233823884+233618610+233256985+232940064+232826251+232770201
2548+232682813+232575158+232362207+232078870+231943352+231960597+231912321
2534+231738579+231566599+231492722+231461982+231378586+231265452+231191026
2521+231160900+231128058+231071798+230966406+230775710+230617193+230663691
2507+230829481+230817053+230585564+230446781+230539583+230624514+230501829
2494+230346350+230393527+230551947+230668330+230814709+231097545+231416421
2480+231571060+231558001+231515365+231500625+231514072+231513393+231491639
2467+231534970+231597387+231611755+231688040+231819050+231866938+231828343
2453+231767186+231805958+232065537+232361738+232517330+232705407+232965422
2440+233128044+233207513+233283442+233369537+233524175+233760981+233916315
2426+233898391+233907264+234074169+234257624+234350588+234398185+234506729
2413+234716028+234962741+235230449+235469323+235579597+235601367+235650807
2399+235829979+236113493+236319931+236448952+236676514+236969531+237100993
2386+236799878+235781606+233957318+231446967+228340126+224831528+221265361
2372+217698403+214091750+210666678+207487996+204669694+202714784+202169478
2359+203339980+206065657+210037830+215309268+220748209+223441659+221913103
2345+218083527+215487971+214917484+215418555+216554244+217824386+218774486
2332+219527346+220767458+222594025+224208902+225383881+226902174+229084371
2318+231372606+233304598+234750033+235938103+237301903+238889402+240404882
2305+241660526+242661359+243467456+244160807+244827717+245455208+245983625
2291+246475678+247022083+247559681+248000290+248285808+248390021+248470201
2278+248649486+248847843+249008639+249175576+249356963+249479487+249606795
2264+249830768+250028931+250154316+250257236+250371517+250591192+250867530
2251+251093847+251317675+251538399+251698145+251797832+251848807+251932187
2237+252126923+252363923+252541544+252613869+252589626+252564397+252653110
2224+252814650+252924487+253035278+253213286+253385492+253545771+253697824
2210+253771587+253762326+253755603+253840162+253978623+254085793+254239138
2197+254470174+254623002+254686681+254753058+254803872+254891147+255101156
2183+255380145+255588166+255660039+255713389+255869240+256076857+256194194
2170+256215447+256304338+256497943+256721981+256916636+257021188+257120488
2156+257295732+257458339+257577323+257723978+257878373+257930609+257893065
2143+257892806+257998199+258197218+258372026+258448650+258576314+258803084
2129+258987169+259103730+259131237+259100465+259203918+259407802+259532379
2116+259609956+259742873+259899305+260019567+260122648+260208226+260293125
2102+260379026+260368570+260278256+260246142+260316883+260436757+260560477
2089+260676214+260808516+260977732+261130674+261214668+261215298+261161365
2075+261135587+261227840+261426083+261501980+261401969+261454237+261720668
2062+261885489+261902103+261983544+262129454+262174126+262134060+262188688
2048+262321298+262345363+262280424+262280327+262344280+262375618+262444355
2035+262649532+262859396+263000927+263135750+263219680+263248384+263352936
2021+263527421+263606292+263648830+263829069+264049535+264173401+264254276
2008+264377236+264549782+264756252+264972629+265149005+265327951+265510259
1994+265517031+265453869+265649123+266055064+266460166+266742581+266914367
1981+267131471+267386540+267569123+267722484+267941706+268146107+268201462
1967+268273044+268552404+268860743+269038186+269214158+269506206+269814788
1954+270009362+270156954+270355520+270534919+270581643+270597046+270953580
1940+271623108+272149828+272504940+272836650+273093270+273305704+273564038
1927+273738070+273763477+273905606+274107082+274235020+274734427+275526883
1913+275964227+276032528+276186229+276676488+277332763+277893908+278308949
1900+278638396+278888940+279119733+279411070+279553781+279667270+280321283
1886+281285832+281996056+282464335+282926084+283436222+283856176+284173469
1873+284184976+283641415+283405126+284498067+286073412+287117769+287677202
1859+288120817+288704266+289410740+290062813+290547286+290789005+290668243
1846+290412559+291123753+292807739+294011325+294626484+295310202+295906516
1832+295785236+295548689+296343085+297635659+298978464+300479916+301723358
1819+302576745+303274621+303779717+303954460+304318300+305408946+306734587
1805+307573655+307759583+307808651+308516450+309633149+310046380+309854343
1792+310848921+313250469+315103833+316028721+316701772+317329020+318086275
1778+318964326+319199645+318531701+318477009+320498167+323141369+324951774
1765+325583774+325764497+326763601+328182077+329483928+330635796+330802071
1751+330165416+330475113+332175617+333920501+334994758+335674792+336786092
1738+337837917+337619503+337961783+340636565+343404667+345657944+347298551
1724+348336024+348839180+348011717+346518120+347571366+351325417+354664232
1711+356503018+356887739+356798039+357432270+357726354+357096390+357813661
1697+360386688+364422636+368496920+370527840+371269031+371028346+369802295
1684+370982672+375402307+378888293+380597912+381639458+383194665+384421782
1670+385580341+388822540+392362573+394263485+396197562+399217081+401442139
1657+401271371+399351323+400976640+406074272+408071736+410111707+415581227
1643+420663052+423409497+424184304+423777345+426143303+432323209+436988797
1630+439582285+441972551+444555824+447523624+451712918+455335183+457856297
1616+462700346+469496800+474758574+478930089+483411689+488427250+493435570
1603+498599886+504365559+510377928+516200815+522024767+527910039+533725006
1589+539673697+545858387+552424564+559575419+566857963+572912257+578097228
1576+585524001+593733921+599676180+605887375+614108285+622147599+629039151
1562+633618886+636276376+644802296+658720449+670508576+681072140+690555304
1549+699386816+707396585+713848724+718439062+724025174+736185222+748629205
1535+756802922+764514470+773868015+781953940+788607587+795438240+801673354
1522+808353571+816868372+825099432+833147150+841235273+847418540+851077299
1508+854607538+863473054+874943695+882934781+888848724+893646518+899106632
1495+906616025+913425279+917048805+918013613+920723080+926127725+932241819
1481+937890898+942102075+944852270+945544263+943734375+944459080+950153802
1468+953937461+952134878+949705079+949919905+948763609+945816755+948133031
1454+954091452+956629213+954437190+949197139+945973526+945727799+945091209
1441+942377605+936336047+927975755+922816450+920250114+915411528+909958719
1427+909117066+912881201+917277142+919673453+920879011+924591040+931240290
1414+936473360+939032778+940703866+942407214+944649857+947668793+950741647
1400+953358795+955815035+958855370+965039607+973336479+977416679+977018964
1387+976732961+977044758+976597458+976696758+978107185+980408851+982976997
1373+984891809+987134581+989417434+988391146+983802488+979426782+978678416
1360+982129654+987689261+991625102+991100159+986993130+982805550+981090307
1346+980132222+977496584+973224767+969219624+968287721+968491298+965291282
1333+959561392+955379242+954942738+957026993+959128509+961201644+963501500
1319+965358322+967896342+971015225+973289803+974463231+974799207+976414439
1306+980683606+986013065+991091690+994214323+993156292+990968083+991853568
1292+993891729+995818759+999184921+1004114597+1010712904+1017092766+1021406604
1279+1025161948+1029001139+1032986306+1037100447+1039182244+1038976599
1267+1039083591+1039356988+1038679412+1038734556+1040534747+1043457164
1256+1046955531+1050633232+1053370626+1053960217+1053280830+1052575520
1244+1052524189+1053393318+1054794113+1057807102+1062577873+1065110591
1233+1063937358+1063455406+1063971815+1063557615+1065957417+1069313429
1221+1066328367+1060389147+1058335148+1058842764+1058981564+1059607293
1209+1060618777+1059258581+1055754008+1053433917+1053449303+1055028462
1198+1056419301+1056260978+1055686386+1055496256+1056118429+1056922199
1186+1056064642+1054718539+1054176142+1053508586+1051602307+1049218990
1175+1048849850+1049430196+1047414016+1042417558+1037665988+1036316394
1163+1037703936+1039047906+1039443811+1039612413+1039556880+1038748326
1151+1037426402+1036437933+1035814143+1034819080+1034050867+1033285692
1140+1031307395+1029188425+1027445124+1026311003+1026958906+1027075984
1128+1024608107+1022389902+1021971435+1021604880+1020481490+1018776526
1117+1017339463+1018093325+1020252442+1021173095+1021223198+1020019450
1105+1015485873+1010645541+1009855153+1011183219+1012296653+1014238294
1094+1016387068+1018772582+1020408955+1018862831+1018366269+1020965510
1082+1020583634+1018756550+1024164040+1032996456+1034481488+1031754566
1070+1032892243+1036866550+1038489282+1037311652+1037592289+1040853074
1059+1045910624+1051218944+1054519940+1055227643+1052618575+1044774175
1047+1035752017+1032666816+1036677131+1042844753+1043406222+1038264823
1036+1034575163+1033781349+1035065066+1036285945+1032915000+1026687255
1024+1021882156+1019234493+1020173054+1024676957+1027088396+1027494063
1013+1030762218+1034078601+1036261961+1038159382+1037955418+1037061205
1001+1035380678+1032603202+1031866214+1033104160+1032730817+1030557477
989+1030885954+1033973483+1035304975+1035258040+1038551538+1043817836
978+1044136357+1041880656+1044589993+1048514326+1048788563+1049170504
966+1051768453+1055584371+1057639146+1055843545+1054258503+1056252121
955+1060285710+1062993431+1063850858+1065240922+1064226722+1057441840
943+1052124405+1054939313+1061974318+1066821891+1066260228+1062953543
932+1062539536+1063405562+1061682626+1057754543+1055467681+1058782512
920+1063035646+1061356864+1057193592+1056366807+1057978032+1058515839
908+1058775660+1062652347+1069903730+1073741823+1069824666+1063525549
897+1062122298+1064040342+1063257777+1060024338+1056205187+1053221419
885+1053879666+1057862118+1061506395+1059165229+1054047233+1056427124
874+1063160287+1063467366+1056698387+1049382033+1047720836+1050877861
862+1051854564+1049612374+1047234747+1043796050+1037335248+1027825126
851+1021728616+1026572634+1037925938+1045484011+1045408567+1039921625
839+1034218370+1031537478+1032798956+1036212634+1034599470+1026963302
827+1019724073+1015387220+1016459344+1022730985+1029035467+1034358010
816+1035758093+1029224304+1022836491+1025489261+1032992125+1035293403
804+1029858761+1021527561+1015685507+1015792434+1019499292+1020070264
793+1015966532+1009981540+1005581074+1007141614+1011899197+1012068834
781+1008855241+1006817663+1004900847+1002308200+999022977+994046044+990373127
768+991672230+993640700+989386080+981903839+978151922+977468333+975554620
754+974860687+980269858+985395030+982194755+975270039+968475653+960946995
741+955005059+953474580+955111017+955430767+952236828+947817549+944841344
727+943960643+944465610+943402536+937691847+930023355+925090252+924620649
714+928316903+931475028+928708994+923855862+924399746+930789693+937928200
700+939651719+936657089+938286415+944861256+946162557+940456781+935550120
687+935848083+938788990+938733392+933314977+928010989+928459000+933133510
673+940037538+944411111+938094475+934085130+945616669+952277556+948360011
660+947528701+953646932+957171352+953295505+944188269+931941657+919872505
646+915549551+927355910+948344689+955460246+948028560+948385418+961028969
633+960944086+941431222+927908974+926832777+944066084+985482369+1021352494
619+1028118240+1014850576+984353290+951842345+946001713+969380339+986161433
606+973425176+953278761+949561366+967341661
##END=
