##TITLE=Sample description
##JCAMP-DX=4.24
##DATA TYPE=INFRARED SPECTRUM
##DATE=12/9/2023
##SAMPLING PROCEDURE=Instrument type and / or accessory
##ORIGIN=Default
##XUNITS=1/CM
##YUNITS=ABSORBANCE
##RESOLUTION=4
##FIRSTX=4397.6552
##LASTX=599.8556
##DELTAX=-1.9287962
##MAXY=2.0069032
##MINY=0.33139262
##XFACTOR=1
##YFACTOR=1.8690742e-009
##NPOINTS=1970
##FIRSTY=0.36278766
##XYDATA=(X++(Y..Y))
4398+194100190+193321582+191019543+188715002+187789094+188692216+190064839
4384+190277529+189698838+189747438+191057285+192965897+194096061+193978977
4371+193485990+192893396+191939137+191353670+191682009+192360005+192721573
4357+192398145+191556554+191221184+191686187+192218796+192711272+192886874
4344+192639998+192541219+192288157+192069089+192469722+192606562+192061611
4330+191362839+190497362+190197517+191174863+192059618+192198913+192641210
4317+193071070+192565966+191608168+190664242+189708166+189762267+191405715
4303+193235686+194127026+194144087+193492400+192614646+192183319+192431358
4290+192801935+192853087+193209218+194077277+194331791+193621778+192595400
4276+191406719+190481640+190885303+192592929+194045435+194104990+192864679
4263+191152572+190558606+191523070+192227837+192078257+192455675+193312908
4249+193941586+194324042+193886735+192807373+192168474+192252073+192828436
4236+193239736+193200974+193295113+193215101+192637702+192583234+193166613
4222+193242862+192731140+192584366+192945328+193002427+192660870+192574417
4209+192739192+192876813+193059989+192868027+191964330+191259770+191340739
4195+191819008+192571770+193328789+193448217+192845880+192355636+192610596
4182+192791220+192215703+191844313+192309762+192712723+192585195+192749732
4168+193675719+194402060+193773685+192624340+192600503+193190434+193179209
4155+193054009+193218992+193053786+192562841+192422397+192899232+193659583
4141+194410910+194763373+194139654+193141818+192676975+192730071+193164301
4128+193258870+192560146+192278287+193008311+193603218+193339376+192546912
4114+191737450+191577043+192175282+192624675+192498184+192403662+192575931
4101+192706202+192905785+193160187+193162658+193229213+193595612+193730267
4087+193315028+192869430+192788111+192675619+192648545+193315953+194204869
4074+194402937+193571392+192405719+192176590+192333153+191842686+191739698
4060+192567768+193334402+193663745+193807552+193716985+193411846+193521962
4047+194261330+194543062+193883929+193479804+193791528+194063979+194134966
4033+194258061+194455524+194339859+193709443+193353376+193452681+193339823
4020+193223552+193447706+193646939+193823338+194297876+194676681+194650196
4006+194572719+194483252+194253071+193713940+192532721+191211027+190956051
3993+192070412+193586651+194487175+194545980+194233698+193847622+193389125
3979+193201548+193087063+192660631+192427787+192503605+192573763+192673929
3966+192584032+192331463+192675125+193402184+193453080+193091305+192790025
3952+191943124+190902539+190800300+190813279+190326639+190896145+192276979
3939+192678792+192190382+191702084+192033053+193398293+194003261+192446857
3925+190782936+190947951+190923108+190045003+190933297+193651292+195260936
3912+195092414+194009049+191210405+186881666+184368165+185203554+188084937
3898+191509819+192375774+189595307+187267358+188586868+189459982+188855589
3885+189277684+188578768+187945769+190051429+190241652+187583946+185234104
3871+184234802+185721574+187085921+186865800+188504640+191152190+191012735
3858+186767117+179319081+177303079+185683976+192059857+192964223+190366374
3844+186822335+183997445+181968432+182398101+185554200+188057304+189208116
3831+189894531+189894562+189601510+188017665+183855024+182545480+185272755
3817+186958409+189974096+193356900+193076922+189647463+187047701+186505381
3804+184209465+183617205+187463721+189448534+190373884+192499475+193573624
3790+193048939+191859875+191154390+191749392+191667850+190679326+191987483
3777+194221850+193837449+191017614+188751053+189302669+190806678+192049221
3763+192008083+189448598+187683697+188385148+187064586+181811900+177976275
3750+180682343+182343266+181027839+184305581+188568228+187111353+182101716
3736+178915418+181269644+186844976+190556119+190688510+189483166+189395629
3723+190819131+193595755+196594748+197936900+196186605+192555012+192870387
3709+198489903+204066766+206574510+207745030+212076081+218503943+222727445
3696+223774965+221537090+217012164+215318713+219127981+222193033+221402371
3682+218203731+213521620+206957094+202162746+204313945+205952035+204920922
3669+207661829+211732834+213165792+212885097+211909026+210117625+209028950
3655+209394792+206872888+200968165+199897030+206719243+212996440+215581996
3642+216276607+216527676+216291403+215602948+214108554+210388370+206694544
3628+210016916+215918243+217277631+214854045+212270099+213248722+215480395
3615+215792119+215578408+215467750+215771630+217664887+219197963+218722835
3601+217915733+217980278+218057723+218331051+219074119+218527446+216485980
3588+216649527+220052868+222656059+223373965+223386929+223160973+222950930
3574+222899906+222298685+220155538+217787280+218911608+222312972+224063649
3561+224399370+224805425+224997179+224534057+224347055+224795587+224634590
3547+224199564+225176177+227014583+227937510+227614114+226979760+226838679
3534+226960594+226576001+225873785+225714431+225942077+226175559+226413889
3520+226366006+226151403+226204356+226324103+226120055+225898261+226002158
3507+225906010+225621743+226163346+227235214+227541868+227157020+226877186
3493+226766225+226523351+226171254+225949380+225817738+225745364+226205456
3480+227141123+227630219+227307572+226698140+226585489+227180331+227565721
3466+227024868+226309242+226308445+226678926+226898727+227093671+227231515
3453+227242278+227167113+227023050+227238706+227814845+228275448+228654172
3439+228971158+229108014+229203731+229444118+229813850+230098690+230145058
3426+229966379+229796007+230127822+231058912+231693043+231410961+231014458
3412+231262641+231849878+232452917+233028913+233589298+234150370+234326179
3399+234211598+234533974+235154041+235634144+235949025+236200860+236698184
3385+237167093+237174571+237250964+237852312+238560428+238835096+238762546
3372+238838126+239263394+239850184+240362002+240794302+241305194+241846669
3358+242296301+242827125+243610198+244367297+244648279+244436578+244345421
3345+244904674+245642735+245982506+246201670+246654523+247282643+247569365
3331+247414173+247566622+248110425+248528550+248616263+248438126+248225277
3318+247916327+247701644+248120120+248627074+248636035+248968854+249646563
3304+249499822+248706448+248159057+247999863+248353474+249297687+250504642
3291+252029666+254087443+256085092+257404474+258232098+258938364+259663062
3277+260590374+261752204+262689576+263290749+263976207+264695453+265114327
3264+265228365+265026311+264507796+264073870+264082991+264544693+265011641
3250+264742108+263835206+263154005+263198795+263738707+263953167+263439197
3237+263134999+263797990+264328416+263849556+263410161+263884492+264637716
3223+264684467+264114179+263758208+263889148+264148891+263904343+263081854
3210+262620933+262803423+262701551+262012553+261402531+261218781+261001403
3196+260325065+259919904+260497175+261281365+261240673+260279351+258957099
3183+257714476+256832959+256777327+257157694+257007301+256398570+255959430
3169+255863361+255706878+255112768+254568264+254688999+255195236+255557952
3156+255550426+255197930+254884388+254714192+254354729+253893744+253663100
3142+253742283+254026948+254012199+253182582+252081614+251746356+252002607
3129+251912135+251423390+250862494+250144684+249434240+248837675+248136878
3115+247513621+247006300+246302872+245615533+245121223+244463493+243504515
3102+242374161+241135843+239909260+238859205+238041834+237388537+236885362
3088+236581785+236386779+236185505+236085004+236048905+235703776+235113685
3075+234795965+234937509+235280070+235348060+234900134+234178847+233642905
3061+233623102+233965727+234217769+234173554+233940151+233669725+233448153
3047+233361126+233367902+233297808+233237967+233358941+233423981+233115860
3034+232494517+231920737+231700346+231729510+231680845+231399066+230990795
3020+230719141+230782458+231116808+231343131+231118594+230567664+230021931
3007+229584896+229211975+228927341+228826091+228847106+228806367+228748853
2993+228842179+229153361+229720540+230424095+230982615+231349126+231679953
2980+231999139+232269087+232471668+232572823+232399676+231833630+231243730
2966+230933314+230748591+230588743+230524580+230508540+230459190+230480317
2953+230381953+230037207+229872862+229971306+230230715+230499355+230392508
2939+230223795+230327405+230313039+230135922+229963844+229646523+229278306
2926+229081848+228926464+228573794+227983240+227382386+227093862+227033048
2912+226802244+226596602+226825189+227116918+227185545+227307668+227458332
2899+227454999+227366600+227334982+227465762+227701827+227914374+228112107
2885+228323777+228541888+228769311+228909993+228860373+228760318+228852161
2872+229170311+229537412+229753769+229796262+229709793+229519490+229427583
2858+229522726+229614235+229497788+229055220+228466612+228022353+227819820
2845+227807814+227762960+227652781+227724326+227978600+228231695+228538077
2831+228978381+229345291+229423182+229272056+229101173+229083188+229292816
2818+229517528+229440721+229240740+229300087+229560899+229688969+229649856
2804+229773078+230101050+230337642+230470559+230680554+230889162+231027198
2791+231231293+231350514+231206036+231126184+231289875+231427911+231521731
2777+231717646+231809936+231691768+231544580+231301068+230972889+230975297
2764+231376966+231771461+231928200+231880205+231752167+231678725+231802458
2750+232162750+232425794+232350024+232240657+232411061+232770094+233036965
2737+233103902+233127149+233233168+233269841+233104524+232977474+233116945
2723+233454069+233818475+234002735+233964515+233939226+234172725+234613029
2710+234870396+234839973+234886054+235044547+235099111+235135322+235182009
2696+235204236+235389262+235736782+236016234+236180562+236309302+236422208
2683+236461544+236414571+236424265+236482656+236436989+236375202+236404286
2669+236474699+236536932+236544777+236504931+236465260+236497022+236582838
2656+236537283+236355622+236236226+236229450+236271098+236270667+236090968
2642+235798537+235693619+235860722+236053624+236046449+235848620+235586549
2629+235367832+235263631+235186075+235027183+234934734+234979428+234960214
2615+234797480+234618307+234579321+234718744+234829801+234694173+234403129
2602+234235372+234216015+234115418+233931142+233863934+233977494+234127329
2588+234065080+233820692+233712122+233758570+233746452+233692733+233596792
2575+233366244+233126368+233002827+232976023+232983230+232899599+232676848
2561+232391688+232132726+231936587+231767156+231605187+231460040+231311560
2548+231191335+231153227+231099652+230908934+230676456+230512303+230353571
2534+230192558+230139701+230186754+230113089+229817055+229544428+229478591
2521+229553628+229649298+229626114+229427918+229129125+228865140+228747705
2507+228802604+228962580+229066876+229068024+229017383+228921250+228891944
2494+229015087+229145995+229145787+229166213+229352386+229530492+229659901
2480+229871267+230021772+229951726+229801747+229767625+229822635+229849503
2467+229885171+229993820+230097558+230141710+230151165+230101082+230060614
2453+230172659+230387805+230583593+230697105+230692066+230715776+230924448
2440+231133965+231254876+231507651+231802761+231852924+231775606+231839896
2426+232001722+232123972+232279738+232524238+232706649+232713633+232660488
2413+232685474+232827847+233091512+233366707+233611079+233924669+234244222
2399+234446229+234552805+234611307+234665472+234735502+234753488+234605216
2386+234039313+232725193+230455905+227097673+222726121+217769502+212717834
2372+207848513+203244787+198896276+194831777+191516867+189502715+188903057
2359+189926118+192860740+197661865+204297601+211185507+214612925+212725089
2345+207820402+204266987+203403934+204144227+205590307+207031238+208056563
2332+208807650+210132916+212414401+214792290+216605615+218401321+220839481
2318+223673460+226190659+228117656+229869721+231778365+233665659+235415937
2305+237075091+238463786+239461031+240262425+241041464+241820902+242580058
2291+243305267+244024464+244754202+245418788+245863907+246030963+246014173
2278+245934368+245926125+246073345+246305886+246485793+246564944+246688996
2264+246987740+247324227+247559622+247740040+247894451+248014182+248173472
2251+248479472+248839110+249020660+249075096+249190442+249341823+249470674
2237+249550830+249544101+249565212+249775861+250086373+250306541+250411427
2224+250449472+250518083+250652595+250728876+250758230+250826698+250923819
2210+251055875+251173660+251295799+251516350+251682257+251678143+251686243
2197+251833383+252072063+252254697+252254665+252198794+252281532+252484576
2183+252729076+252985598+253171740+253232905+253235185+253228328+253274521
2170+253463596+253708734+253868949+253963168+254085307+254268275+254416930
2156+254443271+254409643+254438934+254595625+254831945+255073544+255251984
2143+255265298+255174427+255174140+255340622+255636401+255948954+256117333
2129+256080771+256034770+256146385+256290830+256442148+256617622+256718713
2116+256861612+257107228+257276245+257291600+257248421+257261017+257320205
2102+257409943+257553719+257664457+257680242+257698069+257821339+257963329
2089+257958195+257845480+257839022+258058935+258331642+258427710+258423294
2075+258491841+258660395+258828168+258825218+258662500+258588850+258760912
2062+259012954+259122209+259142411+259249259+259447423+259584980+259654404
2048+259750680+259789570+259707836+259618608+259679486+259915551+260136165
2035+260192228+260160306+260206754+260347691+260467071+260587902+260766534
2021+260798487+260550639+260409303+260724694+261184467+261426703+261551855
2008+261715993+261913248+262107633+262249447+262357857+262554921+262722136
1994+262541782+262324022+262649746+263264089+263740126+264069693+264342670
1981+264603849+264798585+264978460+265203268+265376143+265382218+265158303
1967+265048554+265482719+266086204+266375303+266521645+266728786+267011618
1954+267359091+267633169+267722269+267586131+267178721+266758779+267122213
1940+268325978+269284142+269590509+269652312+269809688+270117745+270478612
1927+270658375+270388108+270144246+270242307+270275122+270820822+272089149
1913+272859609+272812062+272799656+273337990+274082843+274627778+275010617
1900+275308820+275390075+275438452+275788604+275877959+275627177+276239177
1886+277555401+278515225+279064752+279484838+279957734+280467654+280755620
1873+280246465+278602284+277449814+278892291+281528281+283250337+284056514
1859+284615991+285233635+285885019+286452564+286817512+286704208+285795185
1846+284459667+284836127+287469279+289516357+290194975+290814947+291364379
1832+290494102+289197777+289912047+291622623+293400582+295721181+297513937
1819+298293678+298864284+299327613+299196832+299223046+300471568+302099741
1805+302759001+302242384+301612048+302280620+303689103+303806171+302558860
1792+303164513+306711120+309603537+310604211+310999614+311433700+312338863
1778+313636560+313558653+311285762+309561378+311766120+315922335+319147586
1765+320267752+319947258+320529154+321915664+323144319+324341404+324007962
1751+321996282+321504284+323756000+326358984+327736884+328167015+329108310
1738+330017620+328651519+327807647+331541767+336172727+339763947+341970507
1724+342783764+342534034+339953756+335758987+335774868+341278719+346675739
1711+349530621+349583271+348101633+347574684+347073916+344958083+344743592
1697+347979622+353660239+359732177+362554659+362939858+361690633+358158983
1684+357857400+364407273+370247658+372275220+372144503+372913369+373836742
1670+374604875+378810327+383827729+385606422+386857336+390506150+393408453
1657+391926432+386134296+384908638+391797342+394634844+396137465+403220729
1643+410845993+414238508+413515946+410452791+411531978+419672201+426336335
1630+428987664+430415759+432084495+434491738+439132711+443301586+444898411
1616+448569260+455927957+462043648+466288038+470735631+476190946+481665649
1603+486689238+491808560+497184405+502524692+507988777+513677972+519339200
1589+525214792+531496023+538003769+544694213+551175203+555786359+558477997
1576+564162887+572941483+578800811+583402783+591032703+599966093+607353905
1562+610206141+607935960+613049510+629950280+644544706+655678118+665134120
1549+674121404+681078255+684701462+686161255+689631071+703481441+719678081
1535+729300038+737292164+747696190+756408391+762091814+766605897+770621987
1522+776664619+785781694+795014849+805623289+816941217+824444470+826833855
1508+826674980+834303497+851474183+864137164+870875123+874691008+878883705
1495+885644497+891294946+892886126+894750539+901475360+908621701+913745137
1481+918304441+921963874+924384830+926452828+929023666+933450818+938685231
1468+941024803+940178700+940611574+943762490+945681562+943238028+939854188
1454+939906615+940305111+939842707+938417674+936606900+935450316+934337358
1441+931121832+923302422+913331079+909899786+911043869+908480238+902553877
1427+898326931+898481469+901780100+902717026+902220500+908133977+916713261
1414+920942120+923248974+927580201+932941153+938122756+943919771+948043203
1400+947053148+943694118+944678050+951706335+959717277+962919982+961710270
1387+961393858+965279646+970281135+971866829+970149876+969674652+972210475
1373+975174517+977084468+978044865+978390616+979672655+982175504+984237634
1360+984979649+984509528+982325578+979147683+977421098+977918454+978171532
1346+974944845+968675030+962491382+959258508+959722698+959680539+956773900
1333+954521642+954142471+953127733+952583308+955348293+959172150+962014627
1319+964393935+965228175+966405870+970176982+973030939+972632379+972144144
1306+974830616+979208912+981171354+980236405+979208848+980218292+983113642
1292+985524329+986277633+987794382+992947476+1000670834+1007601982+1013144835
1279+1017983111+1022185056+1025963438+1028360285+1029715033+1031098546
1267+1031494300+1031601195+1032722572+1035014310+1039622341+1043865296
1256+1044009120+1042791435+1042031817+1040656468+1040195786+1041531910
1244+1044403152+1048020682+1049797015+1049965649+1050568049+1050605871
1233+1049955763+1051456375+1055575661+1059339183+1060029536+1058262707
1221+1056805337+1054954764+1051320269+1048953143+1049929039+1052753211
1209+1055453012+1054843468+1049982550+1046940761+1048992559+1051455036
1198+1051287550+1051001689+1052380290+1052364600+1049807793+1048612750
1186+1049383976+1049015711+1046817156+1045271387+1045458709+1045209138
1175+1043195034+1040445803+1038401595+1037678778+1038047872+1038253115
1163+1037216438+1035851804+1034449348+1033245504+1034428237+1036926431
1151+1036879233+1033534937+1029359779+1027000626+1025761065+1024550268
1140+1024548673+1025369074+1025587392+1024432913+1022198641+1019639602
1128+1018525048+1019613707+1019158319+1016949622+1015120735+1011889264
1117+1008697465+1007670482+1007721378+1008184420+1006902445+1002339251
1105+997965420+997209373+999259067+1000790804+1001232479+1005704914+1015391353
1092+1020657656+1015111232+1008427676+1009088308+1012977604+1016423502
1080+1019161316+1021144998+1023627437+1025830138+1028361816+1032504956
1069+1034513957+1031281849+1028756103+1030675749+1031752991+1033758038
1057+1039333100+1042700868+1042375718+1038935050+1032597500+1029939411
1045+1032657007+1032817349+1030531097+1030243322+1029764016+1032158631
1034+1039831476+1044213279+1040051962+1033818757+1029564385+1025509645
1022+1025187939+1030019199+1033017682+1030613947+1026022052+1023197242
1011+1022052075+1020673345+1019588450+1018250923+1016323878+1017953071
999+1023771899+1027755844+1027627646+1026498934+1028477640+1035172740
988+1040868345+1041600091+1042237826+1043716370+1041160584+1036678327
976+1036228424+1039180347+1041690467+1042554557+1042437265+1042835507
964+1046111049+1051934724+1055331002+1054283928+1052596057+1052364919
953+1052219246+1052214271+1054226908+1056672164+1057015938+1057948017
941+1060931001+1062899821+1063700003+1064652683+1064350111+1063898040
930+1064816470+1064344818+1062874437+1064130135+1065502932+1062338750
918+1057239359+1054689376+1055808011+1058662670+1058209450+1054883458
907+1053438653+1052260958+1051136455+1052737521+1055173338+1056303644
895+1055341015+1056801446+1065906786+1073741823+1070715469+1062836934
883+1055568071+1047989174+1043205876+1043983353+1045173995+1043091073
872+1041490326+1044676130+1050218982+1051470343+1049229629+1048307882
860+1049317071+1050583675+1050016864+1047320315+1043433953+1039455047
849+1035043139+1029813254+1028286046+1032260998+1035839877+1035414146
837+1033557770+1033127702+1032978585+1030793423+1028587278+1028333817
826+1026807437+1022598796+1021350815+1026054006+1028479936+1023277732
814+1018263360+1017698589+1018651843+1019840253+1021375115+1024376340
802+1027062812+1024099918+1019500625+1021736747+1024820886+1021181671
791+1017227830+1015382806+1011136662+1005454515+1001263923+998139284+995822608
777+996238708+998431842+998042593+994112734+990819206+990484425+989547116
764+984749595+976947405+968708642+964251642+968121485+977509306+980643639
750+974188416+967292665+965325248+966960628+966615642+961595849+957454814
737+955064281+949588525+943009122+940792453+942067540+940264292+934376072
723+929636017+926039726+922153938+920585527+920813413+919815130+918572635
710+920600069+926166711+931294995+934285568+936828599+938212367+937541530
696+935290101+932909199+933549039+935209483+933114634+930279237+932318470
683+937653910+940507294+939623177+936847159+931944720+925862226+921746193
669+920408028+920057558+920792812+925252236+932727873+938759981+942477007
656+943023090+941088009+940786841+939033787+936289914+941267741+952893916
642+957798077+953877338+951778917+948566198+948442465+969157525+1004768371
629+1025925617+1019729404+996513918+973645713+970722045+980378889+978940590
615+973372991+962993329+956194205+976093839+988712366+975891338+985347659
602+1003635513+991034782
##END=
