##TITLE=Sample description
##JCAMP-DX=4.24
##DATA TYPE=INFRARED SPECTRUM
##DATE=12/9/2023
##SAMPLING PROCEDURE=Instrument type and / or accessory
##ORIGIN=Default
##XUNITS=1/CM
##YUNITS=ABSORBANCE
##RESOLUTION=4
##FIRSTX=4397.6552
##LASTX=599.8556
##DELTAX=-1.9287962
##MAXY=1.8518251
##MINY=0.25304881
##XFACTOR=1
##YFACTOR=1.7246465e-009
##NPOINTS=1970
##FIRSTY=0.27283135
##XYDATA=(X++(Y..Y))
4398+158195517+158292010+158869775+158598907+158106921+158463758+158897251
4384+158488573+157740562+157527964+157727067+157860211+158295414+159043372
4371+159446348+159612895+159983401+160767665+161370279+160831360+159774690
4357+158904474+158251004+158830583+160254994+160539358+160255824+160581418
4344+160394636+159440974+158766560+158460579+158610744+159384899+159956737
4330+159477331+158337008+157990642+158983617+160094945+160549173+160883287
4317+161183497+161248142+161482410+161249110+159916180+158998461+159233576
4303+159516471+159152428+158646756+158748191+158961049+158960911+159431729
4290+160149879+160250242+159917148+160182521+161179816+162059052+162064478
4276+161208052+160433983+160314888+160606233+160863069+160918988+161012975
4263+161287904+161638123+161596892+160939811+160181294+159928052+160292492
4249+160679121+160587967+160125392+159567500+159229342+159459187+160110704
4236+160816931+161821207+162294772+161247485+160625345+161799676+162893395
4222+162708548+162352592+162487948+162746305+162987261+163023187+163040674
4209+163383825+163535408+163316363+162969134+162412001+161718199+161049125
4195+160640724+160939292+161853538+162298868+161811927+161380129+161285225
4182+160706596+159828103+159681618+160632533+162004827+162414611+161510456
4168+160576891+160402360+160858040+161463972+161504702+161114842+160995643
4155+161346259+161862507+162005069+161680131+161343443+161345240+161718217
4141+162167624+162236676+161700591+161040174+161013303+161182719+160657901
4128+160018445+160091402+160511779+160810952+161005113+161228270+161441370
4114+161408053+161307932+161283515+161147174+161279609+161849858+162105381
4101+161649873+161270503+161607934+161846799+161498101+161299689+161317781
4087+161115378+161054707+161391223+161599000+161512755+161434527+161354640
4074+161098409+160591855+160142604+160213107+160591043+160663137+160528627
4060+160721354+160990303+161026264+161167633+161276827+160931188+160438908
4047+160547583+161358286+161906796+161731021+161426578+161093346+160624895
4033+160460197+160541345+160627401+160884756+160851750+160142759+159667241
4020+160256930+161314930+161824905+161766411+161458183+160991548+160875580
4006+161507916+162293252+162318515+161617507+160920215+160525897+160507701
3993+161049868+161797879+162014780+161778542+161740646+161928586+161979736
3979+162089379+162538562+162576112+161768347+161103904+161057213+161303940
3966+161768554+162322974+162719780+162580812+161793852+161028562+160767561
3952+160821700+161238759+161976038+162105018+161739126+162110444+162409116
3939+161513757+160407873+159882812+160085129+161089371+161849823+161484052
3925+160798838+160697559+160715496+160654237+161201278+162373812+162903054
3912+162223820+161128442+159560674+157112512+155317751+155672549+157841704
3898+160432877+160851612+158198869+156062408+157551378+158414337+157207432
3885+157147712+157046657+157390499+159633994+159443738+156675995+154385827
3871+153310580+154786210+156243557+155688153+156910903+159862940+160008854
3858+155631698+148331657+146725026+155170315+161576761+162336919+159069379
3844+154891481+152232051+150760690+151716166+155322727+157649236+158287949
3831+158946776+159059046+158567647+156644373+152123583+150940992+154113317
3817+155660919+158520507+162515182+163076047+159845660+156544493+155562128
3804+153799473+154089401+158350382+160360507+161356541+163459582+164449412
3790+164460800+164246663+163572042+163224087+162652387+161762558+163202884
3777+165882463+166476247+164556083+162490661+163219058+165666477+167987094
3763+168447301+166196238+165133485+166814508+166720728+163176998+161584485
3750+166874194+171018689+172492037+179551538+187859121+190319535+189548439
3736+189816352+193029804+199266142+205328832+207937510+208476965+209196169
3723+210076649+211785009+214403226+216325274+216670395+218090710+226327652
3709+240101186+253179415+262868416+271394906+283367008+296431689+305619114
3696+310595998+311403885+307718871+303833546+304963156+306235327+302411934
3682+294531726+285167403+274735593+265915995+264593158+264461828+261984687
3669+263576993+266671108+266435129+264840628+263885462+262688148+262091911
3655+263167468+261627573+256395459+255555328+262702975+269616941+273186021
3642+274845391+275880686+276840846+277736688+277955162+276296414+274316460
3628+277485796+282048992+282077729+278399230+274693826+274316426+274690007
3615+273440836+273218110+275120096+278154767+281979473+284940254+285843942
3601+285838170+286023311+286246606+287076317+288576502+288747387+286974226
3588+286110663+287456621+288251340+287789110+287294118+287193339+287319952
3574+287485583+287055477+285589905+284439904+285600204+287672849+288882622
3561+289582351+290061705+290185916+289767146+289270097+289301841+289313349
3547+289303552+289841140+290565183+290926340+290778110+290594594+290437896
3534+289641899+288652069+288490378+289306835+290217919+290156194+289430440
3520+289019257+288874068+288480804+288037393+288041368+288282859+288331278
3507+288081129+287871710+288179800+288318767+287660096+286990279+286967037
3493+287242156+287131476+286614123+286297479+286256784+286232160+286192001
3480+285931639+285448864+285040549+284802824+284738974+284483848+283756194
3466+283100892+283030977+283439240+283942510+284422901+284768039+284609303
3453+284040782+283259905+282507990+282351811+282417113+281903267+281345928
3439+281444477+281581336+281445341+281620735+281935893+281818612+281203694
3426+280222608+279247276+279075735+279970921+280853285+280968078+280717307
3412+280438231+280240735+280156044+280009352+279976883+280458276+280992305
3399+280924912+280821403+281186846+281364919+281143559+281002431+280688552
3385+280069401+280004306+280716926+281276064+281206217+281076131+281266611
3372+281293326+280791093+280293543+280305847+280736505+281568013+282555113
3358+283061165+282916357+282632701+282809323+283380176+283809953+284112703
3345+284543551+284466084+283775894+283527576+283810281+284042994+283899672
3331+283536683+283827924+284780930+285367439+285363378+285266436+284920796
3318+284164786+283488782+283263897+283632226+284219374+284587944+284704189
3304+284327185+283556642+283077374+283221336+283936634+285109479+286141283
3291+286720465+287121367+287577998+288692798+290376620+291653527+292003452
3277+291489157+291009596+291740378+293373500+294265886+294091943+294076426
3264+294602333+294837275+294214737+293377474+293004048+293032180+293142566
3250+292800728+292151337+291905404+291968995+291893688+291844336+291894414
3237+291432236+290507259+290097890+290307983+290554987+290760691+290563420
3223+289461389+288408538+288280215+288074891+287539601+287603763+287919732
3210+287929824+287777809+287297816+286467932+285693483+284799800+283741005
3196+283236059+283106025+282589622+281693174+281049571+280792925+280214019
3183+279166992+278003236+277188179+276825553+276133617+274908741+274095653
3169+274402654+274846359+274126049+272867252+272635887+273353225+273221566
3156+271637451+270162513+270379052+271278109+270597370+268742509+268462119
3142+270562966+271505724+268904753+265751885+265592941+267353678+266806205
3129+263783492+262516728+264805549+266621289+263820368+259398646+258717130
3115+261529663+261810571+257346460+253600932+254626878+257390318+255643958
3102+250253903+247755749+250102027+252513572+249682393+244541208+243600385
3088+247551669+250009958+246355081+241517579+240768740+243055867+243619169
3075+240465350+237510756+238057036+240910230+241468019+238289335+235471946
3061+235850677+238226245+238603507+236163346+234333730+234490911+235316354
3047+235058585+233691078+232569901+232241559+232269466+231840881+230868574
3034+229977552+229702762+230097840+230158718+229260681+228480823+230695961
3020+241538143+260631609+272524412+266763816+253687143+243379422+236678574
3007+232182685+229267835+227462619+226315193+225345737+224046297+222887587
2993+222934641+224601632+226355042+226030346+224507213+224161539+225792310
2980+227842007+227415928+225055653+223850131+224520294+226028358+226344432
2966+224595238+222831270+222965780+225540174+227735906+225752289+221905688
2953+220239786+221674081+224546819+224801996+222000678+220009769+220719745
2939+223208861+224171336+221859239+219257991+218841295+220697367+222781901
2926+221743012+218487327+216619885+217332470+219231155+219314515+217000741
2912+214931829+214767269+216253647+217280751+216155495+214380434+213777958
2899+214573644+215866811+215853990+214368476+213207761+213459189+214780039
2885+215655595+215129100+214234986+214047944+214642575+215384140+215261467
2872+214462549+213989952+214103310+214527679+214694571+214215666+213460139
2858+213006308+213068258+213168898+212591582+211590485+210915674+210729618
2845+210832176+210825852+210588922+210494382+210551268+210629133+210902282
2831+211232439+211285973+211194906+211287407+211497155+211454352+210989185
2818+210419368+210162878+210227056+210310278+210199132+210068545+210144768
2804+210347102+210567460+210689113+210617469+210526402+210643580+210981668
2791+211304013+211269989+210881995+210594936+210633142+210670519+210430618
2777+210041795+209748653+209646924+209660558+209606540+209413053+209299228
2764+209456046+209627449+209505934+209287477+209232267+209286942+209446456
2750+209730111+209925153+209893444+209781053+209692457+209594668+209463943
2737+209309873+209236293+209294718+209432597+209670425+209889953+209900235
2723+209844558+209824962+209712364+209577837+209528744+209596172+209769769
2710+209832894+209750623+209731321+209797832+209878497+209979949+210011243
2696+209821368+209587877+209566588+209673933+209805280+209943712+210065210
2683+210126399+210009273+209821264+209743296+209596880+209329935+209218961
2669+209261592+209189015+208962920+208749491+208597477+208463763+208335923
2656+208246965+208260028+208245375+208062757+207874731+207736575+207547477
2642+207422092+207401770+207290002+207050757+206882188+206899623+206943999
2629+206851895+206752257+206691448+206474875+206118504+205848483+205755636
2615+205668112+205407405+205147959+205051639+204914365+204664060+204456974
2602+204276067+204048987+203830962+203696418+203620333+203548015+203525223
2588+203488900+203259193+202887703+202589584+202454245+202413152+202359463
2575+202220944+202013979+201870760+201822150+201700636+201433984+201124011
2561+200824095+200566049+200457840+200445018+200343791+200211700+200111769
2548+199926213+199674077+199444267+199314976+199346150+199397593+199298335
2534+199094550+198967471+198945611+198932996+198929834+198882607+198756548
2521+198686943+198753437+198900337+198940824+198734792+198503738+198459552
2507+198411893+198287527+198275016+198334253+198329518+198314225+198367293
2494+198430383+198445935+198504377+198627758+198698884+198741462+198948998
2480+199293860+199440103+199348016+199368493+199537339+199543007+199322459
2467+199143608+199211779+199444336+199695384+199852409+199732502+199457262
2453+199428093+199701933+200012701+200216470+200405671+200638229+200808560
2440+200919309+201113436+201346875+201453494+201477617+201540742+201662377
2426+201811471+201959045+202141697+202304632+202312011+202239659+202285659
2413+202480580+202733476+202996758+203228417+203405281+203594033+203817224
2399+204046188+204549838+206044009+209588880+216600185+228633961+246684650
2386+270277116+297365099+325525443+353360261+381091053+409961096+440979939
2372+474088447+507696459+538983940+565642700+585625304+598660210+606719442
2359+606811788+592671775+566581847+536251173+507773633+491258138+495519828
2345+515529043+525925152+516506207+503188595+493732808+489721544+492734873
2332+498392116+498513423+493476645+490376361+490209227+487260248+478348547
2318+464359079+449621204+443169277+447202626+450311204+441751433+422484646
2305+400650636+384368010+374420600+365972182+356336093+344835292+330860962
2291+316074943+302883028+291479100+281273316+272475129+265318704+259612022
2278+254890885+250662667+246712921+243170919+240292340+237987535+235857762
2264+233835903+232121495+230632543+229194480+227798634+226487339+225318019
2251+224260572+223273869+222419292+221699189+221013077+220347235+219823401
2237+219416348+219016292+218756950+218735195+218747187+218647083+218495967
2224+218369596+218339892+218409237+218498974+218582092+218664311+218805836
2210+219071209+219360809+219557527+219715140+219919635+220178821+220473173
2197+220762928+221008239+221237271+221477397+221717697+221980546+222211773
2183+222367313+222544677+222734017+222850451+222890161+222840861+222749466
2170+222712555+222697694+222697314+222796831+222836956+222600735+222268366
2156+222103133+221995839+221746451+221441506+221246326+221128025+221029580
2143+221160910+221619320+222133304+222556031+222921473+223267666+223647849
2129+224075241+224460884+224675643+224840963+225158799+225561135+225913635
2116+226233821+226519152+226714004+226902376+227131322+227337216+227579900
2102+227992155+228434564+228662473+228872463+229329128+229933401+230510855
2089+231035535+231633743+232402403+233295982+234323466+235609064+237001801
2075+238324120+239781312+241474361+243336014+245415295+247789515+250375746
2062+253102725+256077675+259312694+262764303+266264365+269705243+273306292
2048+277091409+280782350+284146468+287257691+290253067+293056545+295530559
2035+297523282+299060464+300241327+301087610+301580028+301688514+301434045
2021+300773386+299776972+298628804+297423852+296120852+294608277+292964027
2008+291314938+289641985+287933262+286252516+284683971+283242798+281780232
1994+280180945+278734986+277769313+277051630+276212242+275313323+274619677
1981+274062907+273466618+272991912+272712663+272453546+272138942+271745557
1967+271433579+271471457+271740390+272043088+272385462+272749971+273158269
1954+273684055+274269821+274769168+275160860+275426284+275628049+276340116
1940+277701298+278924066+279740454+280488879+281281904+282078230+282881019
1927+283444303+283557091+283667909+283950942+284176432+284909357+286091637
1913+286668642+286594147+286615350+287064152+287738358+288377071+288878025
1900+289181899+289169094+289070545+289239304+289216442+288984783+289522510
1886+290624730+291456636+292080177+292652913+292998864+293114849+293177023
1873+292782930+291335052+289971122+290748733+292841406+294226867+294453895
1859+294106320+293748723+293487895+293258655+292994060+292467876+291134221
1846+288968799+288072904+289319605+290124882+289770637+289502119+289174779
1832+287280777+284608110+283967704+284806591+285590181+286366566+286763908
1819+286758620+286562437+285899498+284656564+283549747+283538152+284098498
1805+284274602+283880767+282950330+282334202+282504413+281852429+280025734
1792+280099227+282857189+285049707+285763623+285710400+285363724+285557971
1778+286209022+285536336+282757396+280613521+282801616+287080188+289864382
1765+290256903+289441621+289685307+290839144+291795156+292667256+292466045
1751+290917803+290263469+291805663+294037199+295253660+295214019+295626706
1738+296429373+295342722+294843116+298528613+302646876+305563022+307464817
1724+308425910+308313934+305819599+301962855+302397902+307780838+312633513
1711+315050639+314937074+313505509+313194084+312802133+310626204+310546681
1697+314016762+319712747+325729211+328748175+329557616+328463293+324873908
1684+325251758+332855379+338963774+340769146+340708423+341927303+343254046
1670+344654437+350003538+356095552+358654964+360717535+365282977+369198543
1657+368845300+364263304+364698075+373195188+377139198+379862219+388194237
1643+396637609+400895981+401320004+399067523+400323590+408600380+415467033
1630+418093631+419143544+420055976+421276549+424550292+427413042+427248050
1616+428580185+434084290+438940040+441822386+444299959+447242439+450449170
1603+454023901+458187853+462552187+466812806+471373720+476451694+481552928
1589+486607228+492010140+498026259+504772295+511612094+516441579+519039941
1576+524531915+533054465+538449946+542834775+550836567+560110255+567947885
1562+571854638+570803101+577093699+595311989+611242582+624429210+636485363
1549+647472146+656283621+662082597+664584984+668426729+684278662+702874284
1535+714193332+723231179+734571377+744900681+753088685+760587484+766553870
1522+773493549+785165182+798444570+811089220+822513469+831444594+836507776
1508+838332847+847866844+866818716+879324640+883835545+885520508+891320796
1495+901213393+907735789+909538257+912379545+920866636+930729856+937832868
1481+942493490+945392286+946378436+946327148+948406031+955162056+962515769
1468+964513435+962043189+961856009+963521618+961212424+955513951+955467985
1454+961530450+965001360+964278977+961257905+958340654+955826239+952783187
1441+947919972+939652479+931126749+928671986+928754724+925172528+918670938
1427+913966632+913219918+914906194+916416833+919291990+927493542+937193845
1414+942867711+944729001+945558799+947006676+949431165+952440209+954989460
1400+956940884+959769661+963736861+967413476+970369228+972689482+974025176
1387+975140167+977642209+981112359+984344526+985829453+985710703+986534418
1373+988479137+990709188+993650632+996375105+996156959+992834727+991783604
1360+995069133+997486640+995516000+991949771+991836275+994796243+996253037
1346+994690350+992638562+989992887+983990834+976489823+971743976+969837066
1333+967557524+963942980+962914321+965521081+967490131+967406633+967482528
1319+968971601+972183931+976590325+980137269+981876837+984639949+990304208
1306+995699447+997049518+995205370+994688414+997108548+999862881+1001545425
1292+1002415451+1003565348+1006195885+1010684534+1017269899+1023804045
1281+1028202974+1032984765+1039594529+1044838187+1047082200+1048311309
1269+1050259070+1053218071+1055928996+1056810289+1056307226+1056250824
1258+1057340793+1058928502+1061258018+1064195798+1066044578+1066397233
1246+1066234108+1066345323+1066897946+1067581829+1068607446+1069216402
1234+1067579271+1066062757+1067958538+1069249235+1066540383+1064623934
1223+1066820737+1069795636+1069655943+1067481120+1066439743+1066139066
1211+1063756327+1059893777+1058536932+1060094228+1061800825+1063022193
1200+1063907426+1064174717+1063314920+1060689290+1057920718+1056458947
1188+1055865405+1056137534+1055763037+1053807327+1052024697+1049754072
1177+1046052781+1043238035+1042667303+1042886210+1043436758+1045104233
1165+1046510362+1046828871+1046055615+1042869897+1038634162+1035773659
1153+1033708946+1031771277+1030878994+1030683589+1030217644+1030445259
1142+1031332013+1031111240+1030365356+1030207621+1028775918+1025879956
1130+1024489103+1024868785+1023970557+1020041996+1016709466+1017919221
1119+1020626069+1021368566+1020331752+1018101424+1017352498+1019264385
1107+1021087866+1020381104+1017681238+1017393003+1020222955+1020805714
1096+1020237194+1023053736+1024905903+1022430334+1021709679+1025367009
1084+1027694175+1025559027+1022923443+1024427102+1029952565+1034573995
1072+1034511993+1032451013+1033109044+1037665570+1043901459+1048273638
1061+1048914044+1047135146+1045446866+1046508841+1050971984+1055577585
1049+1058713743+1060093675+1056467587+1049272506+1043824665+1042132929
1038+1043403442+1044397540+1043813675+1043202023+1042092562+1041595582
1026+1043330727+1044037765+1042975307+1043312686+1043923439+1041528811
1015+1036130669+1031779087+1030883763+1031584581+1032903409+1033837718
1003+1033747100+1034847852+1037469473+1038572092+1036382615+1034019921
991+1035278407+1039831684+1045060134+1047614362+1046783528+1047239657
980+1051518455+1056259049+1058497878+1057002929+1053283252+1053690651
968+1059487967+1063581382+1063249947+1062864113+1063459245+1062358355
957+1061855845+1064974239+1067441513+1066274612+1062929917+1058152135
945+1055285342+1058297980+1065142964+1069968646+1070988181+1069880862
934+1065858988+1060414050+1058860418+1061749606+1064438068+1064863784
922+1064703008+1064823072+1064737361+1064219161+1063113156+1061539271
910+1061393771+1063293424+1064624210+1064508433+1063907840+1063706629
899+1065974005+1071315883+1073741823+1067909877+1060269449+1057579537
887+1057246166+1054876283+1052237106+1054661594+1060268343+1060655490
876+1054098465+1048696382+1048918399+1050628176+1051540711+1051385466
864+1049214859+1047232814+1045745607+1043239211+1041224610+1039869977
853+1036946089+1032898917+1030314413+1031488364+1036669121+1041283777
841+1040811474+1037519655+1036066317+1036993506+1037333927+1034818407
829+1030831093+1029665229+1031770102+1031203517+1025850787+1021314237
818+1020848915+1021861330+1021828014+1021582289+1024482122+1030636033
806+1032618216+1027864627+1023489199+1022816306+1023281697+1022356720
795+1019412995+1014588419+1010242851+1010442749+1013613674+1013885735
783+1009426117+1003461251+998848945+994962825+991978042+993176531+998009125
770+998810030+992806872+986922739+985592091+985612966+982729099+977944475
756+970453417+961490359+960549899+965905463+967005247+963997309+959438088
743+953624805+949198227+946703512+944528274+943775408+945558246+946201279
729+942997036+937978230+933895253+932893136+933835878+931970095+926463156
716+922285206+922001257+922893747+924077859+927022414+929257372+930429457
702+933989534+937661932+937841370+936646061+936335086+936938996+937262828
689+936127930+935335734+937050557+940079992+940984440+938885581+936340201
675+936073393+940638213+946265768+945201098+941039599+940523680+939127919
662+938405605+941723689+943555811+939430324+934709014+932566332+930624032
648+927299589+923438352+923923374+929534409+930567215+924705339+917898787
635+908618464+900631464+896335524+890678869+890332711+895256407+898044403
621+903143805+905147346+894758944+882367968+884944315+902332808+914492228
608+917763379+923682003+927631784+926953431+922891950
##END=
