##TITLE=Sample description
##JCAMP-DX=4.24
##DATA TYPE=INFRARED SPECTRUM
##DATE=12/9/2023
##SAMPLING PROCEDURE=Instrument type and / or accessory
##ORIGIN=Default
##XUNITS=1/CM
##YUNITS=ABSORBANCE
##RESOLUTION=4
##FIRSTX=4397.6552
##LASTX=599.8556
##DELTAX=-1.9287962
##MAXY=1.8214295
##MINY=0.19337878
##XFACTOR=1
##YFACTOR=1.6963384e-009
##NPOINTS=1970
##FIRSTY=0.21850492
##XYDATA=(X++(Y..Y))
4398+128809747+128602595+128021030+127196394+126207360+125923363+126675019
4384+127734565+127973085+127259554+127242925+128389997+128956471+128752587
4371+128713181+128503816+128335306+128811205+129293613+129107807+128504097
4357+128019546+127784284+127918675+128664235+129601731+130149758+130076321
4344+129466602+128998118+129096484+129339309+129515285+130016342+130461724
4330+129866016+128856137+128830592+129391611+129472831+129238597+129126729
4317+128975287+128601770+128055579+127698426+128287370+129520758+129714917
4303+128701972+128197094+129190793+130622363+130745308+130113128+130127912
4290+130259255+129935237+129872200+130388199+130359000+129421820+128966116
4276+129405323+129868370+130060615+130069698+129775459+129575554+129707881
4263+129531615+129548094+130834785+132462649+132709866+131550302+130354354
4249+129962565+129977366+129727637+129785394+130591811+130535732+129426704
4236+129313896+130138286+130424259+130239428+130554003+131667423+132651600
4222+132711175+132316153+132158053+132451669+132963715+133295340+133335124
4209+133031214+132485770+132000357+131631768+131470163+131670559+131855610
4195+131690544+131800576+132526529+132970971+132437386+131302901+130712894
4182+131355870+132438589+132982979+132830519+132377643+132106252+131982420
4168+132062032+132434750+132419773+131803668+131262229+130920327+130617101
4155+130726035+131330527+131993514+132594221+133155169+133475243+133449795
4141+133158402+132864953+132711026+132395353+131797510+131356582+131338179
4128+131317483+131131984+131664076+133077296+133785215+133118073+132177748
4114+131565736+131422104+131731795+131980303+132116301+132093041+131612759
4101+131046171+131217236+132190968+132627601+132231350+132372759+133090227
4087+133368083+133037705+132608030+132261972+131779766+131424449+131528262
4074+131794269+131811635+131741115+131980733+132266724+132243832+132119420
4060+132036575+131853001+131653895+131832498+132197056+132048355+131463232
4047+131202356+131690702+132564073+133146025+133073211+132350263+131673748
4033+131838296+132485049+132939093+133273792+133471747+133077472+132531044
4020+132820241+133345991+133176708+132880229+132668589+132194675+132053880
4006+132662694+133232647+133193029+132938012+132766560+132665953+132820311
3993+133313366+133800148+133927977+133636962+132931292+132186673+131978968
3979+132097354+131952650+131597430+131495031+131931146+132624676+132896392
3966+132770689+132897490+133308411+133458869+133410406+133446404+133002243
3952+131891827+131122937+131376996+131530511+130947655+131332240+132587720
3939+132803524+131853695+130313779+129610841+130922488+132094341+131199914
3925+130069092+130387918+130253132+128887690+128835617+131351531+133968376
3912+134591509+133363234+130034499+125061271+122123508+123344527+127087100
3898+131095846+132202423+129428399+127012829+128446525+129179373+127994115
3885+128274958+127985638+127845572+130273441+130193627+127000100+124301437
3871+123125166+125137238+127018740+126231701+127485802+130822118+130856772
3858+125342150+116144047+113997759+124041097+131569311+132773886+130086186
3844+126379506+123107966+120463248+121155996+125104007+127657193+129013174
3831+130711286+131191586+130236134+127537023+122707041+121981062+125385421
3817+127174653+131062922+135515864+135280594+131156458+128018421+127348249
3804+124710874+124115105+128902615+131868584+133359149+135415284+136236547
3790+136028288+135316373+134533401+134572403+133763579+132188974+133581313
3777+136691820+137450890+135251246+132842544+133334712+135290845+137160428
3763+137802596+136170691+135622778+137428384+137038141+132606211+130182181
3750+135890506+140587125+142009823+149259803+158269992+161248910+160006194
3736+159760988+164518008+172665033+179127948+180858563+179631465+178751523
3723+178806794+179444570+180272052+180563972+179798876+180495753+189145294
3709+204276442+218739227+229844562+239245020+250553290+261393093+267705849
3696+270003297+267916233+260793388+254147935+253849110+254481932+250534790
3682+242686590+233165857+222324543+212960329+211133210+210798054+208891454
3669+211308352+214997041+215728616+214938538+213686704+211303538+209401120
3655+209546711+206992164+200455830+198937374+206952266+215588155+220341485
3642+222569520+224367053+225871805+226435108+225697911+222850337+219980942
3628+223384774+228672243+228701407+223639431+217445896+215401559+215293196
3615+213409084+212622924+214349620+217674639+222512000+226156804+226888572
3601+226618103+226764203+226961780+227796922+228947930+227653228+223754717
3588+221810327+223479364+224869340+224638207+223450165+222174086+221789807
3574+221905830+220745757+217334370+214225445+215654969+219406993+221438259
3561+222044043+222114212+221680618+220825360+220108367+220041290+219909649
3547+219435331+219805607+221272130+222357520+222030761+220982318+220244735
3534+219735596+219129778+218669884+218596553+218596869+218459676+218716792
3520+219419888+219661316+219227951+218623204+217956282+217725746+218375487
3507+218602333+217744967+217391749+217914732+218076188+217929578+218131423
3493+218350047+218018967+217461075+217148248+216988848+217059105+217420421
3480+217702644+217733810+217488307+217000900+216739058+216831275+216784631
3466+216465795+216151844+216181834+216562159+216797807+216771876+216662950
3453+216366392+215642284+214656825+214363816+214887325+215377806+216052177
3439+217113849+217802943+217894247+217841822+217910498+218042263+217899641
3426+217116168+216218166+216303356+217331436+218258954+218560045+218636820
3412+218980655+219195414+218878722+218636258+218963807+219522015+219768344
3399+219710754+220000707+220846812+221538875+221467845+220933601+220748585
3385+221247077+221983413+222515180+222915253+223150971+223027358+222998423
3372+223573444+224260710+224440578+224535694+225143850+225902094+226401640
3358+226971917+227686187+228259715+228834103+229405329+229647583+229811533
3345+230203805+230506003+230688225+231002334+231629165+232758721+233722202
3331+233935643+233815245+233592721+233689595+234372065+234796049+234819380
3318+235249337+235782474+235829663+235995371+236554105+236980900+237269201
3304+237404620+236887663+236300713+237024083+238648987+239642493+239915650
3291+240278283+240870978+241480627+242201520+243341759+244939045+246304109
3277+246898402+246952795+247064865+247709423+248135216+247809845+247898707
3264+248661027+248907673+248350607+247731946+247583157+247741064+247776131
3250+247817926+248074657+247902590+247150073+246752319+246861034+246879832
3237+246682853+246336927+245847922+245385235+245164310+245193438+245184162
3223+244722793+243938494+243325385+242659868+241817909+241204167+240700475
3210+240369148+240510787+240620503+240220412+239511870+238468804+237089895
3196+236176925+236119159+236254139+235901080+235036915+234166477+233684535
3183+233269020+232299794+231190002+230730881+230604317+230031843+229008788
3169+228262350+227744726+227047480+226788167+227116296+227138977+226671775
3156+226255153+225971683+225806520+225811352+225679939+225191320+224589841
3142+224278929+223940329+223018714+221908817+221416123+221484974+221089803
3129+220072914+219583663+219940815+219848580+218539507+216938339+216077828
3115+215935223+215445674+214166028+212860750+212002382+211277870+209744885
3102+207442026+205728822+205190783+204971439+204040601+202793984+202367366
3088+202935693+203058304+201722703+200216176+199734778+200005827+199943388
3075+198920297+197744113+197464544+198143676+198550021+198063809+197491090
3061+197203685+197194339+197223133+196908075+196607353+196654859+196541137
3047+195975445+195606944+195705925+195664006+195216920+194704215+194229652
3034+193621830+192974637+192501515+192184243+191907484+191597662+191730639
3020+193943441+198262598+200832606+199116293+195525267+192940414+191569236
3007+190412307+189241815+188344674+187678806+187070563+186486775+186252304
2993+186677851+187513555+188256251+188639335+188737052+188668060+188624946
2980+188709170+188543691+188215720+188255865+188512630+188715565+188720801
2966+188215808+187334039+186818787+187191681+187654333+187086620+185867165
2953+185067635+185306533+186149194+186378219+185804832+185070340+184778930
2939+185348539+185804691+185063172+183952063+183634773+184172900+184635113
2926+184108845+183009330+182134185+181667158+181547481+181313379+180653344
2912+179979798+179746153+180057469+180507823+180608298+180463848+180342397
2899+180386230+180578449+180581646+180347298+180261265+180461336+180831700
2885+181108617+181075219+180999410+181134847+181378629+181516226+181330860
2872+180980823+180873004+181057176+181244334+181196354+180904399+180617521
2858+180522159+180375268+180009682+179525034+178882954+178223727+177925007
2845+177982369+178155437+178431880+178653824+178645268+178646480+178805336
2831+179107516+179486787+179726230+179836491+179896874+179766462+179508239
2818+179441355+179569377+179621064+179552828+179505076+179565477+179674227
2804+179734259+179816058+180052444+180386301+180604397+180682209+180790888
2791+180908633+180835565+180668558+180669841+180631506+180365043+180243503
2777+180382488+180489270+180521807+180502535+180325935+179993466+179703075
2764+179755956+180055800+180174651+180073035+179963512+179951372+180111211
2750+180455943+180834160+180944543+180764184+180681084+180812638+180896107
2737+180892066+180952098+181028223+181000008+180920615+180939484+181096424
2723+181268456+181361078+181384145+181327592+181278997+181437361+181703490
2710+181807426+181812187+181890368+182000136+182035326+181973520+181890789
2696+181884746+181990192+182171325+182325226+182409345+182549208+182720977
2683+182669430+182441952+182343146+182395887+182428213+182390037+182311487
2669+182189526+182057568+181998590+181933516+181682320+181327715+181103434
2656+181031947+180985953+180895105+180811321+180816784+180898707+180959231
2642+180854821+180547299+180259262+180195874+180209631+180054482+179748999
2629+179474349+179320184+179207534+179019761+178755810+178577190+178603578
2615+178618037+178422972+178217630+178127820+178007475+177803573+177575164
2602+177378904+177253658+177207786+177266026+177327955+177228166+177080519
2588+176964197+176688247+176322802+176174892+176256235+176306094+176198030
2575+176075190+175997976+175879599+175736098+175558585+175290259+174951817
2561+174652782+174494313+174338848+174083383+173908927+173872876+173813388
2548+173647558+173425631+173258080+173221730+173232324+173171466+173065615
2534+172994550+172980214+172971571+172937786+172872273+172730722+172549309
2521+172456546+172514259+172611027+172596568+172492228+172394037+172317561
2507+172245337+172185621+172162992+172215962+172331950+172477980+172619794
2494+172627384+172524765+172554738+172811573+173167162+173474156+173701389
2480+173847788+173912212+173958417+174025143+174123668+174266764+174375338
2467+174340992+174190393+174059894+174089725+174237776+174333367+174402956
2453+174480557+174532999+174692329+174977292+175208917+175367913+175578841
2440+175884781+176289861+176625457+176620379+176394974+176229530+176192882
2426+176311734+176573928+176823227+176968256+177110878+177244294+177319646
2413+177462514+177713358+177971020+178145775+178227855+178295459+178449220
2399+178788154+179458555+180926360+184365716+191618164+204697298+225028986
2386+252515828+285346130+320919771+357358878+394588432+433705559+475598105
2372+519732056+563910562+605741372+643497036+674145843+693927966+702554650
2359+698999535+677040729+639164826+595784112+556205071+534169385+539763514
2345+567349021+586458548+579987253+565517774+555048494+550496289+552305048
2332+556505389+555542172+549134861+542746174+537263992+528940578+516035795
2318+498685238+479821215+469165918+470341294+470996673+458313150+433323477
2305+406052588+385907602+373083635+361739051+349349415+335475477+318950048
2291+301228090+285301786+271661845+259641220+249699859+242146987+236403402
2278+231751495+227625241+223770212+220295614+217381015+214980070+212881217
2264+211004696+209331917+207737776+206191597+204771947+203456146+202177993
2251+200958239+199837063+198809351+197942744+197268970+196646567+196019068
2237+195452621+195011455+194763544+194645273+194506480+194324224+194125277
2224+193915068+193776171+193742333+193681036+193523516+193407704+193481773
2210+193715840+193948396+194107427+194265615+194400647+194436311+194460925
2197+194600104+194843429+195069888+195229728+195410667+195637197+195819524
2183+195949040+196116029+196306438+196400957+196404137+196440223+196475132
2170+196457651+196567982+196819600+196989717+197032180+197041421+197079615
2156+197115297+197079106+197055388+197102244+197095603+197048097+197097746
2143+197304511+197627141+197905692+198117429+198339602+198520014+198701708
2129+198980804+199265345+199470177+199689065+199974116+200207673+200350119
2116+200564298+200899595+201230289+201561036+201887742+202172020+202530877
2102+202952647+203292494+203616002+204095960+204693205+205290081+205978138
2089+206862314+207876006+208975907+210196223+211554277+213095432+214734935
2075+216338564+218097569+220152307+222290109+224367053+226586831+229210229
2062+232155064+235250566+238470947+241763201+244996652+248122654+251255965
2048+254389609+257383969+260143437+262654133+264984364+267084851+268889763
2035+270400927+271554676+272345949+272775994+272783671+272469070+271994542
2021+271265585+270119056+268736248+267457130+266235074+264787473+263129821
2008+261498873+259932684+258318479+256745982+255339509+254046494+252738809
1994+251228768+249807766+249090667+248899521+248685324+248263045+247775709
1981+247481312+247344118+247150670+246891586+246794941+246824087+246645959
1967+246618534+247295225+248185655+248770479+249309748+250028023+250856524
1954+251730317+252594869+253374547+254020229+254414574+254649097+255640723
1940+257650063+259445927+260555333+261401157+262147858+262880663+263690910
1927+264227666+264113628+264015385+264328053+264526157+265194942+266563888
1913+267349944+267208674+267043722+267514913+268312879+268923811+269345106
1900+269666577+269742789+269760727+270042774+270026329+269815260+270679197
1886+272195052+273210062+273824717+274370592+274921333+275408792+275587640
1873+274770102+272537851+270823172+272063657+274564778+275849747+275927365
1859+275673358+275484460+275271124+274884983+274200563+272921532+270648891
1846+267748242+266737642+268394960+269501607+269101219+268567941+267860892
1832+265563479+262640254+261795923+262160613+262584965+263619195+264376314
1819+264242775+263739645+262967188+261598558+260341470+260328311+260864365
1805+260639943+259353235+257801716+257462378+258069778+257434198+255322942
1792+255316476+258664405+261319972+261813246+261520079+261201928+261421501
1778+262198210+261593849+258636857+256281046+258211644+262321524+265492747
1765+266368086+265608191+265930083+267217775+268118184+268854081+268063019
1751+265578078+264809820+267094601+269789926+271022083+271081922+271754361
1738+272489854+270768094+269706387+273674593+278474920+282103964+284372196
1724+285258427+284968685+282020935+277243307+277049648+282832359+288574416
1711+291644058+291672712+290012882+289281957+288295022+285470990+285217527
1697+289010381+295316707+302051672+305284228+305710934+303964543+299614624
1684+299556788+307416074+314003217+316197608+316330075+317710160+318994391
1670+319934347+324947096+331023308+333589943+335804537+340627053+344469766
1657+343416458+337575946+337545131+347008291+351373777+354067573+362976233
1643+372261002+376907761+377272626+374971102+376908288+386384204+394137059
1630+397524746+399534807+401375295+403232720+407099327+410532481+410784239
1616+412750800+418970899+424015412+426690163+429160346+432650106+436572898
1603+440626294+445207136+449966932+454447070+459398574+465331040+471380653
1589+477143195+483187362+489923452+497419208+505089737+510543318+513269827
1576+519063992+528577434+534978174+540204311+549431666+560219254+568773731
1562+572133624+570344717+577340822+596761348+613332632+626693707+638428349
1549+649249705+657794378+663124064+666029281+670859527+687613875+706569712
1535+717520513+726526749+738382756+748825753+756627274+763754441+770108026
1522+777678274+788434626+799658443+811542208+823924922+832996372+836551839
1508+837157465+846993502+866901347+880669522+886839620+889646383+894855830
1495+903019896+908192730+909844391+913474489+922144884+931472766+938356221
1481+943485906+947307924+948571740+946368495+943537207+946494568+954763835
1468+960815732+962347013+963307806+964529527+961850243+955644304+955482813
1454+960224443+961604844+959751144+955690334+952678300+952053068+950805485
1441+947320152+939936905+930056454+925956290+926028532+923165621+919570730
1427+918450766+918222163+918142401+917703186+918088993+923322052+931279160
1414+936304066+938486510+941357503+944604887+946195690+948790505+954344788
1400+958570533+960136530+962940692+967420198+971468991+973976806+974952778
1387+975652923+977406201+979098761+980019216+982137851+984473142+985128592
1373+986962405+990154271+990888710+990407049+991444440+992146904+992232077
1360+993024000+992798208+991134741+989607044+988504437+986417848+983672575
1346+982496743+982182475+980435030+977271274+973846517+970962383+968683522
1333+966672969+965336349+965591164+967224272+968715145+969804330+971664214
1319+974283273+976985186+978746827+978683439+978573108+979989701+982270740
1306+985786923+990140427+992609521+993398211+995384027+998141527+999403798
1292+1000189958+1002703114+1006999555+1012748569+1019567301+1025721237
1281+1029857311+1032841376+1035989251+1038711825+1040387098+1042378325
1269+1045730558+1049319686+1051196436+1051629046+1052788083+1054525760
1258+1055787960+1057750445+1060148280+1060693891+1059913844+1059437032
1246+1059414333+1061848220+1067353522+1071189032+1070919038+1070500624
1234+1071066685+1068972294+1066318449+1068044320+1070800344+1069159365
1223+1065542689+1064618791+1065911068+1066311141+1064907408+1063370786
1211+1063637056+1065278036+1065776071+1063837549+1060564094+1057861619
1200+1056863370+1056778619+1056631675+1057046927+1057889167+1057528658
1188+1054374810+1050143725+1048940977+1049996992+1049791088+1048025441
1177+1045045101+1041648103+1040964051+1043713048+1045672652+1044300262
1165+1042087670+1040288924+1037430581+1034183056+1031636450+1029634190
1153+1029638055+1031189223+1030778399+1028009303+1026076685+1026269870
1142+1026160382+1024125374+1021791277+1021528310+1022557831+1021116994
1130+1017591886+1016415210+1018517892+1020814532+1020464425+1017820699
1119+1015077254+1012449691+1009592121+1009337586+1014201845+1020298929
1107+1021265343+1017333838+1013019407+1010810118+1010406180+1010058040
1096+1009544123+1010231126+1011971193+1012591716+1012943510+1017985985
1084+1025806269+1027287514+1023106816+1023192691+1029074875+1032392744
1072+1030312057+1029492657+1032474192+1036012934+1038285680+1037829880
1061+1037639647+1042650358+1048807385+1050961298+1050287928+1049316313
1049+1049555668+1050068109+1049598395+1048586161+1046439979+1042126743
1038+1039291730+1041258361+1042904611+1038490038+1030865890+1027501781
1026+1030884092+1036052639+1038401141+1037630441+1035521504+1033476728
1015+1032249525+1031843268+1030222247+1027069171+1024709144+1024460653
1003+1026412948+1029188509+1031391684+1034630986+1038588493+1039689975
991+1039328202+1040000026+1041584645+1045014813+1047132885+1045546088
980+1044819941+1045935127+1045970616+1047194516+1053101788+1059140263
968+1059889529+1058777717+1058280736+1058104136+1060573441+1063118079
957+1061584971+1060137247+1062222291+1063967838+1062469868+1060691853
945+1062179002+1065581832+1065313243+1060921510+1059874069+1063913235
934+1067425413+1068542777+1068590282+1068266809+1067842913+1067880370
922+1068720009+1068101875+1065295745+1064433196+1067425764+1069863304
910+1067835253+1063375565+1060194029+1059316230+1060553131+1063644927
899+1067750221+1071941321+1073741823+1071142440+1065384853+1060106959
887+1059957907+1062850755+1061600924+1056644957+1053129758+1051316606
876+1048159525+1044744537+1043152750+1040756531+1036714835+1035257694
864+1038446398+1042241009+1042908827+1041551686+1038914426+1035148839
853+1032764004+1032195202+1031041647+1029329831+1027502343+1024750535
841+1022308357+1021873709+1023401125+1025307671+1026495451+1027605577
829+1028339945+1027553503+1025263961+1022319109+1020175105+1019127945
818+1017744873+1016246832+1016712471+1020011155+1022075608+1018994213
806+1015994055+1016954215+1018379592+1018042837+1015542260+1011402742
795+1007366317+1005120837+1005963990+1007979813+1005060401+996102232+989672118
781+989178089+989204371+987887146+986386857+983620010+979219001+975905419
768+975711461+976808727+976487081+973160568+967860678+964021935+962027826
754+960162601+959789093+960564782+958506935+955279228+953818854+951448567
741+948472091+946558166+943219988+938711529+937070971+938509911+937963949
727+933070878+925118548+916973104+914799655+917359333+916650755+914011386
714+913881519+915577945+916616040+916012522+916515617+920034471+924175886
700+926415112+926587777+926307592+928102402+931606499+934807079+938699020
687+941409928+939595020+936185794+933360479+931111696+929303534+927442033
673+932130254+945333282+951626642+939241609+926818628+923104763+927618141
660+937170831+942955826+943499329+943460748+944593924+946562453+948376940
646+943725121+930081050+918387378+918500801+926945122+929728835+921794847
633+913942939+906591386+894117737+890499585+904256587+917836777+921580299
619+920760266+914769929+906886749+898978201+892484839+893344437+899522968
606+906231440+916659048+927386938+927138447
##END=
