##TITLE=Sample description
##JCAMP-DX=4.24
##DATA TYPE=INFRARED SPECTRUM
##DATE=12/9/2023
##SAMPLING PROCEDURE=Instrument type and / or accessory
##ORIGIN=Default
##XUNITS=1/CM
##YUNITS=ABSORBANCE
##RESOLUTION=4
##FIRSTX=4397.6552
##LASTX=599.8556
##DELTAX=-1.9287962
##MAXY=1.8266134
##MINY=0.1921
##XFACTOR=1
##YFACTOR=1.7011663e-009
##NPOINTS=1970
##FIRSTY=0.21251096
##XYDATA=(X++(Y..Y))
4398+124920742+126136710+126823962+125902405+124599526+124351697+124423060
4384+124138476+124002382+124085719+124321136+124776194+125356284+125843262
4371+125901056+125999678+126421460+126426698+126191360+126107007+125583494
4357+124657741+124200467+124546655+124886466+124714257+125027869+125954883
4344+126167385+125977718+126557440+126882431+125949356+125061715+124787581
4330+124578951+125064220+126030660+126193856+125884168+125826645+126098326
4317+126485859+126147256+125162098+124847872+125693538+126833440+127264568
4303+126873707+126086606+125408078+125202443+125452077+126007527+126540587
4290+126687158+126596069+126797377+127468705+128257286+128770322+128724388
4276+127957548+126662763+125743160+125871607+126341171+126427574+126228832
4263+126010242+126030283+126220423+126457636+126785552+126810184+126251607
4249+125841738+126033008+125958001+125417031+125363791+125505439+125017936
4236+124649630+125082107+125575724+125764524+126344868+127220306+127307734
4222+126634251+126407874+127092700+127684685+127318508+126852246+127394758
4209+128409786+128802355+128647253+128320695+127723831+127170071+126854068
4195+126704072+127222961+128512621+129349265+128569619+127187073+126955204
4182+127442357+127336622+126706052+126356378+126586495+127113880+127651715
4168+128204431+128690630+128644660+128052920+127618403+127585792+127731434
4155+127963978+127985806+127887482+128293129+128830955+128812280+128641743
4141+128792124+128914878+128311594+127356296+127384361+128428330+129255049
4128+129034059+127936605+127283251+128180527+129666494+129993465+129243819
4114+128660830+128520374+128286086+127859881+127813789+128333019+128552950
4101+128007888+127590679+127860915+128239084+128578606+129288659+129843294
4087+129520230+128802128+128325775+128252792+128660077+129088148+128906154
4074+128175123+127498443+127552961+128518061+129462489+129199944+128335410
4060+128440935+129177704+129244117+128739857+128425658+128500534+128426999
4047+127957251+127840374+128432710+129187251+129333323+128869119+128751148
4033+128952220+128648795+128084735+127967823+128192817+128285184+128293733
4020+128446952+128769263+129044149+128988107+128610464+128237446+128386583
4006+128821328+128919135+129064357+129432926+129326105+128590195+127780574
3993+127492452+127938462+128713605+129353303+129651910+129278804+128309500
3979+127495587+127216873+127223512+127381602+127714292+128007267+128197748
3966+128198852+127967946+128342155+129161805+129100131+128515714+128276101
3952+128132736+128077850+128226181+127761496+126915322+127483000+128922595
3939+129229708+128329831+126884831+125924479+126454894+127137539+126317889
3925+125343601+125645790+125756956+125383088+126408049+128726885+129863510
3912+129146459+127779847+125278518+121345671+119048848+120285339+123770574
3898+127674393+128576363+125314362+122747364+124428237+125039414+123399973
3885+123333752+123051832+123168042+125594066+125485809+122793483+120800776
3871+120081255+121881465+122865669+121539796+122956915+126378346+126505138
3858+121595699+113580525+112922529+123036117+129185937+129263808+126222219
3844+122301328+118950016+116783339+118161584+122385295+124700540+125497372
3831+126358375+126159931+125268077+123046707+118632882+117940112+120940909
3817+122472968+125755484+129025965+128150386+124401897+122260308+122562103
3804+120916304+121119810+125404916+127172296+127768048+129264036+129773026
3790+129574013+128939256+127894481+127705681+127257297+126131244+127255046
3777+129534832+129579601+127376740+125702323+126558991+128009824+128891885
3763+128245347+125686539+124975102+126663210+125667820+120440091+116822275
3750+119850173+121270542+119733498+123609717+128754345+128083097+123826248
3736+121179777+123818041+129664042+133511231+133673595+132982822+134058114
3723+136750678+140543445+144363594+146565448+145741550+143590439+146682623
3709+155562163+164256986+170569836+176785211+185649790+193799552+197534481
3696+197226852+193117722+186249072+182021200+183540760+184636085+181562962
3682+175568586+168622082+161230200+156470546+158117046+158599636+156991361
3669+160151465+164218112+165058697+164875818+164759424+163334343+161944580
3655+162135867+159477518+153390853+152906197+160773906+167292584+169287795
3642+169110453+168751546+168214141+167406561+166188674+163040168+159664951
3628+162579933+167704975+168582000+166040238+163403507+163856052+164960382
3615+164349905+164007414+164166221+164588003+166544025+168272058+167843023
3601+166802111+166662084+166710821+167098266+168040810+167387571+164795302
3588+164679608+168301682+170857756+171077599+170597235+170327849+170463514
3574+170821755+170323224+167997942+165628845+166578151+169311218+170709828
3561+171389468+172408202+172867754+172079865+171237300+171280361+171171097
3547+170838416+171618351+172942313+173487305+173325922+173105220+173092449
3534+172853318+172072297+171251911+170939131+170840676+170755622+171163178
3520+171808114+172109805+172260291+172150868+171470352+170926535+171103720
3507+171185795+170899136+171214526+171820167+171735534+171548171+171875806
3493+172102815+171752264+171182449+170829656+170629767+170500339+170738331
3480+171279415+171459718+171129893+170995209+171282569+171350769+171019612
3466+170728030+170741151+171050988+171373001+171498838+171543703+171571803
3453+171696835+171766402+171497174+171526430+172101991+172541747+172891299
3439+173237732+173342249+173445908+173762016+174173094+174409527+174336193
3426+174151493+174092805+174249300+174616003+175190724+175860290+176428196
3412+176974606+177533104+177804662+177953537+178506254+179291287+179737525
3399+179947872+180418829+180881202+180942745+181037960+181487106+182096075
3385+182543872+182772737+183127334+183585940+183845954+184135977+184855367
3372+185846982+186731714+187438175+188022479+188629871+189316799+189860336
3358+190236902+190679829+191415880+192433229+193223115+193478661+193682649
3345+194267863+195143766+196229632+197280126+197748228+197636493+197508641
3331+197812977+198712916+199881399+200681761+200943474+201106328+201504074
3318+201989975+202372514+202660628+202753880+202639237+202682369+203073527
3304+203659477+204092208+204255886+204855430+206131935+207338644+208266052
3291+209211172+210281726+211518883+212677416+213399399+213883460+214585612
3277+215563439+216470805+217118421+217741739+218154236+217879156+217404573
3264+217584788+218266741+218546936+218021478+217354382+217218208+217454291
3250+217776128+217923233+217525330+216904167+216776893+217103583+217252317
3237+217127356+217225899+217438349+217363316+217212392+216956916+216262648
3223+215620200+215577524+215548180+215040977+214581793+214336110+213862315
3210+213445946+213558259+213679927+213185565+212238799+211387475+210896406
3196+210542142+210118031+209701032+209379808+209060546+208534580+207731030
3183+206761979+205814145+205121768+204774319+204544998+204220113+203845106
3169+203521605+203209596+202845153+202632545+202566412+202290509+202078409
3156+202350738+202719911+202688255+202142037+201337015+200826974+200686386
3142+200456330+200111999+199850934+199498579+199017900+198584766+198167084
3129+197596971+196725991+195750511+195227015+195168117+194876010+194063752
3115+193089762+192258339+191562704+190778425+189857533+188835945+187491064
3102+185997520+184983972+184442433+183737530+182741431+181827337+181069318
3088+180538097+180408581+180455146+180294481+179817095+179222263+178768317
3075+178543411+178433744+178227075+177977310+177971441+178085418+177868886
3061+177405865+177238789+177522978+177823302+177818047+177676653+177478708
3047+177284513+177315977+177390011+177258305+177026777+176730447+176235332
3034+175576487+175037662+174880396+175038415+175074084+174801737+174475222
3020+174190297+173933385+173683672+173337029+172932345+172548930+172162273
3007+171883830+171875088+171792277+171271549+170744953+170551563+170419402
2993+170378934+170700088+171333443+172165234+173024231+173556101+173566577
2980+173230269+172997988+173159003+173336118+172966857+172256980+171889944
2966+171966554+171958372+171677109+171428640+171201439+170934506+170969579
2953+171238316+171245429+170989112+170814082+170708497+170543995+170517612
2939+170704327+170884087+170932894+170760755+170336626+169825481+169415209
2926+169296502+169369520+169086732+168198391+167150296+166515452+166359377
2912+166464069+166757981+167031712+167054311+166941543+166866002+166853003
2899+166922027+167071567+167222912+167363920+167431490+167311329+167217411
2885+167401445+167754781+168095398+168342466+168445844+168446142+168490884
2872+168742296+169163605+169417802+169311638+169041429+168879766+168894552
2858+168892432+168751161+168506809+168162460+167746880+167301694+166999197
2845+167004137+167189171+167403057+167592295+167785702+168003372+168101267
2831+168124269+168390134+168818135+168932760+168764545+168669839+168567687
2818+168411962+168397632+168416710+168367500+168470247+168794257+169153496
2804+169428944+169617271+169770174+169929665+170116415+170345105+170529595
2791+170620149+170668694+170681763+170708251+170783302+170843864+170856845
2777+170834404+170778607+170642451+170552527+170696724+170829183+170777748
2764+170781918+170824331+170781707+170757847+170781760+170909034+171248600
2750+171674709+171929396+171899352+171695941+171534103+171549362+171761024
2737+172117548+172418362+172470253+172422409+172508286+172673646+172817037
2723+172969608+173091486+173134897+173128065+173044203+173018030+173240045
2710+173543610+173719638+173842953+174024710+174212388+174306429+174299772
2696+174308601+174424821+174532701+174607314+174827174+175144089+175311077
2683+175291684+175291351+175402806+175479923+175426999+175313092+175195296
2669+175082913+175004797+174956077+174913822+174901489+174911860+174867625
2656+174775179+174721729+174662183+174580755+174565707+174513133+174307428
2642+174090843+173996908+173924503+173789608+173694551+173593643+173344579
2629+173137175+173172527+173223507+173026964+172691112+172450772+172335481
2615+172233224+172079970+171885775+171701793+171527831+171271514+170980633
2602+170872297+170952515+170997486+170966268+170996890+171055473+171020050
2588+170854410+170551739+170273698+170205726+170267181+170318984+170253254
2575+170029697+169763184+169530413+169371150+169312602+169260046+169134576
2561+168912070+168579634+168243555+167974554+167783932+167811297+167932824
2548+167802380+167504789+167292461+167126173+166935552+166797136+166751955
2534+166742933+166703691+166586893+166407939+166204021+166019075+165941064
2521+165943219+165925525+165920252+165959214+165946039+165833779+165718628
2507+165672764+165649184+165617423+165615671+165637867+165691877+165823005
2494+165975769+166093250+166199028+166268227+166289232+166429557+166812500
2480+167210929+167342232+167228938+167065155+167001159+167017487+167024810
2467+167089156+167258948+167389217+167412833+167436010+167512269+167606135
2453+167687369+167804517+168026322+168269745+168418006+168523977+168736638
2440+169102377+169484093+169711854+169749572+169720228+169760556+169853388
2426+169928456+169982256+170063386+170260507+170520906+170633744+170589965
2413+170612073+170852115+171225598+171509226+171669768+171807974+171883532
2399+171942903+172212167+172648594+172969065+173137087+173229533+173131306
2386+172604902+171385159+169267123+166175658+162303644+158111756+153950350
2372+149854394+145754207+141643150+137658798+134402691+132520843+132073090
2359+133223205+136281079+140894933+146874777+153071066+156137584+154279667
2345+149711301+146557320+145888690+146534624+147731383+148961077+149967110
2332+150868590+152145322+154000891+155960820+157641780+159384020+161619729
2318+164167535+166493886+168303626+169834854+171463205+173155412+174716631
2305+176064402+177110412+177966816+178844313+179690592+180395774+180939960
2291+181386846+181890895+182493366+183061411+183387698+183431863+183460786
2278+183639881+183845568+183979114+184033702+184046754+184127620+184341016
2264+184584825+184727393+184850024+185087473+185366442+185550424+185627839
2251+185726067+185900379+185980474+185978495+186131889+186342815+186385263
2237+186353519+186374226+186449837+186626741+186895917+187145857+187330137
2224+187462141+187572754+187700571+187775797+187709383+187618233+187704268
2210+187920379+188027401+188014683+188098475+188300081+188473289+188600650
2197+188740555+188885996+188955913+188981490+189149425+189402904+189483455
2183+189464500+189615967+189858059+189984229+190082422+190195383+190214548
2170+190244698+190414297+190617742+190768684+190859396+190868506+190907030
2156+191063262+191253008+191421170+191534885+191591698+191682953+191830584
2143+191963709+192053492+192112969+192173496+192309021+192502095+192610992
2129+192635483+192706995+192815120+192880553+192932864+193021579+193130125
2116+193218805+193322323+193502048+193656687+193660856+193610052+193634105
2102+193712817+193802513+193855332+193818052+193742511+193734225+193831331
2089+193962389+194050771+194116659+194198752+194260663+194242339+194227097
2075+194338376+194543398+194733705+194768094+194597812+194439933+194539474
2062+194821737+195035010+195077896+195003266+194898521+194852710+194927305
2048+195054508+195100653+195053475+195010852+195086655+195257708+195401888
2035+195500203+195589479+195690544+195797637+195888454+195958284+196008037
2021+195998577+195886789+195869621+196226215+196753775+197020796+197032499
2008+197081569+197255740+197432435+197553647+197703712+197933594+198037690
1994+197761840+197460079+197699438+198275104+198736583+199025328+199278106
1981+199537086+199730896+199882468+200019167+200165046+200240902+200060932
1967+199960707+200402267+201037918+201463659+201778225+201978955+202084716
1954+202308746+202606600+202779265+202749535+202411896+201910948+202101657
1940+203205391+204218711+204726019+204979621+205187849+205517464+205930960
1927+206032919+205574646+205206191+205248621+205340210+206029870+207258251
1913+207864435+207797023+207910737+208606267+209484044+210117943+210523818
1900+210751088+210707747+210654980+210924910+210954709+210745868+211399983
1886+212598074+213410716+213929324+214381273+214803125+215198698+215490053
1873+215064067+213469684+212392579+213948525+216651546+218367299+219111513
1859+219585098+220129283+220757716+221369856+221818687+221774715+220840615
1846+219453584+219981810+222802628+224833070+225459628+226024363+226440311
1832+225566492+224461882+225256043+226880119+228502812+230582901+232258728
1819+233137645+233805968+234287418+234170235+234143361+235210026+236718128
1805+237508014+237270828+236826605+237508855+238853770+238897164+237694694
1792+238510858+242129726+244891908+245787765+246158550+246560044+247350806
1778+248489315+248365037+246263399+244808011+247026061+250993342+254124014
1765+255199087+254888900+255592243+257002626+258054715+258963746+258423888
1751+256478675+256230084+258613511+261234983+262530425+262742630+263584879
1738+264578421+263346764+262778946+266620617+271072362+274546735+276772826
1724+277688163+277529951+275064869+271233762+271588990+276898821+281964177
1711+284731020+284864916+283556860+283091334+282285138+279986432+280189439
1697+283787056+289580037+295682767+298492320+298828190+297316076+293621965
1684+293782209+300644710+306229935+308040534+308127252+309224697+310127509
1670+310936595+315484045+320680599+322618209+324230215+327964338+330645199
1657+329077305+323662502+323702129+331587463+334579246+336186487+343399591
1643+351022178+354711979+354667376+352157289+353494811+361646184+368065408
1630+370632572+372353614+374391887+377063393+381814130+385927744+387585509
1616+391554805+399117548+405330996+409610513+413894551+419190121+424795528
1603+430310539+436070812+441907642+447591953+453549277+460009074+466614137
1589+473320738+480406340+487852794+495519318+503362466+509819671+514341017
1576+521378057+530712752+536987411+542751538+552164543+562492236+570715226
1562+574548821+574395637+582472170+600721672+616302996+629215232+640483298
1549+650989017+659520302+664930305+668091320+673454232+689116563+705954263
1535+716370426+725674709+736934576+746636044+754552911+761710586+767163475
1522+774157594+785091261+796090099+807276737+818741503+827426113+831831940
1508+833376324+841969696+859545916+871674083+876460558+879023482+885405916
1495+894361646+900057976+902247820+905476387+913080089+921208023+926404437
1481+929586824+932957153+936205061+936981983+937342940+942704030+950357555
1468+953632302+952005230+951499148+954130535+953999775+948786894+947161643
1454+951320597+953695089+953153339+949965345+946523049+945080485+944584494
1441+943818083+940330168+932738940+926897275+924679680+920475738+915160337
1427+913230751+913306572+913782522+915148564+917012070+920729270+926958450
1414+932837535+938123716+944306086+949267959+951341759+952485174+954029627
1400+956595565+961862825+967512765+969145233+968417994+968109874+967716613
1387+967567493+969723983+973593246+976605421+978706411+981062754+984077943
1373+988280693+992238321+993374657+991977641+989735380+987361799+986640657
1360+988197093+990385817+992114358+992406851+991264908+989803844+987824294
1346+984260488+980374197+977099590+972696145+967967692+965991015+966691485
1333+966685249+963735650+961019332+961954623+964731206+966117361+966564369
1319+969169829+974171365+976911929+975295508+974256926+977031547+981164223
1306+984260278+986043968+986879683+987947416+990425830+992955468+994792836
1292+997020031+998636662+1000672622+1006545470+1015015440+1021768221+1026701153
1279+1032357820+1037575046+1040582176+1041848572+1042630470+1043886775
1267+1044695651+1045727506+1049248076+1054257179+1056875743+1055508439
1256+1053606813+1053823975+1055503604+1057781463+1059222556+1059765497
1244+1062001101+1064991553+1065668688+1065846048+1067645785+1068808541
1233+1068293980+1068340579+1068810573+1068509250+1068239461+1068005130
1221+1069159336+1072443473+1073741823+1070816961+1067048606+1065615291
1209+1066321367+1067848583+1068461179+1067453289+1066786245+1067279924
1198+1067226036+1065634422+1063259228+1059868227+1055179507+1051807566
1186+1052291925+1054813925+1055287703+1053249360+1050141672+1046955851
1175+1044899009+1042870336+1040449805+1039851994+1041126099+1041644654
1163+1040516586+1039218726+1038620636+1038976407+1039222651+1036903167
1151+1032235539+1028723588+1028717772+1029832175+1028120523+1024125335
1140+1021461432+1021719659+1022807644+1021108604+1016974668+1013671050
1128+1011906281+1011247015+1010810587+1009956443+1010095121+1010656492
1117+1009725826+1008037648+1005596024+1000826717+995335006+992300127+993387691
1103+997855115+1000208305+997553582+995228282+996916039+1001136168+1005991037
1090+1010464627+1014442997+1015902380+1012557558+1010326649+1014781529
1078+1022019790+1027131834+1027453829+1024453986+1023506852+1025969709
1067+1031254769+1036059674+1036719640+1038457641+1041917316+1038793861
1055+1032691517+1035004694+1043674237+1046356429+1043021628+1044483324
1043+1049947144+1048877028+1040010294+1034019089+1037078354+1042379180
1032+1041886203+1035078693+1026514263+1020870770+1017226097+1015750667
1020+1020309539+1027893339+1031149866+1030446313+1030419474+1030200490
1009+1028093614+1026079587+1025438541+1026120721+1028382533+1031929521
997+1034605336+1034703441+1034122239+1036247405+1040432636+1041902250
986+1040283306+1040630878+1044737696+1048114892+1046892924+1043701637
974+1042463481+1043849845+1046480042+1048689928+1049800477+1051856268
962+1057326396+1062496812+1063870213+1064871024+1066834457+1067645856
951+1066158373+1062312795+1059100275+1059459270+1060458119+1058682067
939+1057427234+1059475457+1061169731+1060422381+1059917490+1058860899
928+1056095107+1056070651+1058722290+1058343955+1055744312+1055694839
916+1057365638+1057147144+1055423088+1054443509+1054219759+1054352061
905+1054813435+1055296392+1057396821+1061322915+1063204009+1061034626
893+1055582088+1049308480+1047158999+1050332837+1054884421+1056640151
881+1053621108+1049089356+1047063486+1046444023+1045120726+1040955746
870+1035132721+1033363887+1035422481+1035869280+1032818843+1029122806
858+1027738544+1027863207+1028542514+1029860346+1031173131+1031421407
847+1029202972+1025798726+1024112160+1025470845+1027665806+1027113124
835+1026480557+1028157452+1027761598+1023355771+1018745114+1017261695
824+1017301988+1016023609+1014137680+1013213250+1014483010+1017886484
812+1019958743+1018710426+1018354866+1020215568+1018338748+1012966236
800+1010298689+1009974452+1008073527+1004791632+1003161687+1002610687+999921558
787+997067121+996321172+993095899+986883256+984670217+986600574+985741944
773+981316636+978004539+975354722+969795319+964237598+963675666+965639589
760+966774454+966674177+960432664+951222281+951075194+956140147+954530384
746+949046031+946690459+946543932+946024956+944937672+940685168+931923266
733+924630627+923059475+924241711+922824023+916763373+910233782+907714234
719+908863534+910447090+909569120+906839137+903862489+901381693+902740308
706+909394072+915497047+914997412+909873806+904953558+902095407+901584840
692+902558813+904135432+906075319+906538234+905912675+908050594+912007100
679+914333381+916149796+917301690+913908937+905396432+899759246+907938964
665+917215287+916382025+912466582+909852153+908236783+909772408+912667908
652+910039393+906058010+908014085+912589144+916079091+917241916+915552337
638+916801564+923433466+925823305+917813518+902785646+889106509+890443400
625+905304774+911513212+901546439+890061982+885925803+889763603+900374715
611+911313848+915243306+912325732+909063178+910078916+909272352+902711787
##END=
