##TITLE=Sample description
##JCAMP-DX=4.24
##DATA TYPE=INFRARED SPECTRUM
##DATE=12/9/2023
##SAMPLING PROCEDURE=Instrument type and / or accessory
##ORIGIN=Default
##XUNITS=1/CM
##YUNITS=ABSORBANCE
##RESOLUTION=4
##FIRSTX=4397.6552
##LASTX=599.8556
##DELTAX=-1.9287962
##MAXY=1.9676535
##MINY=0.33003566
##XFACTOR=1
##YFACTOR=1.8325201e-009
##NPOINTS=1970
##FIRSTY=0.34656262
##XYDATA=(X++(Y..Y))
4398+189118044+189168703+189329203+189209231+188934207+188883482+189323023
4384+190265856+190965020+191146271+191417831+191544748+190928997+190340519
4371+190744038+191395225+190981462+189987693+189808832+190409784+191520565
4357+192572847+191803460+189882943+189183194+189556170+189977691+190803902
4344+192056187+192967323+193253601+192518887+191356812+191275269+191479826
4330+190614779+189776014+190539709+191905982+191870984+191006897+190766269
4317+190966906+191040090+191159948+191541397+192167491+193047695+193638076
4303+193581968+192998841+191854721+191014801+191293305+191981979+192283886
4290+192230153+192478912+193427356+194173389+194054279+193324996+192075296
4276+190951749+190650086+191004213+191440046+191351380+191277351+191816731
4263+192180925+192177103+192530141+192998256+192895408+192428562+191972335
4249+191970367+192782884+193269799+192303711+190785801+190359661+191103076
4236+191732244+191823350+191427849+190595572+190328712+191105581+191900827
4222+191777781+191379776+191629998+191809282+191234661+191061752+192549982
4209+194220113+193689873+192352370+192272762+192137047+191387728+191436566
4195+192027142+192387969+193077343+193858602+193633376+192837674+192768150
4182+193280273+193170888+192444467+192215663+192585533+192712970+192322722
4168+192173688+192840586+193623976+193829231+193296731+192341034+192136104
4155+192674947+192720451+192161230+191614841+191832294+193155633+194538852
4141+195018481+194761851+193935169+192828551+192272616+192482376+192983863
4128+193455556+193603956+193529536+193808317+194362496+194591235+194208631
4114+193285070+192421081+192356061+193042166+193697452+193758585+193681969
4101+193893308+193922239+193576178+193160170+193140882+193681091+193992170
4087+193860050+193711097+193354904+193063438+193223206+193356595+193221124
4074+192846196+192154855+191924197+192705830+193314230+193122082+192944149
4060+193067455+193227532+193326265+193294714+192956460+192524806+192164954
4047+191703410+191836132+192794203+193661494+194267211+194619240+194401982
4033+193952359+193672553+193352204+192990937+192967779+193288534+193608672
4020+193771725+193958538+193966312+193485756+193025496+193089394+193604232
4006+193918808+193507809+193199852+193344333+192910240+192131062+192041664
3993+192728989+193957026+194933068+194932856+194458252+193952521+193327452
3979+192936489+193280777+193785419+193411824+192600690+192277804+192364811
3966+192583711+192772460+192911183+193128295+193363588+193397220+192940619
3952+192205677+192227372+193533277+194264202+193190208+192699992+193587449
3939+193504166+192164662+191107581+191634780+193625878+194593463+193048590
3925+191234205+191199841+191185465+190403197+190675879+192353915+193924874
3912+194515173+193720269+190937633+187211676+185798403+187568617+190191696
3898+192222070+192412380+190287990+188717648+189795610+189963982+188970278
3885+189500664+189366445+189236797+191314870+191404414+188827164+186433246
3871+185135408+186616352+188326766+187938470+189127460+191957015+192259199
3858+188413302+181773239+180329993+187677465+192892611+193914271+192551445
3844+189827014+186588607+184095680+184703608+187593223+188884556+189060847
3831+189951703+190627757+190495197+188698637+184762838+184167416+187210521
3817+188800541+191696807+194967919+194388549+190373062+187415419+187381771
3804+186123273+185952056+189241009+191130008+192277381+193849121+194497820
3790+194637390+194235823+193314767+193142655+192898791+192273136+193358986
3777+194978442+194654466+192447947+190522747+190781182+191679227+192590883
3763+193091605+191699734+190185598+189738316+187634986+182897437+180099334
3750+183423724+185523623+184405800+187086662+190847552+189836187+185808860
3736+183054440+184690793+189478839+193051501+192966266+191548911+191992453
3723+193721993+195879267+198182225+199068446+197094684+194026632+195500680
3709+201337496+206078282+208003483+209452876+214231994+220811217+225220384
3696+226572817+224747309+220584429+218647097+221354500+223321627+222435861
3682+219997660+215822648+209294588+204358483+205901454+207129963+206151693
3669+208773358+212519839+213634751+213290788+212632932+211161063+210032360
3655+210317175+208284557+203199857+202339331+208531592+214139490+216320963
3642+216749445+216903163+216635035+215638811+213873931+210553720+207448962
3628+210644940+216424982+217923717+215235634+211980573+212378806+214531819
3615+215327536+215630045+215522270+215410917+216897797+218337351+217869854
3601+216924940+216967955+217072218+217074007+217908397+218232633+216767172
3588+216337243+218763556+220867878+221438970+221633818+221991669+222204520
3574+222143517+221619457+219776369+217404764+217712623+220236954+222079067
3561+222981567+223446527+223485087+223273521+223255762+223463196+223156671
3547+222471721+222602443+223686211+224685932+224916428+224713709+224691966
3534+224876762+224768223+224109814+223579363+223589544+223731244+224088949
3520+224868989+225580268+225716780+225158194+224290171+223979694+224224713
3507+224161612+224023539+224527644+224993596+224629077+224211491+224622636
3493+225239834+225041686+224347954+224171988+224379163+224561048+225138467
3480+225767553+225631497+225127327+225046288+225467159+225860399+225823254
3466+225455905+224908313+224619286+224951946+225378330+225549580+225777669
3453+226194409+226323456+225744135+225076846+225053883+225748249+226950054
3439+227819004+227791373+227579547+227937415+228532382+228895714+229225528
3426+229413187+229289507+229535631+230431529+231270343+231599897+231582333
3412+231567176+231753859+232107792+232647968+233447279+234243891+234591692
3399+234610070+234769610+235070541+235437077+235951899+236459842+236868353
3385+237242793+237599637+237908341+238145651+238353330+238556342+238893523
3372+239402068+239779744+240069990+240613891+241338441+241902085+242173043
3358+242424486+242927713+243499927+243867667+244306882+245156577+246010971
3345+246445731+246370677+246061923+246383980+247380871+248276671+248687540
3331+248676205+248769473+249202720+249572704+249322237+248567763+248435382
3318+249101857+249600367+249560377+249193531+248907237+248929924+249008442
3304+248975461+249063915+249498756+250454144+251839103+252996738+254067820
3291+255781098+257469070+258312633+259014236+260355724+261954754+263172432
3277+264055514+264731714+265252212+266125634+267213550+267744131+268028311
3264+268410980+268229972+267574231+267430027+267921707+268183785+267848198
3250+267611099+267894954+267979603+267518563+267351493+267755840+268069652
3237+268033336+267703603+267122525+266855389+267039259+266911773+266679423
3223+266963164+267272568+267307647+267188033+266725090+266168829+266000539
3210+266095401+266111990+265974437+265717042+265146828+264286075+263713763
3196+263572112+263591123+263692897+263574519+263024763+262179005+261196116
3183+260322271+259792731+259758448+260147021+260350341+259681654+258515514
3169+257980103+258151174+258182496+257877174+257668780+257813634+258007864
3156+257737963+257185963+256845822+256601958+256231112+255974140+256019026
3142+256146154+256253409+256235048+255614548+254554524+253846221+253726606
3129+253810507+253490922+252696961+251960897+251406376+250883488+250422967
3115+249965765+249433248+248869019+248109926+246883320+245450482+244326805
3102+243441315+242471486+241637697+241147546+240510474+239465103+238600398
3088+238407145+238523279+238263770+237651125+237195012+236931617+236624912
3075+236224777+235823779+235633746+235567750+235433743+235478092+235647911
3061+235581297+235383149+235154312+234904691+234924271+235141724+235221771
3047+235416813+235903614+236104414+235666434+235088219+234878865+234660111
3034+233891748+233038329+232714061+232698058+232798352+233063716+233135501
3020+232807183+232440631+232326172+232302623+232063491+231667714+231349154
3007+231118008+230886780+230566756+230171939+229807078+229551211+229532232
2993+229847182+230411509+230964598+231392365+231923190+232478247+232591308
2980+232338304+232251215+232513131+232824910+232822145+232550357+232283969
2966+232065800+231760543+231364344+231060550+230830624+230593688+230558543
2953+230604519+230437611+230328503+230420763+230529530+230722019+230939000
2939+231026853+231077936+231038953+230809205+230580092+230448312+230226891
2926+229932547+229677624+229258363+228645393+228117187+227721279+227420739
2912+227423569+227842716+228341844+228524494+228497872+228540660+228579788
2899+228522087+228428103+228298796+228215789+228320718+228659624+229153141
2885+229567800+229735211+229750596+229827846+230010577+230152537+230197683
2872+230220093+230261873+230372608+230596696+230760140+230680239+230563650
2858+230578384+230390595+229864974+229455878+229196547+228655167+228178075
2845+228341616+228696313+228743801+228899861+229311088+229474629+229495722
2831+229757231+230090656+230287731+230285373+230108350+229862957+229680031
2818+229788765+230103113+230262784+230263142+230335154+230519008+230774467
2804+231144419+231504385+231750054+232069736+232358356+232325277+232243767
2791+232456520+232741594+232755337+232571450+232481646+232520466+232677469
2777+233010812+233298928+233291789+233002860+232643837+232468001+232498885
2764+232629184+232743025+232706206+232677697+232911884+233215157+233344660
2750+233423210+233582409+233763856+233821963+233695453+233523147+233523439
2737+233731004+233980544+234212227+234422492+234488845+234411319+234405448
2723+234572713+234819733+235098725+235315397+235340279+235274609+235268625
2710+235331888+235527695+235913697+236304368+236511217+236582319+236634150
2696+236656869+236650575+236797934+237027877+237134937+237371905+237832458
2683+238101774+237989136+237698093+237497163+237530567+237629870+237591391
2669+237655142+238036705+238372878+238300410+237975085+237662022+237506921
2656+237628796+237863114+237918278+237865065+237841826+237728033+237562931
2642+237552523+237646702+237748785+237805429+237707900+237547774+237420808
2629+237276067+237171073+237107761+236971071+236838690+236847472+236855294
2615+236647225+236313313+236119701+236106805+236087728+235945248+235715825
2602+235535159+235502162+235570938+235676810+235782455+235778015+235598341
2588+235371944+235276772+235366918+235484890+235394696+235107409+234781449
2575+234556288+234492488+234421044+234295461+234263895+234222928+234062315
2561+233875111+233663301+233399922+233119075+232912714+232951729+233134314
2548+233179460+233056804+232809135+232524418+232356811+232256566+232084292
2534+231868693+231724114+231600792+231457368+231356602+231200055+231034188
2521+231066161+231178474+231101712+230796455+230527156+230481798+230490564
2507+230409151+230301295+230260653+230337171+230477667+230528636+230457485
2494+230473699+230667294+230852335+230918184+230916558+230930592+231030057
2480+231205974+231385242+231494854+231523640+231535382+231585277+231682432
2467+231752331+231727855+231710909+231741906+231700224+231603687+231584334
2453+231670511+231828816+232015889+232155231+232242482+232372960+232603017
2440+232849434+232961747+232974123+233058691+233253977+233436318+233440856
2426+233313597+233327600+233608901+233977568+234190353+234191687+234095881
2413+234107623+234363522+234718755+234989388+235253045+235535224+235673167
2399+235724249+235866860+236048827+236180883+236286625+236382024+236374006
2386+235992980+234885338+232845352+229961999+226494169+222642450+218568888
2372+214415262+210259913+206294922+202664331+199545701+197608514+197319504
2359+198600445+201509510+205982363+211865203+217806965+220603327+218660367
2345+214237296+211392827+210922550+211498879+212549291+213698193+214638228
2332+215481352+216783972+218642478+220421637+221921088+223727503+226142953
2318+228724220+230920070+232609181+234072512+235590535+237177709+238669727
2305+239981194+241087519+242024660+242958938+243868610+244613197+245222426
2291+245810822+246433354+246973596+247356086+247591461+247605870+247485523
2278+247494810+247722931+248007111+248219002+248422957+248634962+248750803
2264+248811887+248942609+249139994+249405845+249723186+250010358+250226412
2251+250364128+250535199+250793976+251035319+251238233+251384454+251454238
2237+251516444+251598784+251707551+251839314+251947805+252057109+252193816
2224+252289117+252393965+252572891+252651555+252565491+252507074+252590943
2210+252773658+252946680+253085192+253277795+253485913+253621059+253727143
2197+253851360+253997418+254097875+254101420+254163415+254398692+254626829
2183+254704225+254751713+254824474+254885558+254999269+255137537+255222512
2170+255353055+255595813+255786481+255830651+255833627+255843418+255922326
2156+256141682+256369754+256473886+256518951+256629881+256800903+256913297
2143+256936049+256973031+257123269+257345536+257515468+257632448+257777953
2129+257940275+258088431+258224406+258322423+258376693+258400583+258447844
2116+258609222+258784992+258811013+258800361+258888230+259006105+259080866
2102+259103260+259159319+259340570+259540849+259631076+259664513+259738120
2089+259860320+259965363+260017795+260079188+260150664+260180051+260215033
2075+260311765+260476933+260614615+260629756+260640116+260720715+260785784
2062+260848315+260976289+261078648+261073249+261099725+261224316+261317455
2048+261334189+261365073+261465562+261589893+261667776+261682169+261777340
2035+262055568+262298863+262353832+262361281+262402117+262425585+262450906
2021+262503582+262533799+262606722+262836437+263133563+263393332+263638318
2008+263866472+264052131+264192579+264329286+264511822+264707287+264767428
1994+264552528+264402160+264800832+265497069+266004881+266265090+266470541
1981+266673227+266849307+267119224+267416187+267594983+267622874+267469009
1967+267429035+267803101+268277298+268577432+268854343+269108436+269263000
1954+269405431+269524135+269565655+269575673+269450561+269108046+269212340
1940+270142114+271067252+271539856+271771767+271942821+272193207+272548554
1927+272741547+272497114+272220285+272214235+272338989+273097285+274375396
1913+275089896+275088074+275134033+275661346+276347385+276866338+277312075
1900+277728311+277868141+277845926+278040659+278090326+278039586+278759908
1886+279802042+280397106+280886624+281495479+282087485+282643811+283054517
1873+282688046+281221219+280310067+281805907+284282148+285835495+286467118
1859+286887778+287439745+288015000+288512649+288902149+289012022+288468153
1846+287405527+287807484+290274845+292266090+293111410+293805386+294264816
1832+293556171+292533747+293121721+294609267+296250857+298255828+299795579
1819+300614259+301318058+301940769+302008033+302016035+302979164+304432200
1805+305241611+305086917+304787319+305561895+306891332+306999644+305960079
1792+306672074+309959840+312634197+313669631+314111107+314502981+315339388
1778+316541746+316515140+314642615+313399405+315559232+319323537+322322602
1765+323501931+323390822+324041376+325375107+326560518+327657329+327362871
1751+325619767+325330741+327522314+329929339+331227194+331777372+332846471
1738+333891305+332923037+332374941+335739175+339803793+342917772+344925183
1724+345927083+346062554+344118309+340717255+340900149+345828789+350666193
1711+353282524+353452375+352355922+352077174+351562384+349597810+349579075
1697+352727890+358276346+364192152+366849758+367040426+365726308+362689611
1684+362984330+369234959+374492307+376426729+376789492+377914178+378731785
1670+379389202+383377416+388134221+390095770+391624722+394906828+397302729
1657+396000614+391148996+390692883+397385703+400218788+401894400+408424265
1643+415146652+418202409+417928442+415659099+416920590+424239244+430155538
1630+432682422+434396219+436422918+438889791+443205575+447256695+449052263
1616+452870952+460316295+466432169+470425359+474468348+479588729+484911747
1603+489909440+495015347+500459525+506013674+511721541+517637704+523504851
1589+529478781+535705958+541944358+548272919+554608994+559282792+562222041
1576+568395551+577540966+583519580+588200404+595971333+604556194+611134133
1562+614239655+613826314+620184441+636513040+650620369+661565320+670959169
1549+679867925+686838843+691070743+693536738+697111416+709641362+725342207
1535+736092523+745224602+755677044+764309849+770320077+775921584+781183388
1522+786765054+795095366+805325460+816086314+825431114+831649184+834625968
1508+835317732+842237845+858229408+871440970+879311039+883464681+888871877
1495+897224892+902253094+902563718+904764561+912260840+918639524+922051051
1481+926110693+931003262+934121144+933632603+930979322+933665454+942507986
1468+949339693+951634666+952389531+952325455+948661200+941460517+940614385
1454+946550389+948497073+946735788+945111567+945557629+947469770+946872917
1441+941132850+930973208+920561944+917978334+919148166+916153948+912580896
1427+911836830+911144676+911222023+913900673+917905541+924081197+931948534
1414+937308372+940034185+942001230+943241904+945424988+949832007+953990333
1400+956007859+958625230+963962951+969614157+975079965+979570446+979609087
1387+976661251+975233618+974611134+975404640+978839326+980848200+980698710
1373+982809521+985840298+985962141+984752237+983684472+982497986+983290841
1360+985898520+987751789+988201560+987658570+988127660+990232746+990266378
1346+987056447+984055724+980977133+975978790+971365880+968958367+967511543
1333+965522900+963808257+963285693+962253967+960772665+961029751+964305060
1319+970100356+974428858+974886370+975862412+979920947+983267813+984012139
1306+983629568+983624168+986155736+990801887+993525164+993128476+993462909
1292+996686696+1000807161+1004489761+1007965169+1012029950+1017668601
1281+1024316146+1029460856+1030686178+1029415840+1029276824+1031587930
1269+1034623326+1036783902+1039500217+1042959623+1045138934+1046097736
1258+1046828987+1048535954+1052021511+1055674122+1057732240+1058885419
1246+1060223606+1061335736+1061117747+1060186721+1060950823+1063170206
1234+1064965904+1066751389+1068967194+1071214744+1073359121+1073741823
1223+1071140389+1068180909+1066048111+1062712824+1059836155+1061013468
1211+1064636285+1066560851+1066105747+1064862276+1065107652+1068114100
1200+1071198091+1070774276+1067177610+1063468209+1060921680+1059480580
1188+1058659168+1057085752+1055394918+1054551192+1053787350+1053104043
1177+1053822609+1056531964+1059917340+1061724097+1059379880+1054090103
1165+1050480557+1049502173+1049906472+1052113430+1054854140+1053171047
1153+1046842193+1043024740+1043864238+1044063817+1041981825+1041333385
1142+1042124484+1041291102+1038103418+1032005434+1025574578+1024998932
1130+1030088609+1033689373+1031275745+1026969296+1026679098+1026760608
1119+1022896513+1019977561+1019245139+1016990303+1012064818+1005252757
1107+1003412563+1011245161+1018332523+1016455249+1013830852+1014371761
1096+1014054176+1013421349+1015057150+1018910966+1021049489+1018583104
1084+1015563190+1014792908+1013664709+1012875562+1016852523+1022592850
1072+1024942792+1028865434+1035085261+1035494374+1031191763+1029558434
1061+1031807090+1033564278+1032591033+1031999124+1033056221+1034434675
1049+1035588374+1037156390+1039228690+1037844186+1033282277+1031571146
1038+1030555748+1027798515+1029578275+1033109824+1029185035+1023631082
1026+1025416372+1029505612+1027632892+1021751987+1018102173+1019671816
1015+1025064440+1027266714+1023397870+1021024704+1023157177+1024941166
1003+1026164731+1028506086+1030801905+1033931627+1036017848+1033164077
991+1028429260+1026310188+1028224216+1033635900+1037763066+1038035439
980+1038409163+1040720009+1043124985+1044576038+1046300764+1050768478
968+1055769488+1057298798+1056671045+1054970713+1051380943+1048348930
957+1049201698+1053283262+1058005329+1062045064+1064129074+1064024665
945+1064156200+1066522731+1067940737+1065784780+1064047759+1063402897
934+1059934059+1056018898+1055690059+1057657951+1059338962+1059916104
922+1059982522+1059877919+1060403084+1062052871+1062417553+1063166172
910+1066649778+1068012034+1065875072+1063163961+1060167596+1057548013
899+1057564341+1058918465+1053016678+1041935182+1041210502+1051194439
887+1058310683+1061188133+1063844926+1062628907+1058924840+1057118343
876+1056254712+1056214444+1058510979+1060019212+1055858870+1050925839
864+1051586248+1052552011+1048387050+1043172473+1041400845+1041150264
853+1039977244+1038549741+1035447927+1031360573+1031955149+1037250976
841+1040052510+1037547613+1033300752+1030081583+1027776527+1026683782
829+1027853484+1027547153+1024302224+1024329156+1029342591+1034603030
818+1036356119+1036206304+1034433634+1027779845+1022491044+1024600358
806+1029052784+1031153122+1027746148+1019280137+1014099583+1015269610
795+1023710966+1042482010+1054038126+1037636670+1014817758+1007440134
783+1007522295+1004894905+1002479195+1002567341+1004453722+1006917700
772+1005135533+998715931+993445019+991725367+992825918+992211436+985524145
758+976511957+963842019+948285849+945341461+956219148+963411699+962896291
745+962245770+962085807+959673155+956736573+956065495+954928059+952554698
731+949645568+943487281+936792509+933482137+931671607+929400118+925443714
718+919388859+914446330+913771350+916566639+920840432+926267729+931088350
704+934678705+939598726+944415769+946096325+945100443+939792191+928542796
691+917411470+915687459+925666517+939234695+945514174+942231840+935039940
677+929695454+927884273+926924755+923179770+916442714+917343361+927798730
664+932692535+931303477+931379913+932573229+930821246+926387555+921950025
650+921750446+924849853+927573715+935411843+947816173+948856096+937672143
637+925261893+914658595+913978996+919135351+908423481+902598196+928592170
623+950177174+933922149+915334682+904840477+900215727+921537335+958613781
609+973454898+970359394+961417137+944933064+939591310+945697101
##END=
