##TITLE=Sample description
##JCAMP-DX=4.24
##DATA TYPE=INFRARED SPECTRUM
##DATE=12/9/2023
##SAMPLING PROCEDURE=Instrument type and / or accessory
##ORIGIN=Default
##XUNITS=1/CM
##YUNITS=ABSORBANCE
##RESOLUTION=4
##FIRSTX=4397.6552
##LASTX=599.8556
##DELTAX=-1.9287962
##MAXY=1.769714
##MINY=0.14237331
##XFACTOR=1
##YFACTOR=1.6481746e-009
##NPOINTS=1970
##FIRSTY=0.16814847
##XYDATA=(X++(Y..Y))
4398+102021032+101663243+101659012+100786491+99898564+100966832+102720444
4384+103324257+102993880+102261595+101930323+102404533+102951487+103257290
4371+103504553+103884022+104335069+103949795+102865796+102575481+103078007
4357+102905315+101591963+100740056+101434279+102392816+102709667+102743969
4344+102888697+103507039+104378131+104868344+104682189+104252615+104102489
4330+103689035+102855562+102577804+102993437+103352808+103295299+103099000
4317+103139703+103037368+102448536+102213515+102908126+103676422+104002369
4303+104243022+104186254+103815871+103602132+103480196+103603181+104091676
4290+104484182+104761597+105201903+105710966+105887175+105487508+104926007
4276+104703589+104636270+104315305+103720208+103293997+103658123+104489272
4263+104739952+104485231+104577359+105020233+104963527+104151663+103573581
4249+103929010+104598054+104620457+104274937+104621488+105260045+105069985
4236+104627419+105086015+105775699+105671963+105385055+105355509+105367670
4222+105801385+106570720+106696309+106155729+105979674+106272494+106636928
4209+107024769+107161939+107040491+106649811+106016615+106069252+107013377
4195+107222686+105965796+105079153+105688381+106403814+106177816+105881163
4182+106390786+106936276+106486856+105598044+105500093+106296163+107118307
4168+107428540+107172526+106346603+105401384+105023072+105145270+105775763
4155+107085570+108005981+107849725+107493337+107527630+107733873+107784964
4141+107454117+107028376+106920987+106495463+105417721+104893622+105311453
4128+105749679+106203384+107106093+107825088+107788364+107383073+107156162
4114+107117340+106921430+106719309+106767516+106865656+107066566+107449271
4101+107571877+107267683+107077984+107365226+107918202+108206456+107758320
4087+106893882+106480853+106624099+106661980+106794278+107395631+107793544
4074+107732617+107245243+106660308+107008522+107693903+107256915+106284997
4060+106209731+106923880+107520433+107794421+107878466+107703948+107098987
4047+106665515+107240307+107944014+107867961+107750066+107881088+107713902
4033+107328122+107002510+106800615+107066358+107675803+107883954+107703667
4020+107622488+107460491+107217939+107318204+107462074+107531554+108060435
4006+108691235+108699987+108479214+108509655+108358345+107885961+107447246
3993+107152880+107208247+107707166+108160636+108067604+107712645+107583738
3979+107430900+107108868+106846923+106651149+106777082+107213817+107255975
3966+106741758+106510670+107260486+108016866+107842709+107486376+107058221
3952+106268805+106216412+107463538+107957304+106713116+106422168+107762407
3939+108333943+107415368+105496576+104267587+105646747+107380732+106477065
3925+104973590+105312483+105327401+104326625+105188703+108163104+109965222
3912+109411243+107384773+103284232+97664965+94852823+96632572+100719714
3898+105143733+106374630+103003554+100418576+102452794+102870037+100721179
3885+100941580+100886575+101030860+104083394+103866365+100039649+96966005
3871+95527481+97644334+99453946+98325899+100070163+104310242+104749138+99160429
3856+89182157+86382419+97751695+106941583+108862869+105991065+101602614
3842+97497679+93933189+94117897+98215065+100929212+102193787+103715552
3829+104326109+103988852+101311936+95167956+93551858+97531881+100263387
3815+104890485+109339150+108575573+103649724+99784865+99172101+97317926
3802+97873604+102960465+105642381+107929647+111195097+112128030+111470929
3788+110538069+109225342+108563739+107772994+106807911+108763084+111907086
3775+112121466+109163067+106288921+106524593+108379510+111029384+112336814
3761+109758417+107875392+109191519+108000484+102266387+99762136+106505019
3748+111110971+112558798+122030882+132750996+135535934+133705690+133216065
3734+138427140+148108497+156035138+158169250+156536281+155010014+154838470
3721+155920263+156847834+155795298+152941124+152907817+163209504+180203418
3707+194833850+204823478+213007381+223416222+232931468+236869569+235956047
3694+230617675+220853331+213068426+213462867+214722930+210591876+202422113
3680+192528899+181278448+172756466+172844182+172739613+169923972+172817999
3667+177976437+179703179+179245632+177903801+175128031+173044892+173141432
3653+169238483+160509135+159103494+169819512+180311368+185158289+186744697
3640+188350995+190270817+191423148+191239832+188319478+184930238+189013212
3626+195273894+195101319+189137906+182116514+179739922+179489396+177516213
3613+176929488+178893665+182469041+187867192+191982479+192795970+192578552
3599+192616669+192058007+192029456+193082155+191828058+187125576+184598488
3586+187042291+189179513+189028329+188182181+187536418+187178123+186982819
3572+185665706+181519211+176860397+177541564+181878301+184385301+185221052
3559+185790997+185688797+184847441+184127306+183612530+182283772+181088732
3545+182146729+184471028+185696988+185405868+184784949+184716147+184694322
3532+184057094+183083341+182357005+181881086+181718113+182182043+182831043
3518+183339509+183906652+183855480+182712190+181676090+181548051+181272879
3505+180505569+180706116+181877903+182365160+182254480+182563103+182827607
3491+182306700+181612279+181533441+181763155+181724713+181456592+181264706
3478+181281161+181495306+181670394+181629511+181671389+181803496+181451819
3464+180658326+180329179+180881078+181621971+181859442+181679526+181423575
3451+180937150+180023448+179566750+180117872+180834083+181463500+182298075
3437+182968159+183010362+182733526+182890298+183382562+183581447+183318552
3424+182788586+182543991+183029800+183957137+184787065+185413245+185864717
3410+185873415+185428470+185110155+185416138+186114466+186503320+186430214
3397+186604398+187376066+188325354+189165879+189627422+189548024+189415592
3383+189614892+190038427+190532409+190941840+191297315+191766525+192236386
3370+192726102+193393039+194055799+194663536+195249049+195727843+196147653
3356+196439425+196641075+197117464+198007497+199004576+199915964+200756326
3343+201255787+201350844+201314228+201407965+202061450+202994988+203390207
3329+203663390+204582119+205497702+205680186+205645884+205969552+206408963
3316+206651769+206949218+207461210+208009475+208571609+209081015+209254313
3302+208879383+208818248+210048150+211416742+211944140+212510451+213456936
3289+214280554+214976983+215787075+216451716+216968844+217863253+218775743
3275+219021912+219181649+219963822+220811092+221122916+221235241+221390512
3262+221203128+220509899+219969030+220161061+220591721+220600563+220316639
3248+219865456+219081547+218400126+218360779+218596768+218624343+218544963
3235+218482327+218333295+218100326+217955615+217990586+218037907+217996011
3221+217914985+217470493+216720957+216387398+216214715+215501813+214642411
3208+214253377+214112879+213733139+213160246+212514628+211727735+210862546
3194+210027139+209522217+209256176+208524921+207405409+206656578+206230024
3181+205471953+204369511+203424128+202913745+202683453+202280170+201716716
3167+201362182+201172483+201021517+200879338+200691719+200503195+200270842
3154+199913017+199432125+198829596+198197178+197642222+197347305+197439632
3140+197495957+197025445+196094691+195243281+195012573+195056765+194628438
3127+193831021+193128716+192624770+192268211+191818185+190953105+189743798
3113+188689761+188095514+187375054+185942813+184336606+183094516+181946398
3100+180629575+179226284+178032600+177282992+176759318+176222083+175762185
3086+175346950+174841069+174238992+173672826+173400366+173306611+173036520
3073+172634051+172268450+172047904+172018340+171966155+171855475+171869977
3059+171811210+171509530+171311821+171399917+171459696+171270269+170985350
3046+170876695+170962621+170883765+170417557+169799785+169307176+169015115
3032+168881978+168797046+168569900+168027566+167269206+166654291+166453255
3019+166530719+166493108+166152370+165625623+165086056+164558386+164068942
3005+163800117+163669547+163313747+162759660+162340139+162142394+162133805
2992+162439915+163105189+163779250+164101761+164180743+164203147+164125485
2978+163941790+163838849+163998874+164177434+163981461+163590438+163280711
2965+162892472+162500345+162332418+162117585+161715622+161451534+161337003
2951+161238781+161399458+161806828+162001065+161832649+161561147+161371159
2938+161203593+160926432+160558843+160230998+159940347+159606662+159291293
2924+159033697+158691368+158138511+157456638+156958568+156856893+156882769
2911+156841343+157016087+157358452+157512819+157548530+157618472+157698973
2897+157815964+158029277+158334502+158556296+158599258+158659634+158814489
2884+158871194+158766933+158661443+158633415+158544416+158215648+157709352
2870+157302615+157121524+157049322+156971569+156845339+156668569+156532393
2857+156467533+156230008+155532548+154537079+153806095+153628421+153783240
2843+154018686+154276626+154472924+154465962+154354288+154474316+154861904
2830+155192480+155341204+155341620+155164905+154959782+154944901+155131236
2816+155291081+155215209+155097332+155140711+155214721+155337552+155631240
2803+155973966+156186774+156240441+156297418+156519899+156832483+156998096
2789+156860853+156575718+156392005+156279914+156181657+156180318+156299786
2776+156530061+156766736+156826787+156617795+156159271+155813091+155981832
2762+156363489+156464911+156434172+156555484+156682583+156710357+156796807
2749+156936201+157036339+157144144+157245838+157247899+157134507+157027877
2735+157025888+157042704+157056844+157133440+157251624+157430310+157645269
2722+157775623+157798641+157776002+157786978+157915541+158094409+158134605
2708+158080467+158091859+158149776+158258738+158433681+158544217+158523495
2695+158514526+158616979+158715616+158737767+158746139+158804327+158911282
2681+158992163+159019828+159000354+158841196+158540944+158306113+158205866
2668+158136305+158050071+157930929+157808640+157726729+157735679+157768534
2654+157585526+157247754+157062703+157084546+157137599+157095269+156986216
2641+156842319+156666291+156518308+156418133+156272446+156026187+155740419
2627+155455555+155182318+154941881+154823570+154887111+154911178+154651050
2614+154234729+154020078+154112332+154224025+154017908+153512950+153189064
2600+153253201+153280632+153100915+152995768+152999836+152979458+152979078
2587+152917563+152668863+152408500+152276194+152215095+152187122+152185187
2573+152114866+151839387+151481914+151315496+151301609+151223612+151068469
2560+150832372+150447993+150072620+149917214+149979588+150021185+149834941
2546+149564334+149411035+149360450+149299161+149116388+148827845+148649755
2533+148714895+148796346+148712960+148566577+148444858+148389220+148371156
2519+148344042+148372503+148400666+148310843+148178185+148069819+147948408
2506+147879108+147973306+148165654+148290664+148299813+148246797+148218951
2492+148304008+148486221+148671489+148853675+149138014+149546080+149940042
2479+150171881+150194375+150092275+149983891+149896320+149811642+149789103
2465+149921210+150091497+150119561+150144252+150309096+150427787+150398602
2451+150432370+150691043+151005254+151168634+151317051+151573328+151793549
2438+151920774+151983229+151996700+152088267+152298453+152468586+152542741
2424+152648322+152818347+152997377+153212047+153446589+153645834+153839583
2411+154030999+154194370+154348140+154515073+154735511+155043864+155418252
2397+155878186+156777351+159134812+164775099+176190910+195706054+224060376
2384+259772325+300189830+343433355+389138584+437622658+489209787+543445569
2370+597776897+648148047+693012281+730322861+753575902+759955021+748787929
2357+716890743+670965022+620230207+573050461+546875222+553408978+586574617
2343+613797927+613107989+601003380+591716239+586967106+586656529+588880219
2330+587648581+580550123+570230281+557838892+542343181+523612887+501561504
2316+478996340+464579475+460914105+456479237+439412597+410909117+381156241
2303+358912936+343784869+330352208+316233335+300921717+283774395+266065681
2289+249913014+235752480+223471408+213877126+207420399+203211213+199953828
2276+197051483+194477779+192280506+190445182+188847491+187396535+186097342
2262+184882755+183558537+182079482+180623554+179279463+178042129+176948510
2249+175976837+175022360+174121749+173376444+172719759+172109744+171578585
2235+171124943+170756088+170472743+170242161+170057001+169952777+169868279
2222+169764109+169733984+169751180+169711906+169621641+169567883+169641187
2208+169816058+169984022+170091194+170143650+170173178+170232957+170364685
2195+170542250+170697846+170795887+170877599+171040356+171257521+171396300
2181+171469659+171593575+171762949+171859453+171850231+171817702+171914820
2168+172204006+172458004+172543948+172597489+172681317+172778128+172869279
2154+172947068+173041945+173149858+173209637+173247700+173363280+173516977
2141+173629032+173742876+173955647+174251921+174507872+174718437+174931714
2127+175082211+175100854+175105356+175302197+175620874+175832289+175957381
2114+176187257+176552749+176896597+177168116+177500771+177922860+178323774
2100+178711218+179179415+179763790+180457344+181240639+182148826+183228413
2087+184445984+185792823+187335924+189153999+191193180+193149890+194906015
2073+196768373+198801949+200672389+202293532+204048320+206248901+208639597
2060+210876560+212982536+215074680+217154184+219145467+221079537+222978909
2046+224710660+226244593+227637885+228906429+230034964+230929861+231546205
2033+231983735+232334364+232526178+232429837+232085248+231585063+230809561
2019+229657954+228474233+227608321+226755736+225555958+224212536+223049483
2006+222089255+221182822+220243823+219279635+218415911+217619127+216527823
1992+215469085+215261793+215626200+215904970+216072446+216246268+216473216
1979+216795310+217225861+217732049+218307275+218759524+218875719+219259745
1965+220511671+222022261+223269143+224473767+225730666+227035338+228397854
1952+229716359+230916571+231938223+232567423+232852775+233983552+236471927
1938+238828774+240235880+241138281+241989492+242916756+243728566+243940687
1925+243345264+242842059+242750420+242462228+242885510+244203346+244646916
1911+243885808+243206665+243298793+243577600+243497894+243199324+242794269
1898+242080626+241263517+240798954+240047791+239102029+239613605+241067472
1884+241980867+242587681+243297419+244165591+245193553+246076010+245866313
1871+243941193+242652307+245057233+249047971+251535351+252521273+253068616
1857+253713420+254313418+254623796+254508451+253605615+251455790+248408645
1844+247408854+249668708+251350914+250953020+250008451+248673347+245507530
1830+241782435+240593814+240765014+241035738+242083482+242651873+242019707
1817+241001907+239686874+237617278+235817629+235764830+236511473+236214530
1803+234323675+232117398+231723625+232570479+231780132+229088226+228822366
1790+232628341+235728286+236288377+235908112+235445031+235628094+236606837
1776+235989264+232459329+229558232+231717731+236418694+240106829+241170232
1763+240137894+240256493+241633421+242715069+243619459+242525714+239247716
1749+238037559+240587485+243753321+245357774+245616148+246384706+247067664
1736+244713458+242996245+247520528+253317370+257626261+260166983+261023854
1722+260475082+256705362+250635319+250064234+256930645+263825988+267372107
1709+267168666+264862991+263674135+262324059+258955669+258668924+262929644
1695+270116595+277992833+281570016+281640120+279291520+273879101+273290080
1682+282301434+290215246+292912866+292904928+294241117+295605532+296770249
1668+302951677+310394181+313515355+316227332+322225101+327100591+326119678
1655+319772094+320915601+333069719+338842005+342842905+354510507+366733590
1641+373570907+375453571+374279541+378438767+391510692+402088672+407260744
1628+410750537+414080268+417284077+422109408+425679630+424898812+425181579
1614+430080540+433582918+433907635+433785256+434891441+436629340+438708555
1601+441556401+445067892+448721364+452627116+457188667+462182812+467458602
1587+473227091+479707542+487070973+494657971+499866315+502164757+507885835
1574+517835501+524374465+529578361+539134672+550057621+558472630+561627255
1560+559061995+565735526+586840314+605302452+619756024+631742955+642626956
1547+651172156+655989495+658375742+663489409+681087697+700830801+712591852
1533+723004780+736499389+747314895+754263742+760218657+765407039+772550015
1520+783738950+795582527+808332592+820834065+828816408+830922240+830517130
1506+841507959+864425181+879672661+885232954+886923478+892445220+902221372
1493+908305103+909328400+912382164+921696211+931446614+937773222+941722697
1479+944502626+945636513+943505077+940580058+944885386+954269303+959063858
1466+958177550+957683404+959253285+957391416+949988927+948209657+955358129
1452+958741926+955653662+951200350+950010770+951313833+951901209+948556759
1439+938990070+926390954+921371530+922181605+919098693+914842909+914017284
1425+914554320+916496257+918365576+919005462+922626350+929699674+935768144
1412+939116282+942501598+946815461+949458256+951596057+955357406+958181745
1398+958965781+961076821+967377102+975506922+979400993+977291979+974028898
1385+974597469+977044978+978831843+981086743+984455568+987959139+990011231
1371+990075893+990014414+991603606+993358864+992409992+990656976+990985491
1358+990899710+989090495+988354919+989739784+990434278+989025834+987083536
1344+984799271+981459450+977742076+973845618+969973390+967510692+967159901
1331+967556403+966706042+965744223+965830149+965647882+965862335+967846294
1317+971132809+974751166+977662371+979062425+980017951+982939861+987702519
1304+991997433+994850847+996526472+996809492+995600817+995273894+998270012
1290+1003050608+1007167884+1012033393+1018945859+1025133598+1029115186
1279+1032816141+1037463075+1041885503+1044373805+1045431025+1046599557
1267+1048519723+1050005920+1049747636+1049928384+1051793147+1053994741
1256+1056840272+1059764857+1061111678+1061645966+1062451700+1063007903
1244+1063694369+1064802435+1065395453+1066110416+1067672196+1068914503
1233+1069557210+1070834741+1072674767+1073741823+1073566210+1072532932
1221+1070457261+1066883675+1063967986+1063281665+1062698845+1061675765
1209+1061544345+1062492638+1063966106+1065247976+1066156200+1066229757
1198+1064546538+1060930207+1056684477+1052758292+1049038604+1047166826
1186+1047793838+1048019429+1047340992+1047775178+1047543221+1045042334
1175+1042311732+1039257752+1035746224+1034397811+1034993505+1034595050
1163+1032495222+1030453183+1029299695+1027534456+1024651098+1022504690
1151+1021709732+1021151287+1021067242+1021448411+1020480733+1018663852
1140+1017372651+1015187042+1011608755+1008516947+1007540807+1008094696
1128+1007733779+1004783517+1000622483+999236532+1000772274+1001439284
1117+1000422568+998345595+996023719+993823572+990937392+990225395+993951665
1103+998252364+999916488+1001918240+1008056434+1013858592+1012311567+1008244777
1090+1008405345+1010501629+1012840068+1015880017+1016877060+1015788522
1078+1016493648+1018959963+1020796590+1022699252+1024293725+1023843916
1067+1024003183+1026809657+1029891339+1033283598+1037754557+1040581645
1055+1040582946+1037966045+1033984312+1032530373+1035381618+1038623651
1043+1036665875+1030835292+1026654585+1026876488+1031908641+1037069972
1032+1036394211+1031939597+1029165743+1030147163+1032998046+1034195799
1020+1033555117+1032494571+1030846865+1029571793+1029664879+1031254723
1009+1034567204+1037053554+1035824410+1032284530+1029139344+1027603168
997+1028783779+1033221757+1038501489+1041354615+1041322646+1039459692
986+1037319432+1037224031+1039669588+1042435558+1043732834+1044598818
974+1046996927+1050054958+1050957251+1049942271+1050889407+1055226126
962+1059273171+1059558361+1056878389+1055224752+1057713271+1062721122
951+1066489270+1066743720+1062791642+1057748134+1055970816+1056270977
939+1056252027+1057044888+1057650997+1056324573+1055459456+1056314374
928+1056183099+1054713103+1054866511+1056511541+1057535561+1057575631
916+1056616561+1055299177+1055194953+1056155036+1056143101+1054909329
905+1053237176+1051265875+1050768041+1052282229+1053306539+1051724146
893+1048723905+1047974297+1049970913+1050774189+1047443626+1043470862
881+1043946853+1046229744+1044844806+1039600153+1033484308+1029583944
870+1028493454+1028771628+1031041644+1033755177+1031121928+1025449527
858+1024460007+1026129917+1025359406+1023741283+1021804771+1018279212
847+1016445912+1018748331+1022230783+1023054166+1021331384+1020755146
835+1021369501+1018931755+1014115140+1010711453+1008979702+1007748534
824+1005855491+1003804556+1004761167+1008036616+1009989040+1011151425
812+1012157653+1012517268+1013366617+1013762613+1014511353+1016683437
800+1014405103+1006530963+1000459528+997557508+994044823+991562235+992367101
787+992182014+987865547+982801135+979946057+977625266+975187159+975242635
773+975758985+972085949+966674941+963175564+960059020+957322994+956284652
760+955568749+954097740+949221599+942143212+940273821+941588528+939584534
746+936549359+935037992+934016358+932696226+931320184+929629371+926177080
733+921836745+917761564+913088303+908403830+904912988+902230340+899362822
719+896548175+896278174+898520778+899148875+897828526+896679956+895868797
706+898171868+903130535+905236946+905947425+908897687+910635658+908838667
692+906912932+907236094+909247899+912624029+917544435+922073836+923252856
679+923982429+926058606+923279690+919802445+924842048+931851289+928487817
665+922401265+920936260+921221811+922611957+926639039+929688897+928660609
652+927958303+928832750+926387337+920467646+918139406+919569332+915001308
638+906761477+906654648+912530075+913740774+904312521+888819414+884234538
625+896935347+910287615+908351393+895045704+883065861+881317546+890735819
611+903990516+912350339+912381874+898764813+877290247+867728187+871402959
##END=
