##TITLE=Sample description
##JCAMP-DX=4.24
##DATA TYPE=INFRARED SPECTRUM
##DATE=12/9/2023
##SAMPLING PROCEDURE=Instrument type and / or accessory
##ORIGIN=Default
##XUNITS=1/CM
##YUNITS=ABSORBANCE
##RESOLUTION=4
##FIRSTX=4397.6552
##LASTX=599.8556
##DELTAX=-1.9287962
##MAXY=1.9607871
##MINY=0.33544278
##XFACTOR=1
##YFACTOR=1.8261253e-009
##NPOINTS=1970
##FIRSTY=0.33667886
##XYDATA=(X++(Y..Y))
4398+184367892+184746205+184560582+184806752+185433472+186150294+186046107
4384+184662402+183691004+184032141+184756176+185750749+187306369+188217121
4371+187635575+186678262+186569913+187145078+187304671+186604577+185610413
4357+185237877+185968000+186887680+186796647+185773499+184932334+185076929
4344+186145871+187615698+188218166+187414880+186587000+186580113+186524169
4330+185997115+185813907+186231160+186814844+187153189+187193696+187680390
4317+187928976+186645279+185220104+184858927+185051372+185683070+186514148
4303+187082181+187327699+187619190+187958743+187455631+186549220+186149299
4290+185621119+185322953+186283694+187906928+189113888+189226447+188341578
4276+187515640+187221489+186903445+186435698+186703835+187780431+188100466
4263+187542976+187606265+188244066+188714750+188988191+189085312+188978008
4249+188846012+188815395+188327738+187340233+186853963+187006457+187104931
4236+187162067+187748020+188507372+188580943+188113049+187750403+187850428
4222+188009825+187959608+188350505+188953772+188966502+188713575+189101060
4209+190168224+190616207+189769233+188540698+188081927+188967661+190391562
4195+190763837+190227400+190162006+190493203+190461869+190266160+190396507
4182+191059213+191640547+191360920+190534493+189720257+189228536+189087955
4168+189068127+189227328+189432454+189469353+189446048+189247891+188834620
4155+188480477+188336012+188466409+188570465+188309443+188414120+189116075
4141+189365297+189238067+189434020+189642802+189423119+189088021+188986755
4128+188554064+188124865+188924543+190291847+190881488+190587990+190063890
4114+190018308+190360244+190264332+189560353+189127646+189438215+189949014
4101+189820396+189104667+188891528+189119094+189021810+189128755+189798168
4087+190267286+190188216+190111153+189995118+189231734+188523872+188940015
4074+189732790+189713663+189377521+189572561+189991331+190220578+190353782
4060+190457316+190428185+190098048+189578975+189429108+189773607+189954513
4047+189909927+190276082+190915548+191052701+190387629+189479341+188876040
4033+188652946+189108159+190097836+190851704+191022542+190860207+190926401
4020+190935556+190256368+189562475+189463527+189633744+189834121+190101899
4006+190497479+190801243+190585591+190038268+189835639+189841563+189571010
3993+189411580+189769951+190351579+190744580+190916641+191006303+190827061
3979+190353896+189885431+189320417+188842389+189096034+189811355+190426846
3966+190890399+191111371+191265856+191349153+191053354+190685648+190710847
3952+191279304+192077612+192461850+192283472+192124124+192443930+192502731
3939+191673138+190559577+190019451+190600572+191757055+192059072+191245505
3925+190601258+190965634+191418709+191740637+192657151+193071335+192012381
3912+191012962+190990865+190618965+189647567+189964305+191781437+193195139
3898+193328000+192066988+190015811+189282522+190549246+191494467+191998525
3885+192558888+192256724+192337230+192753504+191710837+190850856+190997507
3871+190921488+191501468+192159212+192227413+192855863+193580274+193139178
3858+191212735+189385289+191900605+195688374+195138538+192696368+190644196
3844+189676062+189565739+190021915+192026416+194387003+194287516+192801338
3831+192107886+192077579+191881544+190912415+190065538+191786137+193461252
3817+192979650+193061707+193413875+192387088+190528144+189848009+190607786
3804+190738036+191952013+194359471+194669192+193848232+193306098+192695078
3790+192107135+191786839+192043960+192815144+192940678+192508704+192789326
3777+193226881+192710289+191492720+191347244+192946945+194113088+194266937
3763+193680544+192672769+192851930+193441717+192401009+190547941+190373725
3750+192118559+192470646+192173476+194398639+196022673+194781930+193348677
3736+193992794+195689027+196877644+196761886+195595432+195048288+195599920
3723+196543345+198174592+199908802+200607705+200305932+200538117+203237947
3709+206737342+209047761+210776928+213871832+219582812+225141053+228311568
3696+229929122+230559547+230109621+229872329+230572733+230109426+227979946
3682+225442973+223034259+220587927+219757729+221187212+221474297+220986999
3669+221258743+221053111+220407379+220276150+220412471+219983402+219882985
3655+220916823+221324268+221612234+224438935+228065006+229457198+229170798
3642+228805345+228971548+229253639+229832068+230520232+230540208+231404138
3628+234138959+234885761+233619330+232829917+233422968+234886724+235947114
3615+236437431+236753190+236867920+237296303+238014219+238268663+238342707
3601+238713513+238980557+238937456+239273093+240063943+240450138+240731772
3588+242053641+243371986+243367808+243071665+243326290+243654990+243761805
3574+243971924+244358593+244766870+245404606+246447012+247143793+246907219
3561+246367795+246446033+247059076+247881783+248712111+248747166+248001816
3547+247886483+248780654+249367472+249170065+248969705+249108833+249183366
3534+249202754+249441336+249670354+249733823+249660350+249304493+248924058
3520+248872569+248834004+248497013+247942248+247390927+247454787+248283368
3507+248842001+248634232+248372035+248493504+248755163+248620947+247726547
3493+246929757+246905636+246903482+246622435+246506955+246695565+247075706
3480+247204389+246836570+246404401+246339170+246292853+245837934+245383798
3466+245158370+244962498+244948348+245081405+245089043+244989475+245057709
3453+245486190+245925605+245999551+245772638+245332749+244830535+244693741
3439+245161553+245731773+245917804+245906723+245635126+245057888+244848895
3426+245178232+245563954+245967254+246419921+246631721+246469240+246181959
3412+246235913+246561725+246729788+246959508+247605045+248287057+248510755
3399+248555537+248704065+248529980+248097158+248121523+248755456+249431675
3385+249586029+249461132+249733317+250363039+250903916+251353385+251649380
3372+251598233+251701098+252143777+252260596+252254851+252762533+253459217
3358+253846000+253872275+253867347+254224542+254792706+254967639+254722007
3345+254739927+255031842+255390931+256212984+257286676+257896651+257842893
3331+257573238+257777140+258469156+258822467+258335316+257753296+257951894
3318+258386495+258058986+257343159+257130640+257312331+257536257+257586212
3304+257037518+256254290+256267362+257060007+257896210+258660116+259563263
3291+260646894+261683163+262917361+264989280+267252208+268495334+268712145
3277+269115705+270457517+271557810+271522722+271236943+271454537+271965206
3264+272155546+271820578+271389959+271155816+271011858+270744537+270296978
3250+270226704+270982286+271724943+271537116+270906627+270653357+270674442
3237+270719616+270844676+270656947+270053696+269613448+269392655+269064640
3223+268811501+268959245+269247440+269285710+269027398+268531385+268008019
3210+267742526+267795207+267868190+267732734+267472218+267138703+266849187
3196+266717582+266471102+265743263+264920492+264735750+264880149+264620449
3183+263854569+262807854+262088780+262148837+262373270+262048926+261328351
3169+260719142+260427178+260111011+259712607+259693660+259842058+259880377
3156+259994878+259851735+259338700+259025977+259081188+258999604+258352403
3142+257611427+257430030+257538019+257260694+256478314+255756825+255337254
3129+255047999+255085910+255410335+255687807+255586460+254894640+254041105
3115+253148729+252100693+251420851+251048658+250395304+249482805+248386527
3102+247036473+245823491+245012666+244200012+243179475+242153830+241236451
3088+240674767+240631078+240737631+240688361+240547128+240154012+239479426
3075+239078591+238962719+238567254+238107667+238122942+238424225+238471684
3061+238131037+237863683+237954194+238060992+237944516+237659504+237411228
3047+237491425+237756804+237788056+237561535+237392150+237363704+237305850
3034+237193308+237043490+236900543+236802607+236516616+235845865+235039609
3020+234687032+234923623+235193425+235170903+234894884+234443897+233917105
3007+233405098+233204460+233258267+233189854+233214399+233359745+233306476
2993+233401720+233995098+234760913+235340794+235851626+236392078+236578224
2980+236336705+236179298+236226218+236200221+236062251+235741531+235231287
2966+234947662+235034615+235177709+235106733+234721435+234290914+234216299
2953+234366541+234304068+234045641+233936542+234059627+234252709+234376741
2939+234395394+234320600+234158151+233952225+233842343+233879096+233860246
2926+233669416+233313984+232679153+231924762+231462140+231319960+231368349
2912+231606947+231817066+231770293+231597057+231559292+231706286+231850930
2899+231928173+231995542+232025685+232126869+232375748+232493317+232267449
2885+231991184+232120634+232533823+232765714+232780108+232756346+232874275
2872+233151698+233213632+233012619+232998975+233352548+233808234+233985942
2858+233672925+233060877+232522220+232028182+231381013+230805848+230760723
2845+231156107+231527730+231890000+232233014+232368502+232406528+232402203
2831+232420710+232588659+232830276+232967853+232920019+232720377+232473635
2818+232463174+232686889+232791385+232788219+232893646+233156202+233510362
2804+233769442+233806064+233837480+234115768+234404174+234412106+234407732
2791+234723589+235155807+235351794+235266245+235036525+234768289+234573576
2777+234675608+234999495+235110944+234937185+234711300+234533527+234494554
2764+234593682+234744528+234969809+235156395+235194682+235217170+235293776
2750+235417417+235573892+235755893+235976474+236168201+236220343+235994556
2737+235654268+235642665+235981566+236348781+236542222+236560533+236568105
2723+236636682+236642035+236565772+236562736+236671215+236879801+237234010
2710+237520066+237584448+237706522+237888669+237867992+237838518+238011412
2696+238263180+238518604+238674900+238578955+238387130+238432940+238686749
2683+238863070+238985943+239103936+238962393+238623035+238456588+238510150
2669+238618107+238677234+238670853+238636467+238601199+238572052+238476205
2656+238309545+238220503+238247072+238353364+238467229+238396384+238157084
2642+237993460+237987405+238031289+238004557+237878812+237627370+237291652
2629+237123083+237111675+236984624+236783464+236676943+236679555+236719539
2615+236660591+236487256+236370862+236343869+236226218+235984356+235710735
2602+235463325+235346882+235326302+235284768+235285682+235316739+235231336
2588+235062702+235011196+235107288+235058948+234749619+234461147+234294929
2575+234218910+234305422+234377638+234244973+234075196+234019431+233869679
2561+233464209+233077067+232859717+232677423+232591759+232571980+232410444
2548+232225702+232150532+232001743+231826173+231843439+231854880+231641741
2534+231420948+231375529+231368544+231231783+230961965+230700078+230560396
2521+230488620+230460028+230539571+230596642+230472627+230313980+230295555
2507+230371541+230428253+230378444+230208749+230048324+230066227+230221658
2494+230294755+230239936+230266652+230485536+230692653+230790360+230948550
2480+231103916+231084267+231001802+231014434+231079550+231080448+231021712
2467+230995992+231085148+231247940+231339234+231377831+231446962+231500851
2453+231471997+231395423+231498876+231845382+232130687+232262830+232408078
2440+232575619+232791451+233072350+233207006+233152236+233149478+233246011
2426+233304975+233358309+233530533+233808185+234076143+234248107+234281171
2413+234264035+234418193+234739860+234996443+235135685+235235873+235306326
2399+235461072+235810924+236095316+236133456+236201722+236391197+236467917
2386+236295072+235721311+234491715+232579421+230242629+227683624+225012599
2372+222329888+219600927+216834316+214411909+212802563+211922084+211610372
2359+212222094+214102400+217300528+221689607+226017860+227978494+226626808
2345+223475877+221228257+220726108+221350510+222494818+223488982+224062205
2332+224619532+225807382+227509816+228977815+230068626+231281347+232851312
2318+234536415+236025336+237261492+238442749+239669440+240850370+241928549
2305+242846792+243589335+244253574+244823158+245230668+245600642+246079519
2291+246646948+247213088+247669411+247980306+248195893+248294825+248339738
2278+248482962+248729540+248974095+249083733+249098470+249217181+249444062
2264+249629587+249722709+249813040+249986130+250196364+250393558+250580356
2251+250765392+251007189+251222531+251258680+251291303+251493247+251726508
2237+251891014+251989195+252010035+252000488+252045564+252150469+252242774
2224+252296124+252365550+252505608+252715042+252952808+253134988+253183572
2210+253173519+253288020+253569360+253863870+254059318+254167275+254197810
2197+254216366+254304232+254408158+254508901+254654932+254789654+254893743
2183+255050463+255217547+255304141+255424680+255625498+255669284+255566142
2170+255651577+255927776+256172168+256385437+256528172+256542876+256602248
2156+256755003+256857379+256905539+257015095+257194615+257374510+257570823
2143+257755157+257871894+258021499+258276874+258485231+258489686+258428878
2129+258461730+258541372+258651678+258810325+259001399+259207096+259419419
2116+259554402+259474972+259324110+259362919+259539453+259686022+259840491
2102+260066180+260232905+260279645+260357491+260511177+260597477+260548876
2089+260455591+260454187+260563205+260669219+260749889+260846324+260917936
2075+260937797+260983836+261129834+261291533+261380477+261428979+261481938
2062+261540200+261626859+261797142+261917110+261867301+261842936+261964209
2048+262093953+262130526+262112232+262114467+262159233+262249515+262459717
2035+262715728+262774496+262719759+262774203+262883008+262972719+263039794
2021+263071096+263128885+263267441+263440906+263625175+263770194+263844483
2008+264012040+264277321+264481452+264658458+264833082+264966041+265095703
1994+265289291+265552581+265786479+265984065+266199619+266374798+266538258
1981+266746289+266894507+266950011+267075137+267406138+267807936+268068583
1967+268234051+268440058+268711655+269002608+269249627+269464251+269681927
1954+269865624+270010415+270180127+270409683+270729506+271141863+271522069
1940+271767391+271953667+272139160+272333237+272611052+272974107+273320531
1927+273606783+273979450+274501493+274855767+275014398+275326142+275740604
1913+276060769+276401922+276838710+277203363+277459359+277710393+278010321
1900+278417602+278865325+279322153+279786196+280140045+280484495+280897488
1886+281326997+281855308+282382769+282814302+283274656+283771012+284215209
1873+284524962+284836152+285532786+286424346+286960066+287306898+287771854
1859+288281560+288779189+289326691+289886075+290443794+291081546+291703369
1846+292342819+293351361+294343028+294863700+295321769+296042558+296790796
1832+297278861+297758538+298562493+299550732+300579642+301452042+302174822
1819+302933798+303621783+304182277+304824729+305710120+306697250+307528003
1805+308180998+308855502+309699441+310620508+311408142+311943372+312621337
1792+313978082+315302089+316058520+316843315+317814125+318709113+319661906
1778+320591655+321171079+321603428+322587098+324198794+325711656+326786849
1765+327415364+328166442+329364622+330473172+331461804+332364690+333124549
1751+334146244+335429027+336519691+337458449+338324746+339074943+340023688
1738+340998578+341803969+343415665+345398379+346635858+347642539+348592003
1724+349608215+350564533+351166675+352148256+354184859+356087377+357354786
1711+358479950+359491626+360557549+361825383+362772790+363936404+366022032
1697+367937214+369811204+371464712+372613606+373872855+374823918+375537297
1684+377797026+380815798+382813297+384074897+385407195+387222368+388801064
1670+390661020+393478141+395692273+397086195+399012180+401573503+403586735
1657+404621128+405673310+409300620+413084015+414903334+417604910+421388827
1643+424121510+426158602+427897267+429719099+433060614+436955834+439559457
1630+442018584+445197030+448568999+452308819+456677253+460245746+463335379
1616+468027112+473275355+477563625+481897036+486775860+491745391+496484027
1603+501314610+506687408+512506850+518506172+524741154+531130686+537540553
1589+543938049+550124169+556347956+563192619+570592684+577435259+583888374
1576+591880006+599693750+605774443+612337619+620155476+628091489+635849614
1562+642428263+649254191+660909788+672301067+681188796+689934867+698105627
1549+705994312+713681870+721380656+729286771+738171824+748855730+757759844
1535+765211023+774007034+783749668+792186444+799832223+806968818+814006906
1522+822863040+831415295+837554022+843824941+851461972+859087710+864780966
1508+867918253+873320949+883502852+891865274+897580399+902608388+907853955
1495+912817905+917060838+920748826+925148366+931604222+937524914+940412440
1481+941286669+942576926+945851171+951021796+955210221+956024522+957569437
1468+960966603+962433834+960218430+958055445+959331537+964348102+967652245
1454+963850669+959476654+958544196+957662265+953873092+949920133+946917257
1441+942942886+939113631+937569762+935035726+929642496+923670168+919200256
1427+918100094+919176886+919451192+919898817+924324599+931832376+935854467
1414+935219815+936777198+944050620+951013049+953700231+955163937+959025374
1400+964373823+969267139+972217726+971794320+971837536+974103010+975515732
1387+975158912+974166070+974072002+976117482+980567679+985934797+989403053
1373+990461306+990228844+988176901+986864905+990312272+995323027+995945145
1360+993381799+991699927+991416351+991686545+992894549+994087213+993169639
1346+990254956+985804564+980519568+976069110+972564362+969291946+966993897
1333+966688583+967731560+968463544+969277519+970611057+970881511+971222011
1319+973803766+976566412+976473454+975428779+977780684+982275010+985633596
1306+988435214+989567494+988925335+990076350+993098810+996347857+999660877
1292+1002548730+1004893910+1007327088+1011604620+1018342551+1025208561
1281+1030904951+1035550531+1039303995+1043009543+1046396461+1048676427
1269+1048820043+1045695942+1042710953+1044601394+1049808707+1053570527
1258+1054243106+1053197648+1053132891+1056031449+1061086660+1065523213
1246+1066771169+1065347741+1064998363+1066583032+1067148226+1067572219
1234+1069826269+1070596506+1068721929+1068232264+1070429782+1071189574
1223+1068839628+1068123965+1069877448+1070139678+1068862868+1068155495
1211+1068125336+1068137673+1068949560+1070852143+1071554620+1067868916
1200+1060466697+1055808649+1058017199+1064033264+1068189506+1066417417
1188+1059867623+1055128171+1055697934+1057372298+1055421735+1051266669
1177+1049559207+1051692294+1054130825+1053463011+1049405473+1043292336
1165+1039270310+1041205272+1045083094+1043983454+1038437861+1033739274
1153+1033031118+1035286930+1037868881+1039762586+1041234648+1041506343
1142+1039853586+1038311936+1038019156+1037777359+1036615376+1034239579
1130+1032235552+1030599376+1026260220+1021560524+1022804890+1028257916
1119+1029431127+1024689064+1020230576+1018570117+1019296421+1023251078
1107+1024454121+1017266020+1008905296+1006426487+1010187067+1016538606
1096+1019379979+1018677763+1019338592+1021417953+1023662341+1028364127
1084+1032589564+1029800415+1024482648+1024174658+1027259656+1032377731
1072+1039513347+1041888426+1038208728+1037510299+1042157706+1043573562
1061+1038396604+1035294633+1037946956+1041657270+1044000297+1044353983
1049+1042646457+1039604609+1035582779+1032339151+1032248281+1036408635
1038+1042143018+1044851155+1045779109+1045970771+1040173393+1029954476
1026+1023081415+1021163361+1021505689+1023026319+1025846019+1027163107
1015+1025724599+1026677424+1031318565+1034265169+1031420467+1025742355
1003+1024616733+1028079963+1030062840+1031103206+1034842439+1038611962
991+1037796812+1034984554+1035307167+1036960838+1036714798+1037182202
980+1040422044+1043243833+1044662300+1048935458+1054928219+1054767369
968+1048729304+1045612515+1047500214+1049468207+1049860670+1051805554
957+1057919213+1063981954+1064184453+1061005778+1057515979+1055970021
945+1059671000+1065878989+1068855426+1067381863+1063977842+1061941957
934+1064474295+1070450606+1073741823+1073362547+1072690751+1071007313
922+1067864412+1067227933+1069552811+1070025895+1067578094+1064420309
910+1062039159+1061981843+1064711523+1068388348+1070550876+1071410351
899+1071859607+1069182544+1060492091+1051625251+1051639417+1058983668
887+1065294407+1067792473+1067431018+1064670462+1064563337+1067580248
876+1063555938+1052638069+1045847457+1047027261+1049659412+1047110427
864+1043923723+1044789661+1046112102+1045860709+1047889412+1052312910
853+1053414639+1051474389+1049419051+1046681734+1042538679+1035261471
841+1027334401+1025311899+1028506894+1030624966+1031088649+1032130647
829+1032337388+1031067629+1029488704+1027487678+1024546101+1022981080
818+1025146088+1028407603+1029910803+1031509443+1034384240+1034900147
806+1030028568+1024116755+1022659185+1024013221+1025191654+1026730823
795+1027170614+1026534657+1028037792+1028013182+1022818925+1017690796
783+1015134696+1012930128+1009170201+1002794378+998504117+999551794+1000015673
770+996766954+992354750+987383163+983595296+983778145+986073974+987043903
756+988175073+990528675+988255759+978819287+968868475+964391383+965024272
743+964602106+958904019+951456300+947120343+947994637+952419309+956430237
729+958014515+956055530+949934755+940888918+931911691+926958447+926101387
716+926151457+927346797+932202578+938996128+942005335+940146686+937620288
702+935023910+933315992+934830029+935900358+935145657+934763966+933992945
689+933112906+931363731+930672482+935291819+941523439+945393428+945613095
675+939852731+930213760+919111672+910813681+916999801+931362687+940301465
662+945181529+946947547+945448916+942958618+937213007+926013063+918829662
648+926848516+944792331+951571323+942244260+933872177+933762050+929951466
635+911420001+898365586+916216834+949628136+959151756+949364078+950417043
621+955193770+939222453+915332748+902389505+894826958+892741330+899812776
608+911501797+922227939+921927325+910768769+904600209
##END=
