##TITLE=Sample description
##JCAMP-DX=4.24
##DATA TYPE=INFRARED SPECTRUM
##DATE=12/9/2023
##SAMPLING PROCEDURE=Instrument type and / or accessory
##ORIGIN=Default
##XUNITS=1/CM
##YUNITS=ABSORBANCE
##RESOLUTION=4
##FIRSTX=4397.6552
##LASTX=599.8556
##DELTAX=-1.9287962
##MAXY=1.81635
##MINY=0.18080129
##XFACTOR=1
##YFACTOR=1.6916077e-009
##NPOINTS=1970
##FIRSTY=0.20403658
##XYDATA=(X++(Y..Y))
4398+120616957+119897994+119136361+118505012+118033147+118589586+119884984
4384+120666798+120863729+120846966+120980755+121448647+121664799+121588594
4371+121713750+121512776+120794861+120878774+121959808+123009227+124024661
4357+124316297+122915968+121385981+121204914+121868848+122575117+122298140
4344+121080718+120864460+122154009+123484986+124006057+123679336+122822250
4330+121680532+120490743+120246632+121207733+122043634+122075169+121906779
4317+121813898+121773791+122052178+122647359+123284557+123585460+123365722
4303+122984791+122396914+121590611+121539819+122381982+123043679+123278550
4290+123713673+124427588+124869371+125295932+126226995+126498238+125294390
4276+123798520+123055562+123322400+124024036+124054030+123491725+123077778
4263+122820057+122521356+122654018+123478185+124078272+123927905+123829131
4249+124376056+125019386+124923457+124283748+123984872+123964462+123639229
4236+123545150+124233071+124752222+124439956+124000693+123937506+124267875
4222+124459591+123830796+123497318+124400774+125023826+124358051+123650601
4209+124081866+124984177+125235336+124973025+124817654+124777151+124465422
4195+124053660+124126166+124580731+124755631+124343543+123805585+123580756
4182+123526132+123602056+123900536+124351920+124707076+124530890+123951416
4168+123808069+124284145+124522143+124145695+123709286+123645748+123971253
4155+124072617+123593441+123641431+124480116+124831070+124755111+125207570
4141+125996916+126234482+125556058+124829502+125076520+125797782+125919283
4128+125348292+124708195+124652910+125079383+125324252+125542660+126196851
4114+126791353+126628891+125660663+124453354+123776145+123722843+123962770
4101+124330928+124655121+124865363+124879924+124952606+125402308+125467361
4087+124827062+124649026+125203342+125491057+125412482+125455883+125809824
4074+126392558+126385599+125807199+125592069+125378665+124791377+124265593
4060+123865820+123804422+124368807+125120063+125698365+126192244+126199775
4047+125467309+124748619+124758467+125447630+126109335+125973740+125325706
4033+125154426+125385051+125087778+124269169+123737316+123886547+124381007
4020+124620062+124447091+124204618+124255762+124642164+125132994+125788542
4006+126598245+126662347+125792744+125163041+125043725+124842786+124528053
3993+124481807+124934160+125572777+125889597+125635655+125064866+124571578
3979+124124352+124063288+124576749+124895824+125063448+125687680+126269639
3966+126084176+125452069+125315179+125513317+125315778+124985727+124613147
3952+123890784+123393118+123803330+123851814+122786433+122929190+124757666
3939+125780024+124934257+122873342+121763414+123253392+125026733+124658548
3925+123767293+123718703+122526554+120621679+121364910+124541927+126672821
3912+126613422+125257173+122291313+117882744+115278321+116219338+119252577
3898+122859635+123760633+120662613+118456730+120450989+121079106+119612913
3885+120062553+119731788+119393801+121980624+122027998+118797546+116089997
3871+115211030+117732676+119618497+118465028+119456220+122771000+122947512
3858+117447709+108247632+106881331+117913267+125302565+125601626+121958425
3844+117815374+114708589+112319358+113243321+117468921+120036840+121000716
3831+122124261+122374046+121523584+118734333+113714886+113060581+116455627
3817+118047813+121638108+125608744+124923854+120531978+117423775+117048728
3804+114930018+115126931+120004115+122393267+123792107+126089770+126727938
3790+126137039+125324006+124500270+124494826+123888503+122607137+124143458
3777+126981968+126960413+124084271+121837118+122899425+125084792+126726308
3763+126303121+122988324+121294659+122698186+121398375+115178745+110871954
3750+114703594+117110752+115897875+120277648+125867161+124585373+118903737
3736+115373545+118674556+125818668+130342307+130336485+129452717+130957933
3723+133798725+137197726+141031225+143450627+142425265+140072062+143455798
3709+152452645+161145419+168144987+175540460+185237974+193520308+197089699
3696+196671383+192263704+184577925+179239430+180153439+181495718+179226992
3682+174035587+167066534+158613749+152771157+154547907+155726587+154539027
3669+157851341+162323606+163786250+163506110+162372654+160128012+158884357
3655+159375963+156196488+149230112+148316773+156601344+164150373+167135754
3642+167489007+167254691+166690483+165631057+163669779+159622717+155986678
3628+159566728+165350530+166223295+162991865+159418845+159517733+161063603
3615+161130814+161257644+161705012+162497687+164950748+166988928+166566701
3601+165522902+165337140+164980310+164826772+165606181+165060453+162226533
3588+161556882+165256151+168319878+168672938+168416053+168824380+169249320
3574+169264577+168346798+165503187+162462364+163400738+166918263+169164244
3561+170290741+171003220+170863934+170084701+169865536+170377878+170089828
3547+169210438+169566862+170874980+171731573+171835394+171638833+171454957
3534+171061376+170415827+169900807+169596231+169404303+169699894+170462514
3520+170773837+170529320+170438800+170163611+169313590+168929699+169514203
3507+169686945+168908223+168833594+169931197+170591669+170418381+170249515
3493+170155119+169640927+168911588+168636081+168732873+168924889+169472889
3480+170039969+169882907+169207037+168832960+169097596+169348068+169028799
3466+168684812+168672145+168711415+168846860+169276892+169927973+170348791
3453+170112149+169360277+168725932+168926334+169691156+170154256+170403283
3439+170844026+171353619+171667709+171763144+171902888+172162732+172352863
3426+172343755+172177866+172311990+173135849+174108806+174549655+174717218
3412+175108367+175589684+175863922+176032436+176385266+176858462+176999809
3399+176953686+177346649+177926661+178320030+178812851+179368092+179809470
3385+180244399+180655686+181009186+181561555+182386119+183093313+183605197
3372+184061003+184304146+184388905+184727042+185613567+186805302+187774596
3358+188395709+188884179+189354291+189901023+190578883+190923152+190796286
3345+191128064+192249927+193398041+194144857+194801418+195637944+196290628
3331+196720907+197448766+198263182+198663563+198797141+199151258+199918934
3318+200549138+200516986+200203918+200105453+200125202+200254446+200633192
3304+200987256+201170921+201597394+202506664+203454622+204150946+205059388
3291+206610825+208427056+209472916+209479910+209589880+210482219+211600665
3277+212818333+214393060+215667440+216152298+216061726+215614164+215435890
3264+215630566+215487880+214933872+214400724+214340718+214799308+215215880
3250+215262162+215057197+214833310+214783822+215050995+215498891+215537615
3237+215012536+214484761+214080292+213624821+213547109+213967222+214173561
3223+213876226+213448996+213125833+212845781+212546667+212284304+212133390
3210+212062267+211838205+211303964+210580791+209709223+208887038+208680135
3196+208933003+208772329+208021161+207020860+206022621+205384242+204991049
3183+204301085+203514364+203046630+202556434+201895980+201454638+201221520
3169+201113717+201369086+201663126+201385999+200670577+199925188+199534426
3156+199785426+200177879+200102528+199704913+199282598+198742596+198018560
3142+197430902+196993524+196514850+196244382+196231697+196240189+196055414
3129+195530282+194949372+194477656+193899125+193274575+192685314+191868467
3115+190761403+189853261+189384523+188837369+187875211+186702415+185416936
3102+184013946+182652023+181474576+180581779+180116001+179949020+179661217
3088+179118819+178565992+178167460+177860753+177498444+177005728+176452196
3075+176047164+176024050+176234723+176248711+176020191+175878104+175902998
3061+175781277+175577880+175624127+175556316+175209546+175101320+175275401
3047+175487290+175611336+175409314+174921619+174402230+173993393+173723630
3034+173326015+172836594+172669419+172644595+172444951+172084192+171655024
3020+171323035+171044005+170797850+170643994+170475445+170254078+169867280
3007+169341584+168974060+168747038+168533440+168382227+168082215+167634953
2993+167648783+168140917+168601198+169032498+169471480+169850949+170267397
2980+170615559+170744433+170789076+170868021+170724595+170190020+169671459
2966+169496849+169447079+169238133+168759265+168190423+167957816+168070094
2953+168152210+168039403+167816592+167792737+168115354+168304163+168048829
2939+167823251+167866432+167770380+167502608+167441140+167451992+167195355
2926+166878253+166717174+166453137+165878005+165190789+164736093+164485674
2912+164174210+163970390+164088958+164213850+164137706+164035928+163970619
2899+163961053+164031524+164124334+164281907+164409530+164391701+164457415
2885+164760194+165180924+165450123+165377344+165300249+165565730+165905542
2872+166077156+166234201+166422429+166486786+166359375+166116955+165901208
2858+165764177+165645891+165472973+165090263+164406201+163763241+163669779
2845+163997081+164194206+164292883+164601687+164899392+164984873+165075323
2831+165216036+165348609+165555036+165728659+165754188+165743282+165784613
2818+165852248+165807605+165592351+165456483+165576988+165789652+166004518
2804+166316317+166692438+166973706+167122840+167298260+167521265+167695646
2791+167882658+167995447+167947439+167894515+167765588+167507436+167376729
2777+167420369+167525036+167649963+167686590+167614992+167471055+167291548
2764+167309535+167554299+167721844+167770768+167920907+168222064+168501535
2750+168617865+168636909+168647110+168657734+168737683+168907712+169079256
2737+169185209+169175044+169147859+169281983+169433249+169439768+169533019
2723+169793656+169908312+169790995+169720331+169833895+170008539+170160404
2710+170279183+170365845+170544718+170848695+171108239+171255171+171298141
2696+171298582+171427543+171638428+171708335+171717056+171874999+172008348
2683+171969025+172023358+172184842+172151651+171958437+171813407+171748063
2669+171806836+171993901+172070257+171969025+171908508+171860693+171692514
2656+171497874+171355099+171291605+171338785+171378795+171291728+171150540
2642+171045045+170967632+170925543+170863705+170655446+170396306+170226788
2629+170044550+169803240+169591245+169456012+169379885+169272840+169125238
2615+168971876+168742616+168500020+168385804+168271130+168052828+167879857
2602+167781145+167653046+167513831+167497411+167640643+167741857+167620172
2588+167378632+167262161+167251872+167119193+166905860+166759245+166665888
2575+166624469+166571316+166372201+166118294+165986671+165870148+165680739
2561+165544008+165374719+165059925+164798213+164736410+164771945+164713331
2548+164468973+164171515+163971976+163860949+163802722+163777317+163687555
2534+163464215+163256026+163219998+163251005+163178032+162943135+162647703
2521+162502215+162526545+162565357+162522916+162390889+162253364+162203841
2507+162205427+162163232+162125354+162181977+162266507+162323465+162388017
2494+162469111+162549994+162632111+162768913+162972803+163220033+163538914
2480+163841023+163955750+163887305+163742751+163628817+163651456+163728763
2467+163737149+163819195+164053581+164290470+164432504+164454967+164415485
2453+164463881+164702337+165038678+165237353+165285185+165413284+165678378
2440+165921539+166071747+166134484+166097258+166026981+166031773+166217534
2426+166583948+166957286+167197081+167260593+167233568+167293591+167473874
2413+167691418+167919444+168148933+168321358+168421779+168521795+168700281
2399+168954681+169223845+169462477+169602662+169670032+169782398+169830477
2386+169435522+168187463+165896081+162672438+158765596+154500356+150206541
2372+145943301+141616020+137328247+133324314+129991837+127823542+127292437
2359+128739092+132027982+136768796+143006166+149387139+152466123+150656692
2345+146185844+142917047+141972436+142532125+143825841+145068941+145935117
2332+146785676+148293782+150296215+151984947+153349142+155128641+157597892
2318+160249645+162531390+164345437+165958183+167638247+169368575+170934335
2305+172268738+173503267+174657353+175586707+176270029+176867605+177471788
2291+178034922+178549167+179063147+179549520+179888168+180032493+180083038
2278+180132597+180268183+180501865+180678413+180748267+180803481+180934187
2264+181170653+181391579+181507116+181613281+181839105+182173402+182448186
2251+182595065+182727604+182834103+182870290+182956035+183073000+183143981
2237+183273490+183484938+183677500+183815552+183897775+183937009+183977777
2224+184037325+184110844+184168489+184174637+184180927+184232829+184358972
2210+184605568+184868143+185028217+185126331+185202105+185277685+185358180
2197+185405907+185462795+185549157+185603049+185663373+185770788+185847302
2183+185927357+186144654+186388924+186504039+186615453+186769820+186855936
2170+186967333+187188242+187365089+187461158+187552295+187566477+187553563
2156+187703156+187960727+188105651+188112117+188123762+188188031+188294460
2143+188423651+188496765+188512762+188598384+188818817+189037788+189137100
2129+189218229+189386197+189540264+189572804+189595901+189681453+189726748
2116+189752065+189864237+190020559+190150050+190264847+190355473+190386392
2102+190355226+190348760+190440091+190526224+190546590+190622928+190799757
2089+190924297+190892603+190805254+190794807+190888832+191025951+191108279
2075+191074929+191032928+191111838+191182520+191138441+191134089+191273111
2062+191434930+191549022+191647629+191647118+191551683+191517645+191571767
2048+191613961+191596308+191564456+191554378+191618225+191763078+191904795
2035+192032383+192157134+192270205+192374890+192464247+192526138+192570147
2021+192589615+192507375+192489863+192818434+193244273+193424661+193512274
2008+193681880+193826451+193902049+194020617+194191791+194366541+194381710
1994+193973348+193613065+193984764+194682022+195207084+195573780+195769037
1981+195854572+195972029+196189643+196441207+196650541+196685830+196395260
1967+196202170+196622054+197340347+197915126+198314837+198568234+198791309
1954+199088098+199325709+199396109+199324246+198946328+198300990+198431995
1940+199728116+200896137+201320390+201456417+201664958+201984298+202300871
1927+202327262+201864885+201521532+201528861+201474352+202116818+203586791
1913+204464260+204414332+204400343+204988142+205753228+206303553+206720618
1900+207012016+207036927+207048784+207339829+207280599+206972041+207734397
1886+209135395+210002329+210493882+210954375+211426161+211869459+212122908
1873+211514479+209577513+208287541+210094964+213174300+215010281+215704332
1859+216166040+216739480+217323544+217823324+218137555+217939566+216806340
1846+215146977+215537721+218570141+220925370+221778439+222479379+222893537
1832+221762389+220304873+220958703+222566727+224258560+226600681+228509952
1819+229468340+230188906+230685357+230431802+230238042+231337513+232994039
1805+233828839+233434096+232719343+233301610+234749296+234798837+233352261
1792+234004946+237892021+241010944+242041283+242336045+242561288+243322093
1778+244624978+244476109+241952894+240132857+242573462+246935599+250237236
1765+251280277+250774137+251375308+252911928+254180758+255322388+254765650
1751+252394900+251685891+253972587+256731139+258228383+258652161+259567526
1738+260431254+258898140+258089221+262149636+266940502+270597876+272873614
1724+273722296+273430053+270566252+265940007+265958171+271949386+277760830
1711+280805794+280812894+279104836+278253845+277207563+274668986+274793385
1697+278581588+284817849+291372128+294193857+294233339+292325019+288060660
1684+288082154+295666014+301871831+303828811+303764541+304755681+305609895
1670+306302660+311053322+316659783+318669686+320270188+324388443+327476553
1657+325786236+319661918+319240924+327403122+330317168+331796601+339634597
1643+347931888+351759204+351445326+348464966+349718998+358469558+365379909
1630+367970670+369459123+371320649+373975433+379022813+383454558+384951291
1616+388748938+396559415+402827916+407000998+411311180+416535231+422003393
1603+427665385+433738188+439712015+445361041+451345297+457952200+464689439
1589+471430308+478228011+485227966+493039394+501330977+507344479+510673987
1576+517673096+528333456+535307195+540989342+550235983+560460480+568815592
1562+572738572+571835098+579245793+598579688+615276030+628580603+639902333
1549+650273268+658282438+663058962+666109018+671775097+687862006+705005275
1535+715217721+724436878+736354722+746308398+753399049+759625726+764694705
1522+771799662+783830471+795813712+806395778+816905542+825758390+830170016
1508+830487558+839369653+859545218+873858653+880361999+883530305+889105689
1495+897231488+902046842+903240057+906239937+914543817+923730416+929901914
1481+933950191+937320185+939326001+938824530+938120031+943111703+951712196
1468+956210994+956014380+955992956+956115012+951637708+943824729+944877425
1454+953084759+956570396+955401000+951777099+948047492+946660130+945978816
1441+943263568+937686564+928781848+921010447+918643679+918584483+919225346
1427+920610877+921701768+921574427+918997655+916782681+922113741+931935919
1414+938397123+941579875+945064596+948493221+949897285+951610576+955773087
1400+959588457+961728943+964624104+970381021+977820362+982004578+979540559
1387+974035858+972928336+975973176+979435205+982519509+983644438+983205615
1373+985804726+990380902+991971221+991831406+992686713+992847598+991363761
1360+990632765+991255799+990919230+988746609+986778777+986429945+986794774
1346+985995844+983384611+979410822+975312229+973027207+972073241+970851626
1333+969020014+965920981+962901581+963266762+966475024+969079210+969968060
1319+969626699+968926217+969725993+972446032+975884806+979682488+983235424
1306+985488241+987245154+990048913+993284377+995138329+996343735+998908738
1292+1002114817+1004460655+1007214732+1012241147+1019103613+1025419013
1281+1028616846+1030025631+1033022904+1036850748+1039585657+1041551445
1269+1042692300+1043056142+1044099113+1046424797+1048870070+1050941636
1258+1053270138+1056497710+1060453952+1062412764+1060890661+1059377860
1246+1060817160+1064349307+1068063622+1071435800+1073741823+1073367833
1234+1071697953+1071163219+1071871241+1073036761+1073498628+1072632187
1223+1071122557+1070424260+1070893315+1071148983+1070864563+1070737997
1211+1070325741+1069263109+1067608520+1064884323+1062248567+1061721444
1200+1063333679+1064412097+1061917353+1058917896+1059920205+1062162662
1188+1061482547+1059101050+1057454143+1055417601+1051604838+1047564031
1177+1044952235+1044600232+1046466727+1047693557+1045747359+1042610484
1165+1040697407+1039960562+1039195529+1037261382+1034533802+1031675921
1153+1029554956+1029184349+1029954808+1030646481+1030358818+1028907609
1142+1026779173+1024819586+1024018472+1024122839+1024889987+1025570666
1130+1022651053+1016446645+1012318806+1010795505+1008824924+1007088448
1119+1007413320+1008721473+1008765588+1007410219+1008551638+1013086799
1107+1013214774+1008097523+1005118995+1003507535+1001893960+1002414107
1096+1004397866+1007229672+1009140916+1009152473+1010497765+1012842828
1084+1013399479+1014983667+1019682744+1024235241+1026874380+1028975261
1072+1030994749+1032914520+1034634858+1033349185+1030901727+1034885946
1061+1043963527+1049488524+1049764488+1049967656+1051600328+1050910558
1049+1048723561+1050369623+1053240963+1050499994+1044721160+1040093753
1038+1036886054+1037372726+1039632238+1039353596+1038751632+1039668813
1026+1039924552+1038526548+1035371350+1030394970+1026368539+1025642828
1015+1026215476+1028198318+1033437837+1037299578+1035741675+1031754215
1003+1028993795+1029502102+1031973168+1033741003+1035345064+1038925978
991+1044347453+1046471871+1043706660+1041642494+1041415154+1042162711
980+1045783722+1051925058+1058345742+1061359364+1059911185+1057950258
968+1056551409+1055271867+1055864599+1059783773+1064543525+1064742113
957+1061583884+1059808579+1061425254+1065758304+1067380899+1065612923
945+1064586724+1064399130+1064777841+1065249715+1065565496+1065937442
934+1066092196+1067794282+1070705228+1071440733+1068833447+1064607865
922+1060549793+1058057093+1057857096+1058472026+1059511473+1061862597
910+1064316115+1064618647+1062313611+1059629371+1056468958+1053695219
899+1057211511+1065741532+1070650401+1069409900+1064684044+1059103869
887+1054849534+1053878444+1055708646+1055801457+1052991848+1050669759
876+1051309494+1055371090+1056009417+1047234720+1038042060+1037584351
864+1042083572+1043963527+1041524244+1037454120+1034475734+1034149594
853+1035671909+1036029902+1033889627+1030266360+1027218630+1026636751
841+1026984244+1026879101+1027006019+1026766841+1026894746+1026852745
829+1023886198+1019068096+1015982664+1018048873+1022782552+1021907090
818+1016122478+1012387304+1011904366+1014409892+1019066334+1020533610
806+1017542117+1016061803+1017232608+1016549955+1013892212+1012443962
795+1012196398+1011271607+1010128426+1009481925+1006903955+1002036171+997800371
781+993316442+987641060+985610226+987509490+986235938+981642004+978745153
768+977687665+976936374+975808838+974867486+972817696+967516515+964267591
754+965924505+965867635+962039016+957697650+953982348+951617835+950136746
741+949009492+947262234+943454897+939539528+935737618+932411528+932118016
727+930448487+924448939+918329449+912261473+905960449+902040993+900996824
714+903207077+908021021+911319769+911917010+912814106+913134045+911019139
700+909926134+912331873+916005526+917192258+915052547+913059909+912890003
687+913089930+912673376+911897560+912254566+913575475+912801280+909884133
673+908640673+906559875+900923675+904216997+914784757+917137150+915665363
660+916721512+916823272+913783787+911598763+912226167+913338129+915713776
646+921072250+924356058+922121211+918318314+915525901+914256154+917246944
633+922494919+920088052+910583699+905334878+905462924+906158825+905222759
619+902671356+904924525+914546565+922921832+926369414+931037484+936867197
606+934779071+927513511+927374824+932571144
##END=
