##TITLE=Sample description
##JCAMP-DX=4.24
##DATA TYPE=INFRARED SPECTRUM
##DATE=12/9/2023
##SAMPLING PROCEDURE=Instrument type and / or accessory
##ORIGIN=Default
##XUNITS=1/CM
##YUNITS=ABSORBANCE
##RESOLUTION=4
##FIRSTX=4397.6552
##LASTX=599.8556
##DELTAX=-1.9287962
##MAXY=1.6879079
##MINY=0.15829438
##XFACTOR=1
##YFACTOR=1.5719868e-009
##NPOINTS=1970
##FIRSTY=0.20688424
##XYDATA=(X++(Y..Y))
4398+131606856+132228254+132537361+132278665+131770978+131940959+132593744
4384+132487453+131526121+130837070+130847990+131010814+131331732+132185683
4371+133037218+133075220+132436332+132401629+133588660+134530001+134435209
4357+134022011+133260396+132622323+132867057+133082690+132590578+131930873
4344+131846101+132799281+134280414+135091368+134668985+133760272+132909571
4330+131612657+130321961+130342863+131446714+131961643+131480185+131280800
4317+131644137+131859846+131477939+130457068+129900317+130513507+131488934
4303+132608323+133695263+133485697+132338535+132045211+132573970+132791024
4290+132534916+132369058+132630011+133275544+134141364+134577947+134130178
4276+133338296+132693920+132314344+132347465+132339170+131862443+131834896
4263+132640552+133268131+133373037+133013710+132403335+132171815+132269821
4249+132567107+132889968+132403619+131265150+130445712+130098878+130307970
4236+131114525+132075621+133022658+133381199+132700015+132081147+132262133
4222+132621044+132989272+133571058+134102432+134282129+133759978+133081438
4209+133359454+133933599+133574025+132614844+132081592+132095404+132363096
4195+133072263+133767172+133780500+133240518+132580994+132425668+132739818
4182+132923506+133113582+133535947+133590499+133063845+132384614+131488934
4168+131081367+132137036+133484020+133697216+133058508+132415194+132294675
4155+132450086+132249858+132088398+132689445+133228755+132792039+132229212
4141+132409952+132743629+132272105+131116668+130201187+130003612+130361186
4128+130880115+131341078+131753868+132012811+131909583+131423187+131017136
4114+130946374+130737026+130092100+129261571+128841283+129087894+129404792
4101+129454113+129654616+130345640+131081680+131173799+130955313+131006131
4087+131076125+130903500+130585956+130400439+130445712+130288651+130148909
4074+130694398+131232285+131129882+130974679+130693156+129946575+129353785
4060+129404337+129831783+130257673+130540077+130426365+129957164+129650825
4047+129599751+129745408+130153127+130631267+130787863+130350939+129973013
4033+130355062+130724893+130297230+129739749+129980075+130570534+130232079
4020+129174922+128614929+128689066+128954787+128946170+128839103+129623202
4006+130800290+131139143+130988936+130595862+129525737+128359437+127840973
3993+127998744+128686497+129290653+129380327+129351946+129395711+129336855
3979+129122862+128786626+128412008+128132770+128047164+127996469+127991417
3966+128176081+128335928+128596303+128737761+128376604+128324563+128407212
3952+127383355+126065871+126179887+126501013+125832275+126554097+128586179
3939+128921012+127294924+124670885+122734087+123567630+125349197+124960285
3925+123779803+124143548+124063468+122763056+123261263+126169905+128299689
3912+128409961+127144802+122984120+115878017+111029676+111750531+116272711
3898+122029291+124636001+121892203+119167732+121287572+121584546+118673022
3885+118768790+119007676+119021411+122113058+121837839+117292672+113462084
3871+111971425+114705754+116905997+115665218+117529832+122251957+122789531
3858+116258436+104335899+100697018+113740668+124169350+126154274+122863402
3844+117556013+112235903+107979946+108324117+113207245+116948966+119366027
3831+121752309+122267484+121158807+117532278+110217926+108467641+113555189
3817+116739012+121934138+127691893+127311910+121576849+117415001+117381103
3804+114730172+113536505+118826272+122637940+125384791+128917211+130382353
3790+130243985+129389028+128171872+128055875+127409755+126000104+128245914
3777+132544148+133521927+130676691+128248454+129986113+133205635+135768466
3763+136095148+132879797+131567157+134212875+133238708+125743332+120687691
3750+126266868+130425123+130264726+137831413+147575954+148601546+143782439
3736+141788198+149387825+163261265+174277278+178515594+180368719+184930617
3723+191791503+199634490+207269978+212163856+212096307+210428842+218199541
3709+236107930+253524879+265687116+275494988+289081795+304545766+316003851
3696+321370058+317749444+305452072+294270798+292775835+294443244+292485545
3682+287136457+279892498+270713608+264773588+269070789+272814538+273006056
3669+278568786+285123532+286996771+285922059+283063040+278305378+274616968
3655+273646963+268299657+256817742+252245473+261444231+271778728+276778944
3642+278059829+278067735+277206797+275475271+273167884+268443172+262958399
3628+266950218+275873738+278829862+275887805+271771240+271948481+274115936
3615+274446684+274901041+275699890+276974462+280998112+284793447+284813941
3601+283300987+283227447+284020154+285581130+288203434+288427162+284698428
3588+283604852+288714021+293565054+295423904+295956369+296114918+296205103
3574+296502693+295761003+291925154+287099621+287893635+293345573+297085852
3561+298439708+299393959+299782037+298698452+297833742+298691646+299022906
3547+298337617+299300969+301872464+303517881+303156553+302050844+301686369
3534+301769994+301163212+299943089+299466418+299970749+300794244+301883574
3520+302774220+303001038+302905260+302443358+301426279+300736042+300823478
3507+300572962+299730300+299442663+299949819+300525869+300745900+300447609
3493+299716385+299068539+298892359+298931470+298754872+298383800+298286563
3480+298611926+299076425+299535503+299757733+299696194+299752936+299965782
3466+299649329+298566142+297779938+297822025+297936667+297914504+298148489
3453+298497531+298079973+296753000+296162940+296935361+297583870+297375480
3439+296941769+296951836+297238392+297272194+297169686+297000009+296629505
3426+296348011+296050668+295649073+295933543+296866921+297399727+297187488
3412+296525026+295945961+295732736+295620256+295881711+296611173+296686570
3399+296120719+296176590+296452188+295983954+295129044+294364718+294057156
3385+294415735+294911762+295298381+295795090+296199795+296351538+296472776
3372+296678759+296823431+296929484+297289522+297490557+297144339+297119333
3358+297590847+297793645+298032122+298740199+299530934+300006012+300088481
3345+300226100+300730772+301247786+301497297+301662083+302267936+303252596
3331+303759828+303595705+303458409+303913163+304711084+304957808+304333243
3318+303922756+304572100+305092602+304348884+303182431+302535154+302517959
3304+303182052+303974304+303894167+303171796+302838602+302911914+302791282
3291+302648544+302792382+302944087+303056510+303083639+302667067+301889489
3277+301254857+301108005+301517658+302265851+302490470+301625816+300808008
3264+301014105+301108138+300495574+300431400+300990426+301130452+300826910
3250+300372155+299819082+299412899+299176886+298703590+298198046+298347722
3237+299089090+299769165+299747514+299330240+299433507+299828884+300065769
3223+300410944+300712382+300609514+300255466+300200506+300457790+300051171
3210+299090094+298625633+298175921+297119940+296189747+295888612+295784473
3196+295562357+295424757+295096303+294144308+292972813+291863065+290531523
3183+289199963+288300899+287555645+286571706+285320168+284086338+283349122
3169+282984496+282484089+281778572+281036617+280528836+280440148+280402326
3156+279840798+278785575+277863231+277457635+277248771+276756971+276023566
3142+275356326+274836051+274345636+273561005+272392032+271185501+270027277
3129+269030863+268298026+267371720+266182499+265281843+264786631+264002721
3115+262488307+260887499+259722052+258484202+256524285+254172156+252325515
3102+251191387+250113092+248463902+246719883+245603860+244673951+243477943
3088+242391021+241512660+240514407+239491868+238518525+237391583+236483723
3075+236110982+235788822+235085921+234284569+233802818+233374207+232642015
3061+231829289+231283666+231076831+230938340+230668695+230349341+230018896
3047+229655274+229150015+228317097+227362884+226754566+226316628+225448088
3034+224122783+222851870+222042215+221594474+221109007+220329059+219301307
3020+218274312+217385449+216673107+216082060+215424432+214642171+213751355
3007+212864956+212179572+211578478+210746717+209618788+208459900+207760583
2993+207847734+208358719+208651304+208493684+208146594+208001942+207956119
2980+207886618+208074457+208323248+208146822+207653354+207188248+206693491
2966+206073097+205572710+205185238+204552692+203722353+203139458+202878496
2953+202631146+202304721+201981898+201752824+201643415+201338735+200721545
2939+200299891+200179335+199838141+199193044+198651991+198289526+197775355
2926+197136837+196551270+195731092+194542118+193256588+192159807+191379101
2912+190834806+190529292+190517614+190568460+190350003+189861805+189347351
2899+188872424+188372530+187978006+187882001+187939160+187904599+187823666
2885+187759738+187731149+187765464+187746240+187673136+187613929+187465694
2872+187348019+187426677+187407150+187089389+186670769+186225152+185756766
2858+185425715+185199826+184757224+183981162+183175280+182557123+182020980
2845+181558092+181255289+180997682+180788154+180866642+181053818+180947632
2831+180727203+180704661+180734673+180551648+180209241+179981703+179887821
2818+179785976+179616924+179269000+178811193+178491157+178363245+178413503
2804+178573152+178661194+178683490+178709576+178678238+178572261+178557435
2791+178774243+178880998+178563274+178205075+178172239+178226251+178040876
2777+177750624+177659699+177716176+177631186+177246596+176733715+176410930
2764+176342585+176274524+176061015+175922827+175921709+175752979+175349374
2750+175102707+175296916+175606526+175634356+175518293+175416145+175170748
2737+174828549+174700979+174781855+174738232+174500911+174346627+174357528
2723+174273391+174013415+173809404+173718536+173588823+173487111+173509577
2710+173488344+173348753+173081743+172663844+172392947+172460875+172582740
2696+172600636+172670460+172724700+172579536+172417840+172415167+172396417
2683+172235536+172040663+171863610+171605322+171321799+171158643+171037120
2669+170834815+170517224+170140332+169903068+169788843+169508544+169005047
2656+168485436+168134952+167978887+167921955+167907546+167802100+167494803
2642+167136699+166829175+166535035+166261580+166013111+165714991+165240595
2629+164698556+164364130+164207326+163972469+163591444+163234950+163014635
2615+162836028+162532865+162137563+161863539+161676742+161429013+161135916
2602+160864205+160744521+160720652+160609954+160489360+160435518+160361220
2588+160215335+160068692+159996802+159968706+159935017+159819958+159670490
2575+159681866+159734968+159594259+159394836+159229386+158935370+158589588
2561+158426612+158308890+157964265+157549901+157414491+157547740+157639565
2548+157498059+157201124+156931687+156734871+156485179+156211572+156102173
2534+156115728+156089708+155980242+155792033+155534341+155220134+154943617
2521+154814273+154806140+154862617+154871442+154677697+154389283+154245294
2507+154225435+154237720+154327640+154462747+154558733+154648586+154762280
2494+154817013+154811164+154929455+155195592+155446289+155690842+155993276
2480+156241630+156316488+156274561+156210757+156190206+156267281+156341162
2467+156386899+156536339+156725922+156874442+157023976+157080226+156932938
2453+156699532+156619746+156796125+157097943+157363815+157562129+157688544
2440+157774406+157927012+158114320+158189784+158130757+158015320+157922698
2426+157865217+157823613+157884118+158105249+158332920+158405142+158409370
2413+158494407+158617125+158721121+158850370+158968888+159005895+159020796
2399+159164719+159505666+159828300+159885289+159808299+159784411+159651930
2386+159027678+157540953+155029157+151566522+147335069+142602896+137681917
2372+132757316+127994166+123564948+119416636+115796780+113420698+112713209
2359+113785040+116877815+122117855+129377928+136759554+140194831+137755599
2345+132232558+128516744+127469644+127557403+128388709+129499452+130220496
2332+130766791+132083403+134259939+136254711+137623127+139222626+141747267
2318+144729277+147233623+148916160+150306330+151910863+153626265+155244429
2305+156710215+157961317+158990643+159843448+160544434+161202839+161897266
2291+162538666+163074847+163515686+163828310+163978252+163949094+163858491
2278+163855553+163869468+163823399+163770961+163754277+163790886+163875573
2264+164014348+164183590+164327029+164474639+164619746+164682972+164688319
2251+164702917+164727506+164743677+164771337+164866660+165016602+165118788
2237+165163757+165216802+165237979+165214452+165238453+165317358+165386025
2224+165399713+165364450+165367749+165433876+165516572+165605089+165604975
2210+165500875+165491490+165601373+165675235+165675785+165654912+165696051
2197+165848704+166050137+166156361+166118292+166095049+166135298+166111809
2183+166150180+166434897+166745056+166802330+166673545+166548742+166506181
2170+166539112+166623211+166738857+166871888+166966623+166960007+166921692
2156+166972462+167098365+167167127+167110043+167044314+167115712+167260933
2143+167293333+167232097+167271701+167430099+167573310+167667344+167725129
2129+167727726+167722494+167719707+167681183+167701241+167781909+167773075
2116+167718531+167776430+167961445+168156167+168246958+168280913+168383497
2102+168564814+168742170+168845569+168949821+169206726+169615355+170087703
2089+170582441+171159439+171921130+172803339+173649679+174413323+175123807
2075+175776715+176343798+176839825+177235430+177453148+177637707+178066413
2062+178681745+179317666+180054294+180905241+181778502+182697244+183699100
2048+184727668+185719058+186622861+187479647+188493086+189591933+190449496
2035+191014854+191368864+191514009+191503203+191395045+191118860+190615856
2021+189925107+189095849+188446145+188365477+188558606+188450145+188087984
2008+187815210+187651410+187495819+187378751+187357460+187413634+187253758
1994+186539179+185927468+186335262+187272546+188094391+188841522+189529181
1981+190198184+190880970+191583605+192332841+193129623+193765051+194006809
1967+194565986+196141636+197941620+199284063+200438325+201484449+202405504
1954+203316321+204118299+204729896+205075621+204785577+203954309+204109236
1940+205886130+207547699+208176738+208341297+208571660+209048710+209603792
1927+209671360+208923679+208391840+208567660+208717393+209798248+212021535
1913+213248105+212957188+212642214+213232293+214094009+214492836+214521861
1900+214261525+213500289+212661855+212279540+211470662+210324666+210676609
1886+211855915+212242799+212266705+212429463+212577395+212553185+212209811
1873+210682789+207196647+204453009+206185748+210018355+212229167+212798658
1859+212989759+213362120+213776323+214006383+213933564+213181674+211102661
1846+208080979+207808832+211572411+214610549+215349129+215654700+215445115
1832+212889260+209631869+209411952+210827878+212431889+214947648+216839959
1819+217299245+217381183+217189362+215919056+214669642+215326133+216873250
1805+217203316+215688162+213788418+213908178+215318379+214681984+211670597
1792+211473676+216276327+220235955+220913831+220445369+220043527+220271938
1778+221151626+220139210+215873234+212311769+214475318+219706220+223990890
1765+225235337+223865992+223702608+224955397+225824563+226549759+224990584
1751+220878018+219325175+222240007+225719837+227232526+227185282+227844654
1738+228477712+225457301+223062194+228115209+234837889+239892041+242773184
1724+243452671+242497965+237862888+230477348+229541486+237457842+245594513
1711+249941992+249828128+247092358+245666460+244070127+239959836+239522637
1697+244856672+253909545+263730403+268318596+268711566+266326336+260403226
1684+260126984+271129423+280928611+284618556+285146377+287363047+289678624
1670+291710792+299613554+309028968+313220401+316584584+323665008+329555415
1657+328509822+320539757+320316314+333502095+339687873+342927936+354691231
1643+367607727+374113182+374127059+369615799+370304026+381837773+391279919
1630+394028277+394510048+395380882+397101089+401795677+405867482+405537606
1616+407260544+414664398+420207904+421849321+422480407+423627503+424491853
1603+424971614+426022553+427515260+428675930+430081011+432681532+435928799
1589+439213301+442961410+447711736+453638088+459701812+462843519+462824826
1576+467459353+477681181+483849214+487989345+497195458+508473799+517029223
1562+519338543+514650742+520682427+544505110+565274356+580854391+594058713
1549+607023553+617347111+622483581+624298618+629397475+649383512+672223734
1535+685645357+697149833+712172226+724359507+732698540+741206378+748848577
1522+757369307+770821340+785660291+801083464+816492077+827892964+832921712
1508+833892609+846623768+873121592+891256344+898638282+902217776+910498266
1495+922632084+929333644+929970342+932542691+942130171+952791378+959363566
1481+963481023+966395532+965739724+961833843+959990861+965783783+974370261
1468+976530758+972975228+971815202+973472923+970220272+960661911+958572774
1454+966759002+972244496+972841912+970454673+967299316+964578561+961826639
1441+957743155+949316989+937706650+931488605+929496382+925589515+922073646
1427+921273375+920980430+920390066+920166054+921455299+927178455+936503172
1414+944141503+948248040+951517072+954590907+955838217+957023419+960200692
1400+963446518+964237007+963149858+965750872+972814916+976882171+976283010
1387+975682333+978258246+982539730+985773196+987705889+989021828+989835218
1373+990862383+991734393+991502873+991628681+991958481+990433696+989496470
1360+991031720+992499022+992714617+992376703+991964548+991533282+991358259
1346+990376821+986964010+981049450+974291622+970050329+968977133+968140386
1333+967173129+968297437+971151204+973344158+975068005+977543363+978883720
1319+977843740+977789215+979844531+982098910+985326536+989874576+994079469
1306+996523811+997678755+1000235558+1004047102+1006112277+1007153774+1009731128
1292+1012683175+1014570141+1016876314+1020202372+1024004058+1029114176
1281+1036124530+1043528611+1049275124+1053085682+1054793226+1053500643
1269+1052054346+1054235470+1057398562+1057784934+1057414942+1058805880
1258+1061233994+1063115954+1063988267+1064468294+1065205016+1066454601
1246+1067489501+1068226375+1070298223+1072948604+1073475192+1072889758
1234+1073292661+1073741823+1073585454+1072810587+1070984289+1069215699
1223+1068055295+1066945395+1066501694+1066618477+1066261225+1065210173
1211+1062872984+1059625262+1057614460+1056776955+1055375551+1053810271
1200+1053395386+1053416392+1052334020+1051052358+1050909791+1050356813
1188+1048259258+1046011476+1044014022+1041818110+1040268756+1039865928
1177+1039881019+1038891316+1036232213+1033403623+1031984171+1031909172
1165+1031756822+1030194728+1027874449+1026095926+1025052002+1024641818
1153+1023460332+1020124946+1017429671+1017119285+1016270783+1014179522
1142+1012496322+1011063978+1010035979+1010212292+1011101743+1012121856
1130+1012981656+1012992804+1012302415+1012174787+1013318129+1014474136
1119+1014325199+1013525079+1012906581+1012414421+1011406897+1010423640
1107+1010984808+1011496760+1010749572+1012720106+1017870112+1020521480
1096+1019615876+1018467832+1019128797+1022643984+1027198849+1030820127
1084+1035521350+1040478360+1040853432+1039575486+1041493012+1043805176
1072+1046900321+1054397678+1063428616+1068573162+1069004731+1067738311
1061+1065884105+1063315169+1061130329+1059081080+1056908374+1056111970
1049+1057151648+1058744000+1059439924+1059273394+1060149499+1061047671
1038+1058674537+1055472011+1054951869+1056143972+1056851802+1052391275
1026+1043668372+1040121942+1041895233+1042978666+1044561388+1046419006
1015+1045251928+1042735241+1041037101+1039094777+1037089284+1035674685
1003+1034244238+1035432245+1040803534+1046072522+1048641307+1049222192
991+1048050109+1046739023+1047040841+1048356628+1050213867+1052661394
980+1055243070+1058070523+1059500212+1057950554+1056640909+1058686594
968+1062826649+1065859232+1066631369+1066931442+1066968070+1066183193
957+1066749517+1068331632+1066307939+1061226714+1059945734+1063389031
945+1066009231+1066269491+1064841319+1061548324+1059737950+1061661467
934+1063875882+1064607524+1065939312+1067162279+1067047392+1066897772
922+1067220216+1068060755+1068144399+1065592298+1063406397+1064598803
910+1065118263+1063220984+1064324741+1067088569+1065025063+1060877425
899+1059091621+1058181240+1057535896+1057053595+1055165341+1052535434
887+1050076229+1046741298+1042115757+1038031970+1036972273+1038402114
876+1039277612+1037850046+1035122541+1032321251+1029130480+1027127262
864+1027151073+1026505730+1024754582+1022428617+1019540801+1019188478
853+1022188604+1024833070+1025875554+1026157503+1025001800+1022927222
841+1021804128+1021626905+1021289597+1020742913+1019025284+1014797869
829+1010598967+1009251329+1009414447+1009961662+1011578205+1012407293
818+1009863078+1006959716+1008639505+1013056883+1015161566+1014547467
806+1011891094+1007575560+1004635874+1004795883+1006826780+1007965193
795+1005311854+1000072592+995272178+991634596+989802155+989074987+986814162
781+983233607+979909521+976924713+975504200+975158550+971986434+966511254
768+962614321+959983277+957188660+955014513+952725175+949164261+946750101
754+945907666+943407132+940248210+938796984+938109629+937294647+936223346
741+933608000+927598648+921073705+918032705+915390893+909452673+902964054
727+900188623+899589386+895731280+888962759+883948571+881659081+880517332
714+880717153+882854976+884896718+884981499+884545153+885810512+888172953
700+888947365+886961058+883577897+881194677+879957756+879135038+882038173
687+889206261+893812768+893612567+893746034+896780740+899622677+899002207
673+897225352+895879307+893326220+894780479+901776122+906093021+906503962
660+905397324+905285773+908328138+911754145+911429501+911438829+914253390
646+914219492+911715394+911280033+910457315+907008786+906174921+910592678
633+911270478+903287939+895401783+893504732+895077747+895621625+894428081
619+891576892+886310027+881778974+879711677+882287514+888960181+890028524
606+886672435+889383559+892482951+888205334
##END=
