##TITLE=Sample description
##JCAMP-DX=4.24
##DATA TYPE=INFRARED SPECTRUM
##DATE=12/9/2023
##SAMPLING PROCEDURE=Instrument type and / or accessory
##ORIGIN=Default
##XUNITS=1/CM
##YUNITS=ABSORBANCE
##RESOLUTION=4
##FIRSTX=4397.6552
##LASTX=599.8556
##DELTAX=-1.9287962
##MAXY=1.9488029
##MINY=0.33361784
##XFACTOR=1
##YFACTOR=1.8149642e-009
##NPOINTS=1970
##FIRSTY=0.34002993
##XYDATA=(X++(Y..Y))
4398+187348009+185641394+184951362+184491790+183815108+184435599+185850999
4384+186605760+186780391+186604085+186604200+187344068+188160799+188374329
4371+187831522+186945678+186180687+185491016+185493479+186699685+187968238
4357+187676186+186304825+185826681+186291656+186735694+187222163+187655168
4344+188060504+188737596+188721471+187329782+186431294+187353017+188286562
4330+188151390+188015167+187823722+187085825+186600916+186898157+187585233
4317+187960701+187746875+187350242+186826006+186680571+187955134+189346134
4303+188870880+187525923+187225841+187956743+188603770+188933655+189426790
4290+189373950+188006530+187109963+188299387+189748793+189752783+189275937
4276+188741324+187768944+187200209+187394166+187546678+187655972+187901505
4263+187955709+188199666+188746989+188643672+187545857+186182313+185346468
4249+185667437+187021490+187852031+187547072+187352147+187624724+187961046
4236+188242359+188297219+188325643+188508401+188609534+188587613+188906217
4222+189531421+189811634+189962619+190355820+190578677+190349892+190146231
4209+190337397+190132816+189364984+188950847+189109106+189760911+190325213
4195+190051305+189553982+189413277+189416117+189390058+189156594+189125658
4182+189683309+190141289+190177758+190242109+190469728+190593225+190132980
4168+189217480+189087004+190153144+191073126+190980614+190302076+189771519
4155+189712028+189372768+188511636+188283935+189130256+190163144+190400566
4141+190066001+190058563+189961716+189153671+188601472+188910880+189368465
4128+189919318+190763997+191172124+191135294+191328315+191133767+189862143
4114+188693146+189017202+190331042+191091829+190779925+190120681+189511881
4101+189014180+189088761+189520074+189592078+189490189+189686035+190091929
4087+190363538+190236247+189956084+190185197+190740680+190656247+190162471
4074+190182701+190013932+189009862+188645790+189381782+189659697+189231257
4060+189113326+189536938+190007102+190191699+190345705+190687659+190822076
4047+190659350+190898299+191526935+191711171+191255490+190677708+190779843
4033+191511697+191507592+190338464+189293671+189185461+189348991+189156233
4020+189091487+189612767+190149400+190332602+190731813+191398397+191730646
4006+191502649+190677954+189775312+189705887+190303374+190820138+190862864
3993+190397577+190202914+190875425+191818577+192413880+192563830+192376687
3979+192307016+192583108+192512796+191729299+191059070+190914818+190982732
3966+191002272+190786838+190753701+191098266+191197527+191062354+191125983
3952+191299513+191284719+191132207+190996509+190887100+191202699+191669414
3939+191404374+190792191+190649810+191127100+191974274+192347935+191760055
3925+191418955+192160021+192492369+191824160+191396968+191313339+190677527
3912+189926527+189735066+189079665+187700028+187693345+189297070+190825737
3898+191985949+192066770+190550204+189264919+189636478+189639532+189411257
3885+190423587+190864440+191005688+191651598+190830598+189287530+188385002
3871+188074838+189314590+190403817+190483439+191485605+192658920+192118872
3858+189276774+185286452+186206434+191822370+193678672+192522418+190677757
3844+189092292+188041768+187711801+189244755+191653437+192181909+191209087
3831+190470254+190421649+190708036+190088284+188345873+188529518+190087955
3817+190743767+191975900+192455538+190928085+188840059+188263525+188847268
3804+188326037+188939550+191433470+192306753+192461219+192905012+192711170
3790+192212944+191689431+191150515+191217248+191320318+191188036+192004537
3777+193070972+192842713+191349743+190426116+191510252+192894043+193236768
3763+192170629+190062619+189234984+190022586+189820484+188038878+187538173
3750+189817627+190412339+189653490+191968133+194150429+192988033+190762207
3736+190006248+191194784+193331858+194536635+193892416+192989182+193598032
3723+195231133+196883528+197977894+198303148+197707944+197380654+200112390
3709+204319346+206908882+208148371+210216874+214972203+220242901+223669021
3696+225145538+224594126+222601059+221575313+222948809+223939398+222569630
3682+219293658+215421497+211886280+210350141+211606067+211583227+210317563
3669+210853260+211569319+211244426+210884164+210565855+209842934+209836612
3655+210775855+210121915+208487386+209745660+213058101+214700742+214682040
3642+214405045+214626785+214804946+214669921+214319708+213142075+212540483
3628+215314272+217687125+217072332+215131990+214036901+215016095+216037013
3615+215690823+215283270+215660675+216481528+217060443+216805271+216167768
3601+216011003+216310116+216810132+217383645+217337109+216524992+215987259
3588+217048850+218658930+218928733+218540638+218465219+218420474+218264678
3574+218381903+218515301+218327453+218409949+219004151+219314988+219464709
3561+219971884+220301407+219856252+219148043+218965137+219363527+219847713
3547+220356547+220993656+221344640+221221209+221029436+221166201+221398712
3534+221331159+221108894+220873919+220690372+220693640+220705528+220668320
3520+220756907+220922950+221028106+220932506+220777268+221053787+221522144
3507+221328532+220731357+220719108+221161455+221255757+221039058+220997531
3493+220958237+220662934+220537778+220594083+220537367+220812277+221276365
3480+221004197+220372359+220462162+221063836+221470437+221697842+221750896
3466+221554279+221451175+221744032+222118728+222206872+222270895+222338925
3453+222255361+222403719+223002191+223786968+224108610+223830926+223907444
3439+224671499+225364618+225521498+225348247+225307393+225612943+225949116
3426+225834322+225423238+225570266+226515782+227407176+227788309+228030410
3412+228442446+228999801+229410178+229640933+230080440+230722574+231192458
3399+231410454+231531768+231734444+232261323+232906905+233168941+233311174
3385+233815886+234539579+235143913+235625374+236141268+236415488+236416933
3372+236640200+237087556+237596438+238180296+238778489+239395204+240021016
3358+240658536+241209306+241733739+242414970+242812687+242844049+243103080
3345+243518433+243948744+244635557+245365359+245962813+246486704+246755045
3331+246933961+247460939+247993171+247871891+247622351+248090823+248771413
3318+248988342+248907998+248571561+247955109+247600807+247772991+247908410
3304+247641973+247260447+247301268+247869067+248739738+250351674+252737499
3291+254783490+255699843+255895113+256654653+258459806+260414023+261863512
3277+262793674+263380816+263946448+264652998+265371339+265761092+265811174
3264+265988612+266387593+266885672+267232190+267020499+266724654+266980712
3250+267541253+267683388+266996837+266242257+266126116+266301748+266510024
3237+266797790+267183405+267473043+267215064+266421025+265684951+265207234
3223+264856397+264987481+265576889+265726773+265022752+264104576+263939387
3210+264589238+265061192+264664411+263568731+262601376+262401820+262411113
3196+261992280+261492527+261358242+261471230+261275220+260499819+259598359
3183+258965979+258436637+257818510+257178921+256606623+256196969+255882174
3169+255474227+255124885+254928120+254790074+254844491+255025755+255034294
3156+254829893+254648876+254700058+254822439+254703785+254288646+253855149
3142+253737875+253823048+253699994+253127466+252279602+251704939+251338815
3129+250514695+249614860+249412693+249472562+249367537+249141363+248352399
3115+247198164+246499118+245913913+244902306+243773835+242605708+241407270
3102+240385794+239446370+238666765+238099935+237340462+236264979+235301581
3088+234837970+234657576+234314276+233956575+233821387+233595870+233129664
3075+232699089+232534295+232643359+232716577+232651142+232653950+232571126
3061+232270075+231891160+231651308+231821094+232265905+232714689+233070320
3047+233063325+232655526+232146118+231730914+231511407+231407170+231258993
3034+230995595+230469076+229725498+229214579+229206156+229401984+229460392
3020+229299210+228972248+228832084+229021148+229165400+229003578+228433694
3007+227705435+227490739+227729885+227678030+227324993+227050067+226824829
2993+226885781+227400690+227820657+227938883+228172512+228624252+229114858
2980+229530391+229699242+229657386+229618421+229447929+229060376+228829489
2966+228934432+229025236+228860310+228592790+228339047+228129179+227978883
2953+227784565+227574467+227493531+227537882+227651002+227681297+227489918
2939+227387308+227668375+227972939+227934056+227633744+227128474+226676619
2926+226753171+227027998+226755141+225903763+224968888+224424209+224295588
2912+224308248+224488035+224843633+225044388+225002467+224967180+224992763
2899+224985374+224905407+224780596+224794996+225030398+225321679+225539412
2885+225712893+226002285+226491217+226882678+226865929+226680642+226669640
2872+226760461+226813713+226856011+226910888+226995929+227097686+227095765
2858+226979870+226828195+226581053+226174797+225618263+225039019+224720300
2845+224826343+225205012+225589461+225919806+226219099+226428491+226580527
2831+226780511+227086848+227339114+227285452+227089903+227047407+227120592
2818+227198244+227215075+227127374+227062776+227202283+227405764+227455501
2804+227521413+227742168+228087405+228548012+228892511+229024694+229193906
2791+229457075+229629439+229653265+229621557+229609176+229645695+229694283
2777+229759751+229759389+229507928+229266927+229282756+229381837+229599817
2764+229944463+230170473+230170588+229990489+229865826+230006220+230257090
2750+230422574+230515973+230534873+230500521+230589257+230814150+230930143
2737+230875233+230807615+230808665+230923838+231114445+231273542+231465315
2723+231721275+231960667+232192309+232284492+232132571+232117908+232495428
2710+232946199+233217906+233254655+233048087+232888055+233040041+233355033
2696+233628152+233882946+234131813+234292223+234450203+234725096+234919792
2683+234871516+234800055+234871484+234996672+235159086+235350251+235361384
2669+235142977+234987001+235019923+235059250+234969726+234802420+234723175
2656+234819365+235009414+235144094+235142846+235078692+235014997+234923454
2642+234824604+234734604+234584489+234393816+234349169+234484308+234597264
2629+234630975+234624325+234486180+234203061+233978841+233972355+233993225
2615+233860631+233706494+233588234+233493932+233432767+233288103+233029450
2602+232793851+232680649+232644590+232623507+232654771+232743096+232776544
2588+232657825+232441602+232231258+232131701+232240387+232417070+232392210
2575+232201586+232080618+231985035+231770339+231576973+231530536+231475315
2561+231254592+230954445+230684462+230437549+230290899+230337894+230398239
2548+230151097+229627731+229201443+229114103+229270589+229415186+229405383
2534+229196008+228838127+228547651+228444827+228381050+228196650+227979901
2521+227887816+227949556+228082463+228120853+228014220+227934171+227979770
2507+227909080+227627422+227487160+227526257+227445666+227297390+227251200
2494+227314927+227478424+227635534+227705764+227803629+227992003+228205188
2480+228369145+228441871+228488932+228604646+228746074+228778455+228654662
2467+228506239+228533628+228738898+228904054+228915236+228870737+228896583
2453+229000376+229154694+229334989+229441968+229558684+229825366+230003888
2440+230013264+230195234+230477467+230515645+230495989+230682426+230883411
2426+230921588+230986613+231214461+231387170+231394773+231396267+231408747
2413+231373574+231449059+231777827+232241028+232604180+232702488+232670173
2399+232784278+233005345+233185263+233359466+233566773+233785820+233971206
2386+233981419+233591650+232582998+230847582+228553381+226068492+223658660
2372+221379353+219112805+216691495+214185817+212086625+210921668+210867234
2359+211950155+214154881+217394121+221568811+225475472+227014894+225569642
2345+222696346+220646645+219912393+220162031+221165544+222282915+223120713
2332+223888922+225014700+226371053+227395928+228220443+229444973+231066251
2318+232706167+234129810+235244586+236228050+237279427+238316175+239242413
2305+240089883+240875054+241530964+241973903+242275692+242628385+243084919
2291+243550009+243939844+244240566+244562618+244911797+245093094+245145557
2278+245300056+245588495+245821352+245831385+245815539+246053339+246413995
2264+246684060+246866145+246951334+246927081+246949561+247172762+247501842
2251+247745536+247850692+247875914+247976505+248188409+248296800+248297407
2237+248399723+248554123+248657407+248833104+249098030+249329951+249523054
2224+249631625+249662660+249741313+249775500+249718259+249762627+249930771
2210+250072840+250174383+250313825+250451247+250533989+250665598+250885959
2197+251059472+251107584+251115383+251240014+251522936+251798141+251914890
2183+251942344+252011967+252089635+252152426+252310341+252495119+252566169
2170+252653903+252862639+253068024+253204723+253253508+253207712+253216480
2156+253364772+253562063+253705182+253783672+253870683+253980404+254091947
2143+254186298+254277283+254439221+254611733+254673276+254650551+254672258
2129+254864573+255219285+255461124+255363768+255237939+255367413+255509285
2116+255532996+255570943+255707954+255955902+256192059+256288906+256265901
2102+256254571+256356394+256459037+256494489+256638068+256893421+257036655
2089+257021795+256985375+257023913+257142074+257298001+257436376+257495259
2075+257483009+257544750+257733107+257849757+257836326+257891186+258054765
2062+258196818+258275011+258343189+258448344+258554108+258617967+258661874
2048+258659806+258634272+258697539+258792695+258837703+258882088+258927556
2035+258970757+259012432+259075240+259262399+259513269+259664533+259754122
2021+259889672+260092775+260283333+260377816+260486453+260666453+260827618
2008+260996797+261221460+261479424+261716238+261888306+262060572+262246368
1994+262369488+262487764+262715432+263051901+263410488+263718780+264005709
1981+264240897+264378319+264508811+264615888+264677892+264771816+264885149
1967+265086774+265425887+265721749+265876412+265983522+266132142+266309449
1954+266434556+266542339+266799268+267154243+267321549+267355950+267676623
1940+268228674+268583682+268749462+268982746+269313484+269642236+269997145
1927+270307883+270482891+270687226+270896125+271067028+271473366+272046567
1913+272452461+272693397+273000276+273449931+273921917+274318107+274628993
1900+274925298+275215363+275503524+275817579+276054558+276354557+276943029
1886+277560368+278034259+278510285+279051466+279586342+280026407+280368278
1873+280493336+280382269+280628147+281596782+282671198+283468668+284075531
1859+284567057+285042130+285582688+286137235+286642752+287105214+287400616
1846+287596313+288337527+289496245+290316244+290921202+291564945+292050494
1832+292233712+292640542+293633414+294664907+295689405+296747170+297538105
1819+298240238+299052487+299754620+300215309+300774553+301704404+302739575
1805+303558752+304098686+304556616+305273889+306183018+306773230+307193131
1792+308388105+310100680+311291910+312120808+312948820+313762612+314758046
1778+315767108+316135285+315979620+316469570+318239748+320296822+321811598
1765+322486441+322916391+323930347+325147718+326258718+327215367+327719307
1751+328064101+328872507+330198252+331563669+332618216+333476540+334607342
1738+335545174+335713613+336610065+338920965+341005691+342719350+343993864
1724+344908214+345530446+345454682+345305717+346788999+349454479+351666331
1711+353204983+354067937+354643535+355490693+355959198+356258574+357777718
1697+359878995+362616725+365460957+367142794+368270280+368783153+368678194
1684+370451196+374059598+376622780+377992072+379191971+380819850+381980309
1670+383277121+386143258+388806604+390209820+391865745+394496382+396749022
1657+397463832+396998972+399008296+403118470+405049042+407287594+411667784
1643+415458879+417653489+418560549+419013816+421616570+426341391+429857280
1630+432281710+434780130+437373295+440214112+443961430+447407599+450297020
1616+454963187+460801306+465523827+469620636+473874652+478434711+483177856
1603+488195714+493528547+499043153+504645542+510316173+516044244+521674974
1589+527262585+533172493+539645062+546540749+553477783+559552585+564934777
1576+571910661+579288910+584814024+590705575+598226746+605464042+611971619
1562+617249115+621985397+631654807+644030815+653973329+663010031+672301380
1549+681751218+689559153+696051032+702294701+709758203+722040878+733874948
1535+742204328+750063232+758468803+765774276+772748781+780417012+787761763
1522+795234133+803237865+811335783+820538200+830145410+838477877+845029526
1508+850443967+859295448+871083870+879071510+883764836+888271890+895388333
1495+902623724+906343390+907936491+910551725+917052536+925451341+931486012
1481+934842657+937889943+940778215+941843960+942821167+947197778+952975700
1468+956938387+957429421+954706470+952941743+953277572+952561579+950863848
1454+951315736+952047557+952270742+952550479+952127163+949663324+946609142
1441+944979916+941614798+933229458+926218434+923380671+919339035+913514545
1427+908567623+906795934+908883813+911665090+914331161+918977000+925232228
1414+933117274+941270759+946638370+948940107+948592850+947677318+950618857
1400+957234807+963970823+968299618+971744211+976319836+979777630+980257301
1387+977168439+972911828+971902174+973969954+977235959+981097760+985245602
1373+990209339+994732550+996398098+995833698+994512649+992708711+992224968
1360+994045655+996244272+996472318+994153044+991141357+988700375+988069966
1346+988801590+987537487+983496048+977353595+970432488+966364317+966066255
1333+966897453+966934234+967081623+968391244+970154722+971765557+973615669
1319+975956946+977613430+977552740+977692970+979546826+980745051+981010009
1306+983318643+987075944+989781031+991466414+993717379+997115207+999776483
1292+999858454+999803610+1004019170+1011640242+1018904730+1025286461+1030330329
1279+1033403822+1036690976+1041032447+1043878683+1045601307+1047901074
1267+1049154997+1050113747+1051028097+1049199003+1048356180+1052785861
1256+1059107231+1063814219+1066291916+1065022165+1062198655+1062447587
1244+1064717732+1067545511+1071391941+1073068261+1071146490+1068860845
1233+1068314311+1069482782+1071430562+1072642777+1072101431+1070163963
1221+1068326922+1067196677+1065732114+1064387420+1065322985+1066836743
1209+1065466762+1063504926+1064366928+1067058418+1069691320+1070613683
1198+1068807709+1067135002+1068556281+1070351024+1069398053+1067968892
1186+1068543998+1069702026+1068643112+1064716549+1060764700+1059583684
1175+1060326540+1060564897+1058169367+1053089703+1049941399+1051409706
1163+1052711050+1050208525+1047782979+1048465671+1049677492+1049505144
1151+1048393684+1045907382+1043008339+1042100492+1042233496+1040927948
1140+1040047030+1041866600+1042368209+1037659250+1031471542+1027598248
1128+1025046987+1024131061+1026432207+1028482844+1026497625+1023231029
1117+1020746238+1017691990+1014275181+1011674725+1011998403+1016178101
1105+1019561281+1017904206+1015267823+1015677346+1016423946+1015717740
1094+1013738104+1011223954+1011324643+1012903163+1013735937+1015349071
1082+1015956163+1015194720+1017551432+1023246070+1029100314+1032926187
1070+1033682902+1032216303+1031119950+1032234300+1033801062+1035589303
1059+1039998229+1042696681+1038653797+1034145298+1034926578+1036587199
1047+1037109826+1038445325+1037908314+1036260895+1036971370+1037238693
1036+1035868580+1036324211+1037949299+1038709298+1038429693+1034072786
1024+1028039035+1028793648+1035259714+1036563751+1029217752+1022090670
1013+1019695534+1018398984+1016781975+1015756820+1018323779+1027932828
1001+1038615571+1038584701+1029950625+1024840748+1025698021+1028713582
989+1032930456+1037265031+1040356389+1042637831+1044072049+1043238946
978+1040885255+1041830016+1048402223+1054180211+1052658899+1049103634
966+1051231315+1056843852+1059897903+1060465127+1060952877+1060624864
955+1059929561+1061131070+1061991496+1058558004+1054771671+1056364772
943+1059071697+1057261914+1055951834+1059526278+1064146895+1068197923
932+1072792005+1073741823+1068043047+1061998392+1062185519+1066071950
920+1069651911+1071205012+1067157005+1060362270+1058514720+1061970215
908+1065977894+1068078515+1067507284+1063089688+1057441486+1055323657
897+1055764707+1054851080+1054507632+1055876628+1054624019+1052736469
885+1053930556+1052501330+1046386134+1044488600+1048919857+1052504548
874+1054603987+1055850290+1053504678+1049536211+1046098318+1044237697
862+1044554215+1044051753+1040464960+1037078496+1037973667+1040144961
851+1038726375+1035305559+1033122246+1032878962+1033962244+1034482638
839+1032493807+1028507671+1026776114+1030521856+1035006184+1034947268
827+1034057614+1034147926+1030688161+1025455919+1023296448+1022077074
816+1020326600+1019893826+1018779016+1015739809+1015072421+1020524826
804+1030256963+1036216034+1032507468+1025723702+1021655202+1017181712
793+1014714458+1016872287+1017486933+1014830254+1011526548+1007114600
781+1004416411+1005641565+1005273487+1001031063+999035007+1000228437+998513825
768+994098922+990609535+987185895+984206064+982646526+979260127+967477550
754+954260953+956983773+971201223+979339273+979663410+975193663+968098896
741+963007344+962414044+964413910+963426456+958140947+952318164+947085923
727+940880218+934864529+929679775+923725498+918343766+915473688+917206493
714+922815812+926934295+928550581+928452453+926203458+926311833+932280362
700+939042257+939505967+934747748+931170676+931211595+933026437+934432214
687+933104663+930746112+931965157+935547549+937887053+939129416+941304388
673+942428064+936141374+924820603+921707242+926864476+931045027+931302630
660+928356165+929960300+937567908+941688952+936469716+930490808+928929497
646+926620010+935068076+955526830+955250114+936690076+927767397+927808316
633+927004180+912843282+889030116+880948355+894236216+907964406+903094988
619+885251534+879423037+893465577+905521716+908058855+916419500+930233797
606+935063215+927939088+912196583+893383475
##END=
