##TITLE=Sample description
##JCAMP-DX=4.24
##DATA TYPE=INFRARED SPECTRUM
##DATE=12/9/2023
##SAMPLING PROCEDURE=Instrument type and / or accessory
##ORIGIN=Default
##XUNITS=1/CM
##YUNITS=ABSORBANCE
##RESOLUTION=4
##FIRSTX=4397.6552
##LASTX=599.8556
##DELTAX=-1.9287962
##MAXY=1.7800122
##MINY=0.15787086
##XFACTOR=1
##YFACTOR=1.6577656e-009
##NPOINTS=1970
##FIRSTY=0.16892265
##XYDATA=(X++(Y..Y))
4398+101897789+101705925+101598573+101540191+101533288+101362448+101323662
4384+101338934+100644035+99473059+99262040+100327372+101575076+102316509
4371+102565784+102590008+102397039+101770625+101123097+100647936+100103931
4357+100171940+101121947+101917510+101964727+101620083+101550798+101907901
4344+102399322+103090580+103836301+103931069+103045844+101954867+101616910
4330+101780297+101693862+101561081+101933707+102354540+102423124+102744138
4317+103302992+103263109+102567699+101904422+101492272+101243582+101526780
4303+102155746+102330379+102341183+102870690+103737425+104195427+103547728
4290+102620624+102569640+102866852+103416628+104353169+104453187+103909919
4276+104021702+104211624+103763600+103074958+102261184+101503409+101077021
4263+101031871+101635417+102639267+103287361+103364475+103093358+102840470
4249+103033790+103520070+103737704+103804023+103752131+103196953+102836443
4236+103355576+104063652+104224065+103902925+103594316+103703044+104240892
4222+104617932+104382005+104195633+104440863+104319642+103626801+103432088
4209+104092578+104484252+104069225+103446128+103165205+103506883+104342635
4195+104822173+104285763+103575853+103527054+103645057+103812930+104152317
4182+104136676+103824238+103902952+104402850+104658444+104315938+103963716
4168+104619397+105874660+106176842+105581610+104996778+104392270+104046718
4155+104509078+105241190+105457458+105426025+105571588+105635686+105702625
4141+106083764+106312446+106016726+105560280+105272156+105194503+105081749
4128+104774766+104680448+105049497+105752818+106305039+106007342+105309199
4114+105038468+104946684+104637167+104106169+103720724+103951293+104352612
4101+104143508+103805065+104269296+105262565+105988484+106014812+105424829
4087+105012581+105098602+104911206+104422481+104676367+105473036+105631336
4074+105202458+104798227+104576871+104521555+104360981+104093648+104081845
4060+104397798+104765688+104847683+104729841+104712511+104776744+104824034
4047+104953237+105259114+105536523+105688576+105709592+105336417+104895853
4033+104976850+105194925+104991017+104681284+104775584+105131169+105405917
4020+105496227+105396039+105421216+105858283+106348275+106365165+106081355
4006+106121786+106311160+106103503+105735587+105372623+104834425+104421780
3993+104564512+105163681+105644378+105661277+105410870+105155078+104939898
3979+104651693+104387803+104320495+104385915+104677050+105133452+105324605
3966+104959574+104489816+104929741+105705547+105633601+105471121+105725133
3952+105648792+105317693+105381333+105257738+104647801+104806470+105507696
3939+105495436+104749985+103658046+103365311+104610929+105674392+105230314
3925+104570822+104783504+104829768+104462841+104848528+106061580+106613325
3912+106059989+104953462+102694790+99633058+98486360+100066313+103064549
3898+106073724+106265075+103188728+101340058+102943633+103344871+102641577
3885+103460034+103046706+102708722+104526669+104229521+101764774+99541508
3871+98605595+100598373+101989159+101640820+103612932+106323367+105767011
3858+101415149+95231111+95523792+103795762+108042232+107271055+104191499
3844+101050424+98939463+97638132+98752525+101703597+102950851+103261420
3831+104208559+104912069+104846775+102846753+99367694+100084713+103338129
3817+104423066+106627707+108584916+107235451+103992507+102321543+102156735
3804+100096695+100253872+104129450+105680792+106480382+108006978+108147561
3790+107321922+106493343+106097373+106722007+106949502+106418351+107320511
3777+108560475+107755537+105521782+104496279+105949311+107739447+109028014
3763+109075249+107438047+107204206+108528242+107156197+102657100+100847594
3750+104880752+106446404+105384066+109258637+113419885+112073566+108332045
3736+107247675+110787327+116127506+119399376+119646565+119463870+121186680
3723+124383476+128461812+132527969+135137542+135514690+135741780+140722960
3709+149723904+158523098+166110156+174023431+183211521+189934675+192181167
3696+191618708+188421696+182557251+178015314+177750920+177236083+173614140
3682+168108560+162102453+155655198+151276712+151937849+151930118+150796589
3669+153050740+155411982+155440962+155004219+154873936+154127029+153817854
3655+154498874+152408245+147742282+147796466+154142022+158934259+159854271
3642+159046672+158445058+158059191+157408139+156273064+153782600+151863314
3628+155379497+159321960+158889693+156088598+154146103+155147912+156383427
3615+155994144+155713139+155709706+155929749+157339411+158494316+158036234
3601+157100402+156565448+155944023+155898576+157015441+157317641+156017119
3588+156174512+158540572+159859502+159811107+159780725+160026476+160207455
3574+160438644+160291661+158536850+156378178+157209507+159773085+161075907
3561+161554160+162010498+161922014+161206603+160769338+160798300+160683658
3547+160764664+161391069+161882302+161979038+161991730+162056970+162104718
3534+161972314+161658555+161427096+161344238+161260499+161321982+161598654
3520+161778320+161704649+161462727+161101777+160748395+160670966+160744799
3507+160291283+159432287+159305906+159746622+159621086+159229843+159275668
3493+159454058+159305007+158914340+158738089+158850916+158904902+158943967
3480+159167138+159382849+159375065+159379595+159621319+159721310+159520592
3466+159364728+159333160+159421087+159586839+159614578+159603899+159716977
3453+159843035+159807799+159551639+159461213+159816194+160318915+160858974
3439+161329658+161447770+161419671+161510133+161540713+161476138+161490951
3426+161454313+161274324+161368166+162061626+163057952+163881569+164323597
3412+164496468+164570517+164548405+164669716+165322350+166213148+166701648
3399+166894689+167233600+167595934+167913541+168403461+168950496+169375445
3385+169698661+170113777+170794024+171530900+172015301+172177404+172265583
3372+172614956+173102485+173436038+173804449+174520579+175442010+176248531
3358+176871376+177442842+178162657+179163549+180181196+180702307+180839025
3345+181221872+181964249+182685304+183177292+183745720+184661453+185428117
3331+185733985+186120355+186899981+187647212+187909934+188002194+188539017
3318+189221385+189419784+189412575+189717202+190308856+191029912+191702105
3304+191908162+191594996+191564272+192257571+193234697+194366446+195687750
3291+196839742+197707889+198508656+199289145+200052969+200858141+201593884
3277+202222608+202761643+203123726+203449566+203879046+204132006+204037823
3264+204058676+204417344+204602475+204481882+204485586+204609918+204533388
3250+204409739+204331412+203764584+202746434+202041684+201873091+202103993
3237+202587927+202942891+203010126+202884266+202420036+201728841+201386839
3223+201446560+201559206+201508402+200970230+200319322+200186128+200000349
3210+199319078+198603829+198049981+197581849+197230624+196947642+196532634
3196+195891739+195211996+194814389+194710138+194369431+193548780+192497713
3183+191322476+190430689+190158673+189841174+189065234+188238866+187488651
3169+186908772+186779946+186905266+186812809+186338565+185814739+185745472
3156+186155627+186509044+186408694+185941462+185320324+184764499+184396735
3142+184025987+183517425+183101176+182804153+182370808+181962900+181727019
3129+181442077+181001918+180393545+179797396+179314991+178682132+177708943
3115+176526156+175738044+175538333+175024413+173700521+172224540+171112944
3102+170095171+168924482+167822108+166920199+165996377+164941570+164002628
3088+163444089+163298022+163285420+163154167+162989134+162696984+162111963
3075+161540389+161237290+161027026+160820053+160703433+160587191+160497107
3061+160575182+160715172+160771819+160622535+160398644+160354546+160300703
3047+160241971+160385395+160401485+160099608+159674856+159147417+158558639
3034+158042364+157642475+157371591+157126092+156784575+156349953+155847736
3020+155348108+155033198+155036254+155153557+155089827+154733263+154103802
3007+153538449+153210936+152835856+152395589+152046019+151668925+151295786
2993+151314069+151869427+152641682+153391052+154123182+154679205+154763968
2980+154469193+154191640+154191083+154397517+154433580+154208269+153978284
2966+153725486+153387439+153191269+153124303+152729951+151967907+151422976
2953+151272343+151214815+151210735+151406257+151743423+151939916+151916491
2939+151915377+151868420+151534166+151108731+150840022+150640114+150395001
2926+150205159+150071461+149664237+148836216+147975449+147479992+147247616
2912+146987510+146704177+146606739+146797929+147194313+147548378+147519668
2899+147073837+146689094+146715718+146977631+147279229+147510616+147518976
2885+147471300+147653078+148010918+148362835+148683525+148969725+149154812
2872+149338037+149494405+149351988+149076565+149011397+149021986+148988754
2858+148994543+148818113+148266135+147597087+147035869+146572447+146354912
2845+146542973+146829956+146892841+146923924+147138232+147417925+147613051
2831+147765482+148000482+148291600+148429693+148315527+148169488+148225569
2818+148400974+148492776+148473504+148435311+148467149+148623795+148860836
2804+149088349+149274316+149462135+149647986+149762349+149873000+150068639
2791+150240791+150247694+150197294+150293303+150395666+150275065+150071578
2777+150007426+150058976+150097996+150055381+149955193+149888721+149873809
2764+149887310+149993008+150180584+150327361+150466542+150685192+150877074
2750+150963833+150955905+150892157+150887878+150921676+150915743+150897622
2737+150898107+150973756+151140551+151357196+151540530+151573662+151535514
2723+151601366+151758866+151938244+152079367+152080481+152061012+152223492
2710+152392210+152436092+152580433+152754095+152715857+152676702+152818328
2696+152981743+153101886+153242073+153416292+153593927+153732677+153792434
2683+153797989+153837287+153900729+153859867+153665513+153508858+153497856
2669+153431429+153299961+153275619+153283691+153215053+153090578+152926696
2656+152739821+152576784+152465485+152389801+152369378+152388776+152321361
2642+152200427+152127007+151987161+151767279+151567478+151308028+150981145
2629+150771160+150684850+150503063+150200314+149965763+149885593+149913818
2615+149909557+149788021+149657990+149525209+149285004+149035801+148853555
2602+148642159+148370296+148138037+148145623+148378988+148500973+148424084
2588+148337640+148200715+147937463+147720691+147624413+147552764+147470913
2575+147367192+147241126+147102772+146981056+146897191+146744284+146434642
2561+146053287+145734467+145498064+145273939+145117356+145146489+145195135
2548+145034633+144792208+144598870+144416318+144323420+144303483+144171736
2534+143968816+143889131+143903684+143863792+143737914+143571956+143487884
2521+143527012+143509763+143368532+143230511+143124219+143018323+142940571
2507+142887520+142852572+142894387+143010395+143073721+143057514+143101541
2494+143233504+143377197+143548567+143760673+143980285+144227807+144510484
2480+144716478+144767759+144773619+144822554+144835551+144742689+144600038
2467+144554376+144708829+144956063+145136619+145264582+145340285+145303845
2453+145246317+145334164+145581937+145824443+145997638+146222158+146521392
2440+146817380+147057909+147244191+147431435+147575748+147597420+147579479
2426+147610912+147687433+147864528+148174791+148496596+148700711+148747542
2413+148692675+148715642+148934984+149231728+149485506+149728911+149924892
2399+150065178+150322210+150646334+150823969+150971006+151173863+151139454
2386+150671421+149815319+148462088+146370121+143625717+140664901+137669264
2372+134429565+131045237+127937906+125128334+122753690+121509546+121564898
2359+122605098+124853334+128585030+133632734+138549446+140678205+139000661
2345+135457719+133173735+132781720+133266615+134074115+134925265+135563516
2332+136029635+136948001+138548655+140153301+141390218+142791835+144704029
2318+146713121+148358880+149654089+150910044+152216265+153443834+154579574
2305+155624331+156492370+157165210+157719831+158199109+158626468+159077305
2291+159595540+160104858+160523264+160872547+161098613+161156662+161211259
2278+161354053+161526205+161674195+161766096+161844585+161926760+162001923
2264+162154929+162407350+162629514+162750394+162856785+163000370+163129412
2251+163256350+163383451+163419028+163429868+163595350+163870405+164047608
2237+164061918+164036893+164073783+164159589+164212605+164197306+164200793
2224+164266932+164412927+164636134+164779001+164825940+164923755+165053641
2210+165187375+165343509+165448174+165508991+165569323+165563121+165550070
2197+165666959+165856962+165997851+166090291+166239251+166460679+166629001
2183+166756245+166930662+167048486+167045754+167037700+167063371+167106661
2170+167245105+167488735+167706981+167856948+167970224+168003068+168002978
2156+168087059+168237044+168393627+168523263+168597995+168674381+168822173
2143+168978289+169031358+169018540+169097695+169289963+169468155+169565556
2129+169596406+169621790+169639767+169622239+169700009+169879316+169992376
2116+170058425+170155000+170258783+170343852+170377128+170358881+170362764
2102+170434440+170519150+170576300+170656030+170752047+170814896+170859103
2089+170869116+170856100+170934320+171125312+171267082+171272727+171267441
2075+171296799+171328331+171390299+171392960+171320403+171330578+171417211
2062+171504815+171616293+171679591+171650252+171654477+171721029+171769424
2048+171757667+171711681+171716589+171787204+171905711+172031931+172096038
2035+172153638+172267327+172400773+172547612+172691270+172750290+172748923
2021+172752609+172704753+172704088+172959619+173320191+173499929+173553232
2008+173674095+173838893+173943036+174026092+174151035+174288616+174320202
1994+174151107+174060177+174346917+174754572+175043955+175276097+175524419
1981+175783959+175956344+176050474+176214428+176513356+176713570+176580825
1967+176506776+176917164+177470886+177822237+178066190+178277191+178505774
1954+178790715+179038965+179219027+179350442+179309166+179137158+179402091
1940+180199119+180815744+181038071+181130762+181283606+181605797+182051745
1927+182293900+182143843+182044410+182119358+182167393+182703192+183659266
1913+184183254+184257105+184472582+185040848+185675522+186130962+186451930
1900+186731389+186884988+187038892+187393119+187558403+187595581+188163199
1886+188974735+189607001+190175734+190639910+190998290+191376984+191725512
1873+191555482+190606203+190150206+191505199+193447370+194613510+195164985
1859+195636352+196188672+196758682+197337248+197826899+197952615+197477149
1846+196850762+197609229+199599957+200927857+201576662+202305592+202798334
1832+202378310+201937918+202759935+204030811+205407018+207078593+208332463
1819+209130803+209890654+210407469+210453563+210714145+211814488+213114183
1805+213792866+213762735+213740695+214591620+215807953+216043924+215529411
1792+216548927+219300549+221270351+222074049+222594693+223107354+223932607
1778+224974020+225083125+223987654+223649355+225746401+228617501+230718052
1765+231469292+231548824+232495191+233746148+234684425+235597983+235613030
1751+234808236+235024198+236752348+238675031+239910654+240540690+241441376
1738+242143574+241574517+242147745+245420944+248367926+250646850+252312277
1724+253223641+253383568+252019209+250159519+251504768+255792397+259468740
1711+261534649+261870557+261349464+261515953+261454794+260724749+261902323
1697+264877260+269271531+273768417+275797508+276270602+275617105+273855625
1684+275347192+280843514+284763182+286220160+287051885+288853383+290213050
1670+291588177+295665848+299696400+301478986+303687474+307608058+310516658
1657+310379599+308113726+310582635+317330634+319875875+322481879+329404582
1643+335827082+339334078+340384713+340160679+343466544+350983040+356261602
1630+359060144+361766930+364653238+367749451+371990500+375371187+377078178
1616+380679016+386506463+391183752+394763126+398575162+403064516+407738964
1603+412588621+417955415+423714225+429712027+436137582+442805725+449190796
1589+455503166+462248396+469781000+478268564+486981709+494113201+499916811
1576+508175522+517446973+523820179+530582487+540664072+551078562+559864839
1562+565418922+568707349+579751012+597054120+611160054+623650898+635100779
1549+645884274+655273800+662845739+668869823+676304127+691364877+706493654
1535+716771911+726913181+738319197+747720804+755596705+763306495+770670399
1522+779771712+791092730+801956260+812467217+822239950+829984831+835560631
1508+840558925+851982990+868120874+878937016+884954340+888716220+893920679
1495+901516060+907534607+910737030+913089338+917664156+924437826+931481013
1481+937145478+940992139+943452239+944511971+946623165+952240888+958282878
1468+961468259+961428061+960181939+959383599+958079015+955175376+953776806
1454+955186163+955238944+953855475+953002268+952410020+950741070+948065169
1441+943735707+937756710+931908013+928045963+925690851+922500149+918995850
1427+917646394+918031398+919310095+921422943+923670622+926568076+931866161
1414+938193057+942537045+944537139+946236004+947083890+947156231+950444227
1400+956202030+961142436+965078625+967446033+969195738+971400343+971862003
1387+970627890+970598623+971664971+974231928+979504341+984541250+986673371
1373+986592688+986051568+986488707+987895762+989184023+990207513+992230186
1360+994535752+994604642+992749158+991334121+989795902+986339350+983183669
1346+981918347+980060994+976485432+973140915+971010521+968312257+964944657
1333+962678426+961097493+959555319+959423581+961305599+963917141+966755269
1319+970622784+974366543+975947979+976462133+977599168+979675127+982765658
1306+985992315+988765653+990759563+991924642+993920638+995918502+995764904
1292+995659700+998148707+1002598834+1007676372+1012261689+1016063766+1021131309
1279+1028713459+1035845167+1039891593+1041932891+1043450616+1044798418
1267+1046119613+1046871356+1046195190+1045992980+1049068698+1053869313
1256+1056884267+1057644711+1058301965+1060171615+1062258360+1063564383
1244+1064847251+1066272283+1066882293+1067265499+1068714334+1071340401
1233+1073741823+1073570678+1070782670+1068380242+1067912758+1067449228
1221+1065215787+1062711463+1062579293+1063864318+1063191819+1061042872
1209+1060402589+1061248390+1061398825+1060367497+1059497750+1059154094
1198+1058697900+1057959460+1056566283+1054596103+1052725374+1049749035
1186+1045908702+1045115323+1047699252+1048695703+1046128818+1043195840
1175+1040847128+1037851661+1036114181+1037156798+1038599737+1037101644
1163+1032902122+1029794476+1029039713+1028303358+1026592053+1024485749
1151+1021555647+1018752754+1018699829+1020586953+1021667970+1021660204
1140+1020650377+1018632593+1015952522+1011576822+1006619948+1004757633
1128+1005619613+1005662399+1005020462+1006197838+1008181106+1008248557
1117+1006617791+1004733759+1002294153+998382989+994402792+993083897+994196914
1103+995148998+995896570+997614275+998928064+998870177+998946976+1000879907
1090+1003792893+1005205126+1006843659+1011788164+1017732716+1020153985
1078+1018218610+1017198356+1022008462+1028707418+1032227682+1033462298
1067+1033523637+1033329049+1032498493+1030207525+1030283821+1033219603
1055+1034849794+1036526511+1040740270+1046387764+1051277115+1051307676
1043+1047974378+1047455119+1048854336+1047727153+1042612006+1037350163
1032+1037381228+1040129254+1040447814+1038989055+1036336094+1032097022
1020+1029894502+1032890113+1037548850+1038262193+1036027098+1035266654
1009+1036056869+1036247429+1035956986+1035797563+1035142610+1034254023
997+1034648663+1035984672+1035947998+1035161450+1037652040+1043117602
986+1046348933+1046022607+1045430935+1046425013+1048383040+1048939693
974+1046086894+1043702371+1047132388+1053230252+1056111958+1057322556
962+1059424906+1059434326+1057377351+1058268887+1061470303+1062315672
951+1061058908+1060848932+1061934336+1062115476+1060599334+1058903058
939+1059130436+1061493170+1063504842+1063195343+1061756791+1061064014
928+1060638740+1059282597+1057362250+1055987698+1055391064+1055570478
916+1057094027+1059293383+1060284657+1058884074+1056954739+1058235305
905+1061575363+1062706933+1062306468+1062520615+1061431831+1056923889
893+1051280854+1048648171+1048858219+1049441334+1051085476+1053241542
881+1052054745+1047440521+1043017864+1039613375+1035098458+1029539916
870+1027386583+1030188109+1032101624+1030463307+1029878323+1032328643
858+1034243668+1031515201+1025307891+1020398550+1018180210+1017571423
847+1019139916+1020974186+1019865915+1020386828+1025682037+1028424598
835+1025364196+1022224119+1020639663+1018704359+1017900841+1018977903
824+1020956496+1022877058+1021093700+1015621234+1011754367+1010679749
812+1010559444+1011071297+1012138508+1014129325+1016047155+1014490527
800+1010552110+1007964011+1006709188+1006852647+1007746987+1005023195+998694573
787+994016709+991309599+988193899+986175828+986217032+985935794+983548970
773+979585815+974814468+970000263+964883678+959739120+958038098+959285370
760+958399156+954895144+951975254+951270252+951572632+950394969+947576975
746+945557537+943783886+939487718+935016809+932957246+931258022+928397817
733+924775370+921244895+917370189+911421610+904955353+901783564+901364403
719+900571168+898466229+894394923+889964140+889348449+892930411+897092684
706+899015763+899809070+900961205+900705495+899310376+899405441+900527447
692+901574882+902379838+901717623+899797996+898014134+897800274+899641520
679+901271855+903384056+907059429+906671045+899943109+894580521+900965736
665+911671783+916890624+919023895+919591981+917663868+913093509+909550306
652+911760232+917158128+918685200+915802416+913101994+913639518+916548838
638+918681245+920617412+922717532+922505830+921561010+919340009+913845395
625+909060961+907031312+908384004+916902345+927360161+928124272+921332337
611+915500827+913599321+915608475+918990241+921083602+922104934+923022141
##END=
