##TITLE=Sample description
##JCAMP-DX=4.24
##DATA TYPE=INFRARED SPECTRUM
##DATE=12/9/2023
##SAMPLING PROCEDURE=Instrument type and / or accessory
##ORIGIN=Default
##XUNITS=1/CM
##YUNITS=ABSORBANCE
##RESOLUTION=4
##FIRSTX=4397.6552
##LASTX=599.8556
##DELTAX=-1.9287962
##MAXY=1.9537147
##MINY=0.33114925
##XFACTOR=1
##YFACTOR=1.8195386e-009
##NPOINTS=1970
##FIRSTY=0.34094271
##XYDATA=(X++(Y..Y))
4398+187378660+186968692+186322162+185771334+185387294+185425490+185601270
4384+186050335+186710542+187000189+187356073+187742783+187411877+187056992
4371+187258176+187434906+187749580+188351134+188385497+187556602+186718125
4357+186614135+186873088+187185289+187690009+187984456+187971221+188014593
4344+188224245+188610234+188915998+188631707+187908424+187656563+187986552
4330+188441398+189060543+189481763+189341313+189227724+189515733+189382834
4317+188201724+187052340+186665008+186156373+185939219+187309360+189011635
4303+189260253+188850187+188927987+188741299+187857502+187454954+187857338
4290+188352821+188313511+187484469+187344886+188712046+189557484+189121817
4276+189065211+189509919+189104898+188017984+187416037+187380953+187461522
4263+187771053+188091378+187909554+187720327+188330545+189193901+189078658
4249+188813776+189529328+189726303+189062034+189087405+189423880+189092941
4236+188633820+188793286+189298957+189434542+189425878+190444835+192229579
4222+192748369+191822396+191026570+190685968+190600977+191176520+192104525
4209+191715539+189611125+188012693+188478202+190012969+190997743+190814298
4195+189608947+188390427+188647856+190099958+191073513+191292386+191451001
4182+191240530+190167816+189366586+189901575+190631819+190518213+190168619
4168+190229811+190586334+190727816+190594442+190304074+189894679+190001356
4155+190823814+191625110+191811684+191364405+190843305+190715712+190683609
4141+190537524+190646953+190742197+190311772+189910649+190011970+190160495
4128+189833913+189260957+189133938+189482779+190020077+190705295+191190279
4114+191313482+191184366+190478429+189478733+189325753+190165949+190799425
4101+190692061+190602205+190684068+190297211+189798698+190249761+191204971
4087+191224691+190700545+190852805+191615102+192214150+191997750+191271224
4074+190661759+190292150+190321747+190471812+190182590+189731069+189909175
4060+190836786+191544312+191467658+191473243+192045478+192420018+192120937
4047+191450067+190960513+191020215+191525935+192148535+192468074+192121788
4033+191426809+191183219+191523068+191985695+192062267+191483480+190726981
4020+190480558+191150510+192475871+193448279+193479235+192720918+191897969
4006+191510637+190905627+190072834+189986828+190320338+190191107+189797257
3993+189865148+190859127+192133106+192823254+193157845+193127397+192322612
3979+191336282+191174539+191683763+191929908+191670513+191121962+190716531
3966+190888429+191167872+191108744+191243609+191978160+192800667+192921168
3952+192257358+191709167+191925354+191974393+191655100+192335404+193458074
3939+193310564+191742368+189729382+189097576+190594245+192067574+191785133
3925+190787764+190695599+190979677+190792022+191043604+192026102+192175332
3912+191501563+191084568+190143837+188213713+187131697+187913911+189564035
3898+191457176+192434334+191227050+189623622+190135713+190429210+189678508
3885+189742305+189469413+189566541+191001297+190589446+188833742+187678347
3871+186937556+187960673+188954390+188542326+189556435+191501235+191382602
3858+187983981+182358840+181996273+189188234+193206671+192786057+190482425
3844+188115603+186360243+185204930+186115442+188705642+189899527+190169749
3831+191168609+192217852+192446405+190674339+187133940+186627435+188411425
3817+188861980+191235059+193897147+193213370+190434058+188908136+189038956
3804+187991679+188444396+191475553+192713465+193139173+193518005+192692091
3790+191848684+191880279+192387833+193223984+193270222+192488827+192976595
3777+194027983+193640372+192163997+191350843+191885602+192621956+193426413
3763+192998690+190596194+189574878+190579668+189616645+185809022+183878685
3750+187140590+188834496+187808970+189912713+192500701+191246852+188233434
3736+186767852+188370412+191713393+193898572+193738499+192820208+192927949
3723+193960894+195792973+198002082+199170302+198272402+196612237+198321621
3709+202953781+206384079+207945626+209723736+214350426+220242201+224264340
3696+225999930+225383799+222851008+221791479+223981310+225348830+224021619
3682+221011214+217320128+213133233+210494649+211927570+212619651+211870424
3669+213726924+215903766+216217556+215878559+215393608+214330378+213771295
3655+214360253+213278498+210528783+211298222+216285087+220028503+221329115
3642+221605430+221732367+221606789+221360759+221007660+219620092+218521958
3628+221414695+224556477+224359027+222171965+220410692+221350490+223119886
3615+223648520+224093604+224694683+225469199+226969324+227709051+227040983
3601+226612163+226822470+226558947+226561502+227718895+228120559+226713958
3588+226605742+229340602+231618601+232163073+231937173+231693961+231635963
3574+231955174+232213685+231219918+229785178+230552160+232739993+233892292
3561+233803255+233538979+233669897+234027845+234685153+235242614+234867878
3547+234171850+234397406+235508430+236530974+236714862+236321633+236047775
3534+235970515+235829475+235603723+235487645+235502206+235715559+236103825
3520+236151995+236017343+236332411+236578522+236126739+235671041+235702308
3507+235432578+234688511+234607467+235335401+235723241+235608669+235588343
3493+235495195+234980418+234369299+234055820+234159713+234744216+235535258
3480+236027629+235995477+235512279+235123735+235268870+235528559+235523547
3466+235385685+235309490+235433757+235520943+235346277+235309113+235694528
3453+236124282+236113587+235770789+235539222+235485089+235709040+236273741
3439+236603910+236507617+236446835+236539622+236724329+237176980+237796321
3426+237979865+237691381+237673708+238097041+238573344+238818440+238746863
3412+238815557+239116686+239095705+239038165+239445332+239972525+240419804
3399+240869081+241123546+241184460+241403890+241830466+242165352+242346898
3385+242641098+243073276+243328020+243526665+243943856+244367336+244795566
3372+245339908+245795344+246155994+246447754+246585306+246674703+246797922
3358+247071420+247731496+248647265+249375150+249616250+249458077+249485316
3345+250111618+251039999+251737911+251992245+252175215+252730055+253470618
3331+253963038+254131431+254149939+254090451+253950934+253844552+253931213
3318+254200452+254444746+254419604+254149743+253955749+253837345+253585435
3304+253252989+252941935+252794343+252952237+253666610+255129620+256927155
3291+258450899+259407517+260140447+261295466+262703049+263722972+264359479
3277+265115995+266240875+267377500+267834164+267625135+267576047+268024964
3264+268546768+268561951+268320114+268558921+268604078+267928196+267692436
3250+268262149+268791962+268900932+268788850+268590205+268276841+267972289
3237+267591771+267139234+267131421+267484455+267632325+267480639+267222538
3223+267142526+267231579+267200377+267134664+267170157+267003124+266441109
3210+265884991+265815741+266013714+265828025+265281882+264810247+264315501
3196+263875445+263803967+263764362+263514844+263435111+263454012+262832017
3183+261647992+260841536+260719660+260921696+260903826+260433993+259904196
3169+259481453+259007705+258577591+258336114+258322225+258540836+258858131
3156+259057448+258910708+258269140+257658349+257673254+257767303+257372043
3142+256917426+256942240+257226335+256913168+255909066+255150896+255042925
3129+255216560+255153975+254562315+253854494+253492893+253245340+252696626
3115+251733292+250578814+249509245+248650852+248143609+247953530+247665897
3102+246863635+245540044+244046732+242802710+242002266+241435584+240774001
3088+240148239+240018173+240267216+240329228+240054125+239545293+238949079
3075+238507500+238161738+237650155+237153296+237091580+237408728+237732230
3061+237810964+237720863+237768723+237939130+237963863+237713034+237251849
3047+236778052+236467718+236406379+236485276+236547140+236480821+236145919
3034+235680049+235304985+235010654+234985561+235288541+235272457+234693424
3020+234168082+234024782+234219513+234470636+234275988+233710959+233234247
3007+233014964+233003712+232944223+232646157+232324849+232102241+231993321
2993+232380947+233220603+233905412+234415455+234963155+235343640+235490249
2980+235545315+235583200+235681507+235784810+235669567+235260615+234760955
2966+234405513+234160581+234034511+234134309+234098062+233861155+233865168
2953+233850656+233627836+233592408+233751465+233914633+233892505+233623774
2939+233485764+233546579+233359449+232947237+232773340+232841330+232852992
2926+232704041+232475717+232222857+231815542+231363513+231120989+230982749
2912+230824479+230759716+230756751+230607702+230534897+230801843+231002503
2899+230883067+230712577+230650992+230756800+231071819+231461607+231699120
2885+231639238+231510810+231718857+232114804+232325275+232519727+232884145
2872+233082872+232914299+232701928+232762923+232958309+232929351+232684713
2858+232455947+232271699+232055283+231738643+231334178+230877580+230528820
2845+230541825+230862462+231226486+231442788+231647231+231991421+232208460
2831+232209295+232293238+232548112+232737814+232829897+232939096+232880148
2818+232607830+232426219+232551044+232765397+232649842+232407481+232519989
2804+232906912+233358024+233854980+234252304+234479383+234736649+235039907
2791+235087537+234808553+234621602+234803557+235059283+235083459+234936195
2777+234887958+235098839+235292537+235202059+235055385+234967413+234698878
2764+234442301+234612561+234980254+235157443+235214671+235272784+235370305
2750+235601446+235847558+235928012+235967289+236048300+236056276+236019849
2737+236039553+236145296+236331461+236505324+236656781+236869660+237055644
2723+237106993+237069288+237092268+237322394+237577514+237555861+237397835
2710+237432002+237690005+238009577+238256819+238424720+238627902+238794084
2696+238718577+238570428+238670078+238900155+238992746+239103681+239379799
2683+239585651+239690936+239753094+239672870+239683025+239836218+239738402
2669+239550813+239678930+239816891+239603537+239258103+239046011+239011238
2656+239100258+239159648+239131149+239127595+239215419+239304734+239269241
2642+239145300+239051530+239037379+239069285+239023522+238809022+238509105
2629+238330590+238277505+238173957+238053292+237996195+237964256+237883016
2615+237671022+237483645+237550980+237665846+237424206+236950638+236731798
2602+236807698+236840161+236768519+236777462+236853265+236906988+237000725
2588+237093971+237036579+236823389+236561111+236361664+236305484+236351132
2575+236311118+236035508+235627653+235291555+235095596+235080740+235080985
2561+234802116+234432506+234193830+233961199+233823926+233864251+233867805
2548+233738263+233573424+233433859+233218130+232919442+232791505+232786395
2534+232651267+232531487+232529997+232469935+232282100+232070876+232013876
2521+232103945+232134459+231984296+231723525+231524126+231470747+231508959
2507+231464851+231313885+231304794+231451240+231509320+231490648+231612033
2494+231810793+231778411+231525207+231354849+231411897+231686377+232070925
2480+232294188+232233520+232093986+232073398+232181156+232291256+232323948
2467+232386565+232534190+232651480+232674264+232680963+232742548+232806901
2453+232789687+232764397+232887093+233119938+233345477+233547627+233699461
2440+233813263+233954811+234094884+234202855+234289451+234321702+234342143
2426+234440957+234654065+234979763+235329570+235598236+235657807+235508020
2413+235493656+235746941+236022552+236352082+236780329+237010029+237081376
2399+237277777+237487937+237533765+237491638+237513455+237632793+237657525
2386+237232833+236039553+233932928+230896743+227092675+222940519+218788150
2372+214581550+210335870+206409418+202752679+199305953+196883720+196305883
2359+197588937+200482510+204978314+211114318+217354557+220407253+218709727
2345+214388949+211381001+210693343+211271376+212553643+213900771+214742016
2332+215274630+216410026+218460979+220595268+222361110+224335638+226835262
2318+229453830+231664446+233262697+234640798+236250925+238016079+239725856
2305+241300637+242630829+243688604+244518105+245129322+245636287+246123531
2291+246622535+247315615+248151225+248777364+249085110+249238319+249412887
2278+249617593+249762056+249844017+249850765+249834419+249945289+250189222
2264+250481522+250772939+251017101+251225295+251421500+251532435+251594594
2251+251783821+252080757+252320514+252456263+252554767+252713545+252947717
2237+253132472+253207832+253249075+253324419+253451242+253547632+253578376
2224+253650984+253807224+254002020+254177653+254320953+254426319+254433264
2210+254429055+254567490+254796257+255007645+255182671+255271741+255247762
2197+255228434+255297833+255431518+255622515+255828203+256001149+256195094
2183+256444743+256628434+256644551+256667875+256806851+256857774+256785657
2170+256813812+257049949+257382722+257672157+257910718+258062191+258097308
2156+258134718+258221314+258338293+258497006+258607466+258629299+258663270
2143+258783623+259024117+259287017+259441488+259548689+259644883+259694495
2129+259734312+259806315+259930566+260072802+260156794+260156237+260173959
2116+260364709+260652129+260832413+260891902+260865286+260798836+260837278
2102+260974059+261083177+261144860+261206183+261282018+261363668+261521267
2089+261722058+261755389+261664682+261725219+261931759+262078925+262136645
2075+262188239+262364477+262648785+262723064+262563106+262549905+262718609
2062+262798391+262837881+262960118+263033988+263045813+263089496+263151933
2048+263226458+263270796+263246489+263270501+263414768+263591219+263750653
2035+263850008+263911659+264056728+264208710+264264169+264300285+264378446
2021+264462782+264502796+264565200+264741848+264987616+265211943+265396732
2008+265544766+265645431+265743460+265869546+266057643+266385535+266664569
1994+266616267+266544019+266849947+267279455+267560847+267766945+267970291
1981+268159551+268334151+268512650+268684581+268919473+269154857+269189351
1967+269218866+269548314+269991286+270250026+270386349+270618407+270976142
1954+271336809+271599332+271700211+271673562+271596892+271547443+271862282
1940+272575442+273137653+273373348+273545655+273875955+274364510+274855767
1927+275097227+274967210+274834343+274898352+275099585+275734699+276547985
1913+276889161+276906195+277150472+277746932+278423190+279000093+279447045
1900+279715072+279841125+280102535+280529864+280636983+280591581+281136348
1886+282005912+282670443+283241712+283835878+284409112+284903498+285290273
1873+285269864+284609002+284313557+285488361+287131311+288118411+288626621
1859+289166703+289860815+290558497+291195184+291696940+291924117+291750368
1846+291361104+291940955+293687683+295034303+295703420+296354488+296884154
1832+296693862+296438152+297219597+298408683+299741054+301408016+302752343
1819+303584989+304240609+304753896+305006166+305448565+306512581+307713526
1805+308486715+308679464+308748191+309561476+310816800+311245898+310897221
1792+311715027+314126450+316096686+317138427+317887801+318551415+319419014
1778+320474775+320734514+319837335+319459863+321358425+324187808+326324030
1765+327134924+327241519+328055132+329326573+330533414+331664781+331914463
1751+331414345+331811308+333627745+335550515+336643522+337153697+338090906
1738+339000009+338663420+339080169+342040584+344980363+347210240+348788984
1724+349806517+350196895+349100022+347356570+348378099+352221608+355682895
1711+357727165+358291293+358117413+358425339+358491510+357938127+358938920
1697+361554655+365485104+369666972+371883418+372755046+372465071+370873486
1684+371971832+376998269+380813606+382286542+382970204+384366551+385485240
1670+386647760+390190386+393904205+395558522+397207271+400336162+402770482
1657+402418103+399679656+400611919+406281693+408866111+410992014+416519650
1643+421853227+424701643+425267638+424363710+426156070+432292745+437260316
1630+439980746+442377362+445120067+448362727+452941295+456966644+459376593
1616+463458319+469668961+474686685+478782103+483657820+489364512+494775923
1603+499951376+505590390+511452290+516904713+522293520+528241050+534400721
1589+540391982+546407092+552898766+560092447+567334151+572904405+576917601
1576+583419431+592134529+598757957+604878089+612999414+621561073+628884279
1562+633210577+635190608+643592146+658304075+670491860+680541590+689668064
1549+698994036+707112019+712941259+717004182+722073499+734438768+747911916
1535+756739768+764916389+774600734+782298234+787359559+791734928+796804508
1522+804975232+815673310+824846759+833736262+843315585+851111228+855555521
1508+857731184+865304858+878902684+888233111+892983495+895912791+901292196
1495+909312430+914041718+914780806+916911197+924316757+932454592+937088620
1481+939667142+942273049+944430040+944881643+944557862+947731664+954024235
1468+957479494+956744796+956698345+958488444+957644006+953247409+952479952
1454+957414502+960298199+958114609+953347518+951535011+952128392+949485926
1441+943668348+937884183+932676234+928856507+926291678+923385772+919811600
1427+916551644+914326189+912853188+912809030+915999080+923145786+931895673
1414+940064956+945894131+949092174+952247500+954623970+955356048+957883467
1400+961388454+964168045+968346604+974439809+978426733+977835514+976440936
1387+977278561+978608409+980049307+982842198+985333256+986190404+987849210
1373+991558476+995515786+998089525+998891247+997642770+994622604+993223833
1360+993699611+992815339+991945415+991345483+987339755+982146023+982217370
1346+986335982+987701012+985324477+982416605+978385195+972498956+967279803
1333+963688728+961910029+962587728+965733162+969432273+970473653+970140241
1319+971577209+973909783+976245370+979129853+981784046+984190260+987393675
1306+989722122+989036298+988188715+991219626+996232992+998577818+998257116
1292+998666003+1002680181+1009903148+1016865098+1022920107+1029263583
1281+1033940196+1035815467+1036920333+1038607375+1041274147+1044906825
1269+1048334830+1050186908+1049219561+1047050909+1048130223+1051904416
1258+1054457059+1056410556+1058992681+1060992301+1062923785+1065358564
1246+1065755199+1063063138+1060070881+1060299664+1064425548+1067918283
1234+1067448335+1065864481+1065651356+1066459695+1068088822+1070232905
1223+1070555573+1068345580+1067078562+1067683014+1068739398+1069792112
1211+1068076963+1063850643+1062559843+1065328558+1068425444+1069270341
1200+1067374826+1064146121+1062080853+1061855347+1063075652+1065301893
1188+1065428077+1061800968+1057532324+1054253172+1052482596+1053547497
1177+1055929012+1057446367+1057072663+1054042669+1050765154+1049475992
1165+1047661324+1044605778+1044182347+1047168183+1049401565+1047897575
1153+1044067431+1041224683+1040566048+1039619535+1036657678+1033757668
1142+1032588728+1032550598+1032720219+1032765884+1032780494+1032425789
1130+1030867093+1028003641+1026005200+1026097709+1026421621+1026463224
1119+1025358686+1022275689+1020896835+1021712774+1020881176+1019769366
1107+1021875188+1024818439+1023974983+1019646523+1015254119+1012294817
1096+1010359599+1011178290+1014155543+1013784656+1011085060+1010181788
1084+1012274507+1018559151+1023269898+1020912362+1017223668+1017916109
1072+1023438405+1029999330+1029922873+1022485865+1018298658+1025462922
1061+1039259851+1046733810+1043388094+1038078070+1036125686+1033408467
1049+1029367361+1030609024+1036848265+1039962120+1038347145+1037019328
1038+1037484362+1035798171+1031314110+1028483220+1027768438+1028270882
1026+1030324946+1033002921+1035900114+1036312801+1032672130+1028088157
1015+1023905733+1023377803+1028312746+1029968996+1025051153+1021763156
1003+1021543611+1021255602+1022896062+1029462491+1037739744+1037783771
991+1029581337+1026775146+1032170800+1035395574+1033432839+1031636253
980+1033501500+1039862797+1047457699+1050901690+1049967691+1049954850
968+1053102642+1055872012+1055767318+1053527187+1051213678+1051412258
957+1054912134+1059817334+1064308732+1067523744+1065302417+1058248155
945+1055268543+1057914284+1061829664+1066994373+1072181096+1073741823
934+1072441261+1070073570+1065971927+1062573666+1062721143+1064858807
922+1066466247+1067248576+1067272162+1064126401+1059196436+1057509459
910+1058091440+1057151544+1054718141+1052821184+1053196985+1055840499
899+1058478968+1061431457+1065280600+1064885799+1061162644+1061583585
887+1065548758+1069337037+1068786700+1057279432+1043394776+1042247391
876+1049874199+1053362086+1051652440+1049261164+1047666434+1049412113
864+1053607248+1052120554+1044868367+1040535911+1041283189+1042377178
853+1039349084+1034448799+1032553873+1033206022+1033716721+1035223528
841+1041528874+1049318687+1048626115+1039800098+1031395481+1026364687
829+1024604529+1027702856+1034056029+1035700355+1031824023+1030804918
818+1033110827+1034825452+1033842577+1027170602+1019197737+1017884334
806+1021894123+1024654845+1023393789+1018461793+1012416284+1011063506
795+1018012287+1027114127+1027762869+1021315483+1016270407+1013619424
783+1008550303+1000442147+994853352+992915251+990733692+989908450+993740690
770+994721861+986429277+979012317+979626531+984121337+986611281+979716878
756+965370268+958107533+962295526+966594962+965784003+965423074+964020372
743+958018365+953657606+954598615+955317132+952828367+948056493+941578053
729+935460542+930888230+927904491+925949356+923148472+919468361+918068279
716+919310270+918585792+917118163+920794278+928383808+934969105+938365007
702+938740939+935937107+930906903+927148761+925386768+923630016+922121964
689+924158077+929659146+931879098+928299619+923356748+921463067+925184520
675+930119594+929331565+921703708+909868793+905329633+911571822+919270502
662+928598701+935605857+934796142+929972379+924040279+918888870+918986292
648+923643185+922562561+911358763+903179391+904005026+906199426+912407481
635+928570922+940517870+922380819+884478704+863725721+865542355+875199707
621+889162786+894911244+888798712+898084588+925338024+941231079+930357877
608+910235422+905488117+922805495+937964899+927942359
##END=
