##TITLE=Sample description
##JCAMP-DX=4.24
##DATA TYPE=INFRARED SPECTRUM
##DATE=12/9/2023
##SAMPLING PROCEDURE=Instrument type and / or accessory
##ORIGIN=Default
##XUNITS=1/CM
##YUNITS=ABSORBANCE
##RESOLUTION=4
##FIRSTX=4397.6552
##LASTX=599.8556
##DELTAX=-1.9287962
##MAXY=1.8700988
##MINY=0.23926337
##XFACTOR=1
##YFACTOR=1.7416653e-009
##NPOINTS=1970
##FIRSTY=0.25255781
##XYDATA=(X++(Y..Y))
4398+145009389+145305381+145033653+144381589+143965166+144011366+144139770
4384+144068005+143864876+143851717+144620087+145629112+145606953+144822943
4371+144430955+144809887+145359231+145361627+145044347+144870410+144833980
4357+144932079+144939625+144846779+145061356+145247425+144751657+143711267
4344+143289240+144404193+145964067+146384837+146054450+146329396+147076822
4330+147305464+147163371+146994909+146356261+145102714+144020401+143867442
4317+144122608+143983988+143955635+144597740+145429593+146031538+146330782
4303+146421113+146433416+146377137+146604034+147180568+147675241+147804347
4290+147580786+147515250+147658096+147603373+147674351+147863792+147678219
4276+147241690+146511529+145688334+145903784+147271874+148500370+148652884
4263+147964526+147366141+147392578+147647897+147571426+147273329+147014057
4249+147351648+148655331+149209808+147933350+146943866+147619441+148674974
4236+148962104+148543319+147869866+147526629+147685029+147920140+148138566
4222+148636508+149220058+149336587+149020317+148511526+147986207+148262983
4209+149286040+149599195+149021942+148760360+149197676+149508625+149218809
4195+148833854+148587706+148464453+148516352+148459662+148268716+148244691
4182+148449720+148727506+149050416+149254640+148994085+148511578+148377750
4168+149189617+150603343+151006522+150334626+149886153+149770583+149607563
4155+149439734+149264941+149223378+149620550+150122513+150250198+150096743
4141+149976895+150263648+150549613+149921625+148641043+147959479+148246522
4128+148385090+148144282+148550438+149471322+150120699+150305246+150031053
4114+149475890+149284448+149691135+149816989+149280598+148957826+149305683
4101+149620157+149522947+149512851+149793529+150458136+151246903+151168156
4087+150299753+149866150+150113478+150309814+150383872+150368592+150128998
4074+150209080+150526068+150758167+151284787+151583860+150853255+149756842
4060+149262563+149275944+149669283+150328055+150503378+150390118+150727298
4047+151214904+151510555+151652802+151465039+150837513+150217823+150164402
4033+150330776+150276156+150496619+150893946+150777007+150546978+150594394
4020+150445884+150086014+150269106+151166685+151823197+151724122+151427017
4006+151311464+151309684+151638822+152326238+152593860+152136439+151513310
3993+151081641+150945965+151114033+151259736+150926475+150373879+150344927
3979+150736436+151058575+151287850+151476401+151608706+151427839+150962032
3966+150826715+151161312+151857112+152432620+152022990+151055358+150416145
3952+150017363+150065378+151018346+151378455+150365324+150264846+151203714
3939+151254500+150601033+149617094+148832896+149393379+150253877+149832167
3925+149431777+150431990+150942782+150077288+150118389+151830316+152850394
3912+152520795+151827253+149634051+145588250+143114695+144099456+147282843
3898+151142352+152604897+150453841+148376278+149042989+148577063+147014296
3885+147642114+147638246+147693550+150140463+150129409+147377845+144789952
3871+143292123+145389210+147693841+147153498+148023886+150711539+150850603
3858+146349947+138550684+137376209+147127677+153636509+153962327+151083557
3844+147760935+144924499+142495151+143082774+146654615+148988404+150174378
3831+151279671+151197998+150303637+148198405+144210834+143749477+146739008
3817+148448522+152019705+155415324+154368569+150228398+147693037+147795740
3804+145924403+145475212+149196530+151294164+152930373+155295767+156083781
3790+155911931+155452439+154775187+154744284+154154077+153142366+154608026
3777+156778914+156400427+153881048+151875336+152522232+154323326+156034243
3763+156204313+153786165+152371002+153335639+152179867+147437136+144685025
3750+147941118+149259620+148080730+152196277+157044175+156048069+151645307
3736+149093485+151984027+158043121+162094124+162428293+161918664+163373988
3723+166394851+170274620+173965805+175925983+175413206+174307194+178050106
3709+186548447+194727694+201010022+207742415+217763499+227390096+232964201
3696+235409282+234859134+231899308+231589027+236523679+240003367+238850042
3682+235208857+230650107+224800526+220963911+224048069+226824393+227372471
3669+231651603+236671556+238935137+240040721+241042217+241343377+242016454
3655+243595682+242312960+238483824+239999431+248657506+256049064+259520042
3642+261103206+262653242+264178688+265289680+265610672+263564937+261155019
3628+265746229+272762979+274798944+273063164+271691104+273801401+276604538
3615+278015219+279817049+281581867+282976993+285847875+288948733+290073020
3601+290109536+290638757+291687720+293469050+295633060+295989833+294527322
3588+295507052+300006048+303569188+305045149+305801951+306474464+307253477
3574+308131497+308302850+306961693+305550688+306919634+309703042+311298816
3561+312349113+313695986+314627188+314644504+314333146+314066892+313538561
3547+313265908+314327944+316167966+317176820+317126820+317181679+317817197
3534+318133107+317583489+316970799+316995576+317053618+316618270+315971185
3520+315329919+314824140+314603814+314382426+313776991+313225559+313248283
3507+313263581+312967314+312991783+313182849+312967074+312711156+312473308
3493+311660722+310323740+308975533+308153673+307843717+307464597+307069529
3480+306826958+306248764+305242306+304663838+304965546+305148536+304429207
3466+303352490+302424265+301654936+301113019+300687629+300105192+299446061
3453+298827415+297992550+297133935+296790338+296487021+295818753+295433473
3439+295286281+294741899+294212472+294360520+294620408+294200768+293358750
3426+292457562+291716501+291593710+291869751+291892886+291535292+290960178
3412+290568669+290525514+290402243+290218501+290454467+291131223+291767459
3399+291928751+291691724+291384403+291358120+291620849+291707090+291484745
3385+291278621+291571294+292222999+292214443+291251927+290281197+290184210
3372+290684308+290908535+290746901+290682699+290953265+291131908+290807441
3358+290539169+290718702+290884956+290894230+290798270+290335441+289672956
3345+289356087+289448899+289499583+289171044+288581043+288067565+287848676
3331+287964828+288250486+288128242+287412506+286920537+287042866+287194233
3318+286872744+286292702+285815859+285160972+284490838+284472495+284598708
3304+284242398+284241679+285247196+286448399+287476777+288752671+289890784
3291+290560353+291061785+291418660+291635427+292018415+292543598+292825491
3277+292878741+292842705+292759680+292858926+293047323+293276239+293809225
3264+294247756+293961824+293312892+292917824+292230014+290920274+290029318
3250+289642977+288929842+288235770+287864726+287237286+286619222+286570814
3237+286304834+285542932+285203819+285268517+285221683+284874681+284276484
3223+283764819+283228599+282629957+282273030+282066667+281886433+281681866
3210+281283581+280617366+279983834+279716348+279499342+279047840+278617369
3196+278224953+277784814+277466388+277074896+276152592+274629165+272923398
3183+271774009+271582344+271805836+271482961+270435761+269393386+268909424
3169+268750340+268430066+268113419+268165044+268289393+268048961+267258551
3156+266124973+265178336+264564584+264104100+263606569+263075311+262815868
3142+262734161+262231001+261203581+260415430+260298012+260177599+259548071
3129+258717073+258012272+257494498+256993887+256430255+255870729+255061395
3115+253745409+252340067+251577018+251304229+250639382+249282979+247686264
3102+246582938+246105667+245435242+244286469+243270942+242505412+241601263
3088+240714174+240123557+239625000+239254093+239073756+238675933+238115193
3075+237875052+237797315+237469888+237075522+236923093+236983172+237024376
3061+236749002+236295379+236120552+236228696+236344694+236287559+236048547
3047+235911399+235909825+235685067+235305724+235117756+235090155+235079392
3034+234986631+234712455+234395860+234117269+233740562+233469364+233572990
3020+233674273+233440326+233206242+233060624+232687578+232038577+231200957
3007+230573585+230625433+230953201+230914513+230616175+230431047+230470763
2993+230859072+231672102+232564410+233228658+233798553+234342815+234591392
2980+234499778+234432598+234444456+234345672+234115421+233639964+233069693
2966+232797656+232616994+232087516+231377102+230879554+230512634+230029118
2953+229516375+229280768+229514030+230003759+230436010+230681541+230522388
2939+229974070+229554345+229444832+229265351+228884331+228410671+227895618
2926+227526491+227343484+226945884+225958693+224742672+223988778+223688850
2912+223556938+223652368+223875039+223987050+224082685+224229244+224201267
2899+223919306+223530792+223194176+223088068+223224155+223239641+222961222
2885+222772774+222911137+223225028+223485549+223539587+223601804+223863865
2872+223993484+223785067+223523879+223326772+222985811+222546715+222275055
2858+222096224+221806048+221451398+221000684+220380361+219807643+219573337
2845+219665139+219830144+219973504+220046689+219964332+219960088+220269753
2831+220622282+220645417+220456866+220312651+220189261+220032897+219872546
2818+219773181+219699413+219508638+219324811+219410008+219663941+219814351
2804+219854648+219896314+219979903+220088544+220159145+220156630+220085463
2791+220025711+219932402+219669605+219556807+219840925+220040820+219833327
2777+219458673+219045022+218689584+218665594+218823926+218700296+218393386
2764+218360036+218654968+218952826+218882430+218501718+218301703+218359711
2750+218402934+218454405+218507981+218384847+218144912+217989061+217967432
2737+218029050+218168234+218333804+218382058+218307179+218231187+218295560
2723+218528652+218641142+218482827+218311765+218282675+218362072+218477523
2710+218488885+218411798+218437773+218564928+218632278+218592477+218466161
2696+218346124+218353636+218481373+218594907+218507588+218244226+218035125
2683+217916012+217770600+217600564+217429604+217245793+217110973+216992134
2669+216761353+216524360+216459114+216423984+216158877+215739409+215496341
2656+215579092+215709669+215488385+215063320+214888083+214911748+214806187
2642+214596008+214503863+214478710+214296097+214001798+213779025+213554694
2629+213277421+213130913+213094689+212964967+212758279+212613413+212569215
2615+212527566+212386841+212268858+212278184+212206761+211953581+211632469
2602+211280538+211002376+210839544+210732632+210731400+210732152+210593738
2588+210446478+210400653+210283611+209949203+209613101+209460348+209328659
2575+209082374+208783609+208524902+208410359+208430721+208365407+208113938
2561+207842277+207685777+207522927+207159978+206718726+206494550+206489776
2548+206463458+206300438+206060262+205848167+205736156+205674623+205594285
2534+205522657+205539357+205617796+205594730+205463759+205396631+205456264
2521+205491514+205466086+205537817+205546459+205342131+205188095+205225295
2507+205335167+205409636+205457907+205503663+205461809+205262273+205021413
2494+204978874+205136914+205242629+205218279+205243724+205432565+205694096
2480+205881654+205933347+205889542+205803078+205777189+205849433+205853026
2467+205760916+205706142+205731330+205823971+205926708+205975356+206011512
2453+206181274+206473417+206648912+206650417+206699407+206887872+207099301
2440+207340914+207667758+207930298+208025968+208049839+208088271+208167017
2426+208254850+208291298+208337242+208517989+208828664+209135591+209327683
2413+209392039+209412060+209557729+209867462+210139773+210239002+210281935
2399+210438230+210700154+210971763+211227425+211430280+211513253+211387142
2386+210827258+209543544+207315657+204162677+200453218+196518538+192394503
2372+188036522+183546372+179316932+175597137+172379561+170199433+169824146
2359+171140662+173906599+178524297+184972761+191360085+194417823+192652150
2345+188194050+185086312+184353790+184780925+185703092+186709704+187528057
2332+188230565+189397751+191260993+193188729+194789620+196564876+199004806
2318+201761024+204027087+205528303+206909621+208684928+210519543+212045657
2305+213314245+214458638+215486280+216289010+216904113+217545688+218289708
2291+219039581+219710963+220320061+220883693+221252444+221327939+221312590
2278+221393767+221522838+221583429+221535124+221546794+221783718+222078547
2264+222220315+222278956+222404537+222628559+222887643+223077014+223158499
2251+223249224+223464793+223691502+223790748+223865850+224022967+224206914
2237+224325205+224351831+224409975+224590517+224779872+224920630+225065855
2224+225197544+225349562+225549988+225676047+225664326+225613591+225653357
2210+225806162+226020089+226267006+226514454+226684387+226728398+226763545
2197+226901257+227081509+227203872+227235631+227305788+227506214+227744541
2183+227977923+228189352+228311219+228313769+228247291+228214950+228274430
2170+228479065+228826957+229149387+229331606+229397125+229433470+229557870
2156+229715637+229791321+229861648+230035466+230272630+230477214+230639327
2143+230751920+230798840+230864154+230987116+231110284+231234958+231399946
2129+231554958+231658020+231792242+231977301+232123484+232220506+232293417
2116+232344803+232455325+232659071+232867898+233022055+233065004+233003095
2102+232964441+233026812+233167964+233304016+233364591+233341832+233315515
2089+233408738+233599222+233796807+233983698+234123652+234158012+234100654
2075+234070778+234144237+234223565+234190592+234083834+234070196+234187375
2062+234287117+234405511+234633657+234772807+234694420+234586926+234631056
2048+234722551+234708605+234652736+234658075+234798765+235015686+235124634
2035+235147016+235217258+235384916+235593504+235693879+235646789+235556338
2021+235483101+235409659+235437362+235761007+236229226+236495445+236586598
2008+236700543+236854973+236984061+237012997+237021398+237209059+237371891
1994+237126120+236824326+237056015+237655684+238230883+238664537+238999168
1981+239237837+239372247+239524676+239710369+239907834+240010622+239834409
1967+239764150+240264812+240950774+241361652+241575357+241697121+241809475
1954+242071792+242437805+242682276+242671051+242364911+241903433+242072768
1940+243175631+244197096+244633625+244797809+244946011+245241559+245629816
1927+245665819+245177784+244910522+245086769+245208996+245849646+247160910
1913+248014357+248072126+248072023+248616405+249470760+250186786+250645046
1900+250856902+250854421+250940526+251340094+251465914+251409019+252248264
1886+253484682+254162756+254583901+255039800+255493543+255970934+256397384
1873+256187889+254839871+253818851+255220650+257782295+259477743+260236565
1859+260690342+261278358+262033775+262761522+263278047+263292113+262510327
1846+261319220+261758589+264257811+266226494+267087386+267852060+268313332
1832+267488802+266487221+267300303+268894794+270595667+272806527+274565870
1819+275538567+276338816+276910884+276810423+276777090+277876908+279465683
1805+280323700+280090403+279614912+280277020+281629830+281798069+280810998
1792+281676989+285230872+288049700+288976488+289238326+289546366+290317918
1778+291487688+291472561+289546708+288235735+290468191+294394674+297497449
1765+298574098+298278276+299012013+300640539+302079128+303282880+302951706
1751+301194982+300907203+303039659+305521051+307038216+307750631+308845042
1738+309713514+308444122+307943477+311616438+315723344+318925639+321134959
1724+322178720+322196584+320040686+316580830+317212925+322714512+327931024
1711+330847593+331176508+330122548+330000099+329693497+327982358+328515994
1697+332165238+337952210+344084660+347036478+347587705+346474848+343446850
1684+344145371+351184451+356980971+359165103+359672662+361110087+362411272
1670+363660883+368448617+373922792+376403739+378642662+382891661+386058330
1657+385177196+380826761+381859673+390100076+393597063+396003884+403847234
1643+411897221+416120553+416934405+415667786+418322550+427415751+434645726
1630+438190762+441044293+444077322+447233416+452133298+456586128+458843737
1616+463433595+471257301+477419525+481768763+486383398+491791249+496969910
1603+501968286+507795126+514141195+520066597+526057468+532817051+539682485
1589+546074891+552315006+558863024+565852173+573012300+578770969+582749847
1576+589375653+598685279+605229840+611224509+620600732+630211108+637360659
1562+640867332+641251448+649325015+666334290+680384456+691974825+702407438
1549+712211446+720057294+725084211+728292529+733991103+749869109+766806242
1535+777143030+785424945+794723483+802640788+808895345+814255387+818399357
1522+823946871+832122901+839851981+848059154+857186509+863799515+865858974
1508+865639743+873968954+891243524+902530884+906376705+906870950+909852577
1495+916797065+922424045+924562216+927117358+934306814+942395439+947786965
1481+951506983+954472456+956685370+957533821+956889612+959020254+964057301
1468+966191434+965040590+965071459+967035163+966388215+960042215+956660661
1454+962445750+967016135+964823139+957545389+951799930+951727788+953748370
1441+952291095+945452560+936188177+931089734+927642747+919931736+913427558
1427+914449040+919647071+923383241+922544304+920914478+925874387+934932338
1414+942039111+946099713+947205862+945892255+944184606+945840442+952495611
1400+959761314+963829377+966515387+970707542+976341161+980346117+981151859
1387+980951929+980929137+980106558+980854805+985039773+989440961+991982893
1373+993512309+994176710+994375203+994011346+991882757+989971756+991708084
1360+995005792+996925074+996711593+993600262+990089483+988518246+987716132
1346+987329551+986784998+983709054+978752978+974715579+972427990+972118959
1333+973061317+972490413+970095844+969742186+971999589+972752354+971754075
1319+972230525+974707844+977832727+980896420+983557036+985143673+985247779
1306+985907184+989879560+995012568+997543891+998977278+1001416199+1003055745
1292+1002679842+1002445758+1004814249+1010407622+1018387555+1026401985
1281+1031596251+1033732643+1035813868+1039428274+1042921189+1045426776
1269+1047046678+1047607521+1048844401+1052105491+1054995468+1055618460
1258+1055433383+1056045081+1058708641+1062120379+1062242418+1060224163
1246+1060227928+1062200461+1065479689+1069604288+1071758681+1070662046
1234+1067290074+1063756639+1062928722+1063742197+1064207970+1065516718
1223+1066409316+1065088522+1063316192+1061650501+1059290976+1057273474
1211+1057055886+1058783178+1060392608+1059183996+1055888136+1053481863
1200+1053237649+1053751470+1053958655+1054801083+1054411970+1051688794
1188+1050198597+1049806404+1048541119+1047590752+1046655443+1046087276
1177+1047175287+1046317116+1040282749+1033324229+1032344362+1037290650
1165+1039982341+1036514477+1031893853+1030718984+1032730874+1033659133
1153+1030633564+1026998762+1027309847+1030763406+1033168173+1032830325
1142+1030941022+1029309827+1028961439+1029703731+1031143689+1032628616
1130+1033286104+1033034362+1032299393+1031038899+1028888613+1026268379
1119+1024635062+1025518763+1027654539+1026881651+1024072303+1023317348
1107+1021483349+1016371969+1013593284+1015380604+1018608429+1020953648
1096+1022058291+1023248902+1026336619+1030380316+1033294865+1035054054
1084+1035487451+1034322165+1032636351+1032527043+1034895739+1036306676
1072+1034108067+1031831773+1032516981+1034645091+1036458215+1037317207
1061+1038004674+1040819362+1044775311+1047258791+1050601194+1055825029
1049+1057910566+1056959035+1054567752+1048222299+1044641363+1049105795
1038+1051444306+1045928961+1041661243+1042471501+1042525779+1039251411
1026+1035131945+1034209435+1037409472+1041287051+1043083884+1039766669
1015+1033888426+1033671453+1038323631+1039892267+1036664989+1033331963
1003+1032897060+1034126342+1033896707+1032543744+1033476725+1036404006
991+1037794341+1037065806+1036917622+1036587714+1034674797+1035749256
980+1041315592+1046822039+1049176499+1048746797+1048772054+1050166564
968+1051039451+1052670440+1055769382+1058115218+1059564485+1060389117
957+1059201175+1057349449+1057155269+1058391122+1061441536+1065538552
945+1067208624+1066409180+1064579903+1061019980+1058456898+1061835920
934+1069454734+1073741823+1072674003+1070208594+1067416356+1064265122
922+1062160146+1061730856+1064094418+1068432226+1068499781+1062550355
910+1058592831+1061724285+1066491725+1064803925+1059757022+1060430253
899+1066312192+1070154864+1067994037+1061700671+1056951643+1057914330
887+1063089637+1065659837+1061448381+1055522294+1054305126+1056233375
876+1054509231+1049557741+1047763440+1049672045+1052066819+1051611861
864+1045824308+1039153944+1037975106+1040627304+1041208612+1040855022
853+1042655072+1041340575+1035630502+1032846273+1033420874+1032770299
841+1031696730+1032264486+1033167557+1032660306+1030590717+1029078207
829+1030448351+1032385497+1030855397+1028092043+1027910731+1029737612
818+1032935526+1035350697+1033420121+1028169181+1021677871+1015453293
806+1012202675+1013132440+1015827006+1017272234+1016440004+1011977079
795+1007159263+1007211692+1007977461+1005498841+1003917406+1003235620+999947973
781+996260331+994122091+991022464+986975688+985987881+989108726+992801776
768+994652818+993551255+987874036+980469046+976590235+979110332+988778339
754+996004071+986981300+970537181+962323985+961540420+960433108+955711526
741+952021420+953575545+956120420+954899146+949297422+941168004+935443626
727+935298659+935208242+927912901+919675133+920283683+925017859+926482526
714+926294848+925326548+922730270+919017235+916840391+919720034+924993218
700+926783070+925090822+924609581+925985337+925075079+920890111+917939627
687+919554875+921231175+920669990+921581480+921667242+919899840+920337413
673+921079911+915020629+902146289+901434112+918127921+930609931+930990420
660+925234831+921648967+921298252+922847312+925542768+926323458+924519233
646+924378988+925991839+925773703+924121221+922231028+920411539+922105431
633+924994245+912449197+886364928+876357500+894810018+921075051+929694950
619+929296323+934658692+932379249+922003857+924699176+940626394+957406307
606+967180541+960884917+943424518+932000198
##END=
