##TITLE=Sample description
##JCAMP-DX=4.24
##DATA TYPE=INFRARED SPECTRUM
##DATE=12/9/2023
##SAMPLING PROCEDURE=Instrument type and / or accessory
##ORIGIN=Default
##XUNITS=1/CM
##YUNITS=ABSORBANCE
##RESOLUTION=4
##FIRSTX=4397.6552
##LASTX=599.8556
##DELTAX=-1.9287962
##MAXY=1.6962416
##MINY=0.16410401
##XFACTOR=1
##YFACTOR=1.5797481e-009
##NPOINTS=1970
##FIRSTY=0.20837341
##XYDATA=(X++(Y..Y))
4398+131902935+130283420+130455236+131418825+131973208+132837745+133603193
4384+132970311+132183084+132472910+133316668+134021548+134106961+133680059
4371+133271938+133358850+133946134+134632357+135314270+135663890+135294622
4357+134443375+133479371+132861176+132699529+132738241+132918696+132939938
4344+133117913+134251336+135491329+135345341+134240357+133602608+133317149
4330+132631586+132239142+132818323+133434453+133048753+131867402+130967493
4317+131374878+132715961+133477182+133119403+132607825+132662280+133088804
4303+133678059+133963255+133984752+134135391+133740768+133107471+132933581
4290+132693926+132471854+132777046+133538117+134049318+134202551+134646374
4276+134677898+133547701+132564199+132921309+133567122+133446989+133291841
4263+133576715+134002683+134613587+135002446+134224897+133009891+132904509
4249+133660317+134169027+133510527+131939364+131257867+131874128+132365350
4236+132438774+133029001+133753511+133450318+132654366+132442858+132766425
4222+133283776+133475400+133008825+132676476+132891304+133220502+133741409
4209+134196759+133831990+132790856+131931478+131974029+132926431+134092736
4195+134536456+133863109+133204655+133488237+133565236+132743447+132110792
4182+132292776+132725818+132721064+132357531+132311311+132782621+133101453
4168+132846536+132465383+132148683+131763389+131584848+131845538+132296907
4155+132536307+132365247+131751900+131158513+131227409+131755635+132340561
4141+133103556+133658958+133238094+132266185+131568643+131196385+130990188
4128+130554787+129925066+129945752+130833719+131797525+132208684+132121998
4114+131600403+130850151+130185368+129753836+129967022+130679487+131228861
4101+131301719+131066007+131020240+130982057+130847151+131171766+131509887
4087+131040247+130468036+130819240+131466035+131573586+131479835+131419570
4074+131068941+130335639+129888920+130024231+129760382+128728944+128008358
4060+128352875+129268329+130052501+130322302+129994471+129725651+129657840
4047+129329226+129437815+130411204+131150514+130800073+129762457+129150610
4033+129495203+130124830+130234550+129860254+129506248+129326840+129283280
4020+129526774+129849294+129935791+129782945+129219902+128593671+128895269
4006+130001461+130490589+129906031+129467386+129676696+129563976+128705994
3993+128026657+128413130+129309531+129669895+129540140+129425062+129314304
3979+129051945+129073093+129624043+129840493+129458727+129138716+128868792
3966+128444994+128193699+128632052+129070546+128438646+127624884+127349121
3952+126896252+126549452+127176684+127435883+126368044+126280528+127680612
3939+128306570+127438326+125452458+123942145+124762764+126194371+125755622
3925+125028292+125723627+125330749+123206117+123079918+126134455+128652879
3912+128515701+126501318+122270968+116318033+113127648+114940512+119320379
3898+123959991+125489726+122415730+119674894+121371916+121825569+119722812
3885+119580624+119086204+119050351+122383706+122772075+119153714+115626414
3871+113869721+116082095+117901958+116707911+118427930+122691568+123298991
3858+117723172+107246919+103879861+115312695+124698971+126457060+122874570
3844+117776108+114037735+111540742+112296341+116739888+119880752+121241510
3831+122669241+123140485+122488455+119604876+113609154+112171869+116065899
3817+118569193+123197213+127878603+127140330+122408618+119291883+118832920
3804+115914156+115418680+120643388+123657770+125766262+129022732+130381010
3790+129954165+128927557+128040363+128271943+127700534+126462012+128809385
3777+132987828+134147615+131763285+129405876+130611176+133206296+135610426
3763+136596700+134406012+133301094+135305186+134250157+127848022+124052997
3750+129585161+133162095+132755002+139678856+148420006+149075366+144731447
3736+143454657+150967860+163811323+174020699+178698297+181761483+186965157
3723+193869154+201525724+208106107+211514791+211178915+210522518+218643719
3709+235959271+253101772+265677434+276753120+291489247+306747998+317154100
3696+321244913+316757251+304430196+293330211+291485210+293084793+291883530
3682+287776474+281356124+272134250+265411075+268633352+272037509+272465580
3669+277789727+284004219+285694544+284339737+281712772+277453492+273302442
3655+271596647+266984832+257331660+253648543+262211229+271708273+275996586
3642+276640664+276377324+275942028+275024970+273136258+268939742+264885546
3628+269219910+276565618+277961419+274220915+270142458+271062836+274263097
3615+275238336+275483018+275766034+276723671+280639868+284578401+284900054
3601+283892612+284198455+284421141+284724173+286578531+287110380+284341699
3588+283713939+288610374+293160084+294554546+294762837+294820584+294739859
3574+295265237+295205849+291994345+287729405+288615468+293334908+296475970
3561+297989925+299160645+299387518+298481477+297987340+298344195+297692193
3547+296615460+297817911+300439028+301742201+301379291+300675353+300463516
3534+300467402+300306198+299995582+299680250+299405195+299230220+299382047
3520+299737940+300168029+300823879+301096954+300314122+299336167+299151212
3507+298712727+297463377+297182889+298074780+298582746+298713123+299077090
3493+299574265+299478656+298605460+298023297+298121038+298155844+297871338
3480+297745280+297781143+297242408+296238683+295790049+295999284+296188577
3466+295954139+295267822+294841034+295283084+296069406+296664151+296729746
3453+296150243+295280065+294380307+294053787+294265417+294200861+294103403
3439+294366252+294748217+294924908+294762101+294543831+294630686+294993031
3426+294729710+293344567+292340126+292980940+294184014+294587089+294452711
3412+294469275+294448090+294144265+293973516+294179958+294476595+294567374
3399+294431224+294224933+293953896+293732531+293815519+293940747+293943444
3385+294158357+294350254+294089442+293709591+293511638+293409747+293468059
3372+293734229+293948764+294083651+294401624+294672416+294945207+295828987
3358+296906192+297178927+296817526+296851275+297598622+298445180+298914189
3345+299231616+299679024+300082193+300456686+300913659+301224917+301157869
3331+301015871+301530005+302416445+302855137+302728985+302034065+301263402
3318+301145796+301379215+301373782+301563434+302317157+302690594+302470249
3304+302672691+303120307+302985364+302535767+302342984+302484322+302811823
3291+302992363+302796636+302257807+301532986+300986498+300810957+300794053
3277+300588649+300194950+300276033+300937090+300947730+299689682+298372681
3264+298126716+298442520+298407110+298017128+297398065+296527850+296041806
3250+296302599+296731538+296965071+296987728+296728218+296350724+296106740
3237+296364024+297385935+298266998+297988585+297364617+297567853+298326820
3223+298902908+299014684+298758740+298482685+298373436+298016525+296857161
3210+295515126+295202359+295350301+294654853+293438950+292391401+291612758
3196+291152955+290760483+290331450+290006817+289184122+287375889+285722351
3183+285204746+284987003+284396861+283756254+283303262+283014247+282490340
3169+281556530+280734609+280341401+280117282+279584716+278540224+277418308
3156+276796246+276442636+275834439+275350678+275180419+274663531+273729777
3142+272774253+271939975+271254790+270374538+269077289+267759703+266606226
3129+265690941+265370402+265275925+264616547+263391457+261920233+260395016
3115+259005497+257683025+256429525+255371430+254007851+252003589+250115556
3102+248865791+247801810+246414461+244758508+243338842+242299387+241156323
3088+239893654+239016439+238319935+237349224+236363761+235595229+234916759
3075+234434054+234041733+233184704+232114630+231534071+231142014+230511481
3061+229893965+229597196+229498908+229159844+228524161+227768230+227123379
3047+226945687+227008056+226788974+226214376+225419886+224400201+223185185
3034+222004184+220872590+219853207+219294834+218986557+218325312+217197831
3020+216019282+215344944+215184589+214789627+213738324+212511197+211532845
3007+210657574+209800715+209088646+208439833+207745611+206905486+205877198
2993+205319429+205714542+206380636+206645806+206626431+206655672+206677028
2980+206489885+206343056+206400916+206375316+206159234+205909458+205629215
2966+205149547+204420651+203629500+202930373+202348795+201904500+201476108
2953+200950523+200364323+199811044+199548553+199602885+199584246+199377426
2939+199252689+199144516+198599103+197617564+196784230+196427695+196200388
2926+195726097+194980468+193828236+192309075+190984018+190276421+189959390
2912+189517227+188958137+188657010+188573116+188455039+188260104+187937697
2899+187399208+186792464+186429742+186411405+186475887+186361790+186162724
2885+186113052+186214396+186262012+186114372+185849221+185656909+185632026
2872+185790324+185932851+185758536+185476595+185347934+185105459+184718797
2858+184518543+184414463+184011577+183103990+181779895+180504869+179769163
2845+179551722+179584642+179789179+180058405+180136243+179971889+179714152
2831+179488109+179451057+179603790+179620128+179379766+179111879+178860311
2818+178608196+178315238+177832760+177392087+177247598+177229468+177186323
2804+177130765+177174551+177355469+177421441+177319870+177356997+177595378
2791+177829477+177801066+177444815+177133123+177087715+177070095+176857993
2777+176537718+176323541+176269209+176304921+176214462+175818631+175342643
2764+175081001+175029649+175077341+175100092+174927570+174621010+174507158
2750+174682340+174855637+174811096+174602314+174302847+174070937+173992099
2737+173880794+173734702+173648205+173490774+173216247+172974659+172872862
2723+172854940+172804740+172690737+172549305+172358483+172116914+171953974
2710+171971349+172174320+172441207+172502708+172248102+171888342+171619758
2696+171423427+171301426+171335855+171477910+171535940+171472496+171473533
2683+171535204+171516320+171458404+171364643+171211759+170984075+170527348
2669+169978105+169660829+169459915+169118548+168683610+168362675+168216677
2656+168084299+167851446+167556676+167337670+167268001+167118814+166712344
2642+166268596+165954150+165650118+165326315+165016170+164641582+164244620
2629+163900707+163575451+163307489+163063449+162728440+162395864+162197496
2615+161985583+161592073+161259592+161184697+161064526+160694465+160273242
2602+160007356+159847586+159656934+159470111+159322397+159220845+159225033
2588+159221788+159121954+159038305+158997500+159016346+159092807+158994783
2575+158726236+158566561+158480592+158335462+158218252+158142602+157929821
2561+157553139+157200925+156932633+156782136+156817678+156899402+156844806
2548+156660031+156434261+156177911+155945500+155815443+155658513+155371620
2534+155126287+155106903+155192589+155116203+154882869+154710101+154635319
2521+154554604+154462542+154345823+154174772+153985034+153777253+153629528
2507+153641480+153663005+153546823+153464307+153555850+153670457+153714356
2494+153778800+153909045+154055100+154201871+154428198+154780242+155167517
2480+155462531+155621047+155643411+155582920+155543973+155568413+155654381
2467+155794126+155937200+155986447+155948500+155959800+156031733+156095734
2453+156134190+156174185+156259767+156337511+156410415+156533483+156636798
2440+156778721+157123804+157507306+157615696+157506203+157391908+157266623
2426+157157498+157211867+157385427+157525615+157616715+157677537+157695157
2413+157682885+157727992+157916550+158144904+158265604+158322784+158434504
2399+158597972+158726614+158767740+158775739+158896118+159062094+158981766
2386+158448559+157205368+154863155+151318452+146962997+142344768+137779315
2372+133218483+128495826+123747380+119382473+115979288+113976112+113477475
2359+114749662+118056794+123191440+129987840+136890224+140199357+138013697
2345+132740552+129039315+128087988+128374909+129153053+130007903+130588273
2332+131215637+132639821+134747549+136636647+137971231+139474347+141820965
2318+144666928+147173703+148955506+150442133+152119083+153859939+155400804
2305+156667275+157691148+158589350+159394349+160084175+160779906+161526007
2291+162135486+162520828+162833632+163161850+163377989+163419511+163380498
2278+163307225+163246856+163260288+163311753+163347710+163376083+163431641
2264+163537834+163696208+163827943+163850261+163820888+163870371+164010955
2251+164086227+164069796+164069984+164066136+164064174+164131051+164255184
2237+164379205+164439404+164452949+164504960+164599966+164684218+164742172
2224+164752321+164723835+164696122+164625547+164532032+164555349+164701725
2210+164810860+164832140+164896169+165055750+165197711+165220915+165168677
2197+165203880+165366875+165451127+165351009+165259230+165333088+165484877
2183+165601125+165738407+165898064+165943755+165899611+165855994+165824923
2170+165902931+166130615+166325814+166326116+166235827+166289593+166491017
2156+166627846+166645372+166655427+166685291+166655371+166575382+166612264
2143+166770185+166839514+166792974+166763601+166769524+166812933+166938161
2129+167064539+167098893+167096855+167156677+167280716+167354309+167349461
2116+167386304+167524153+167714937+167872122+167953544+167996199+168028326
2102+168095788+168255558+168454303+168681460+169010960+169423222+169917604
2089+170531121+171260356+172109481+173083908+174177318+175233583+176045165
2075+176680697+177309627+177899731+178332670+178609668+178908455+179435890
2062+180170540+180970501+181766029+182515658+183273475+184154350+185174695
2048+186238921+187276697+188305437+189340045+190386179+191387376+192271853
2035+193015615+193516355+193676634+193561726+193314082+192965094+192489992
2021+191837632+190944778+190160513+189905511+189863197+189609686+189313200
2008+189185406+189086571+188870281+188623430+188507050+188585454+188558288
1994+187989935+187478876+187988633+189083345+190020514+190770218+191409844
1981+191959690+192531967+193330552+194316241+195317759+196201596+196820356
1967+197671933+199333829+201241632+202804504+204184383+205459069+206600114
1954+207694524+208669555+209388396+209796659+209658735+209035824+209282034
1940+210966511+212436622+212908612+213069589+213394561+213900753+214362555
1927+214314374+213625849+213296443+213613077+213824330+214816453+216746065
1913+217761147+217500373+217190888+217607169+218276979+218501305+218342083
1900+217993925+217236184+216252211+215568799+214611407+213411936+213530183
1886+214506874+214890537+214843355+214788382+214775534+214746972+214498951
1873+213145955+210012779+207607989+209149807+212371518+214124816+214593240
1859+214863333+215330210+215839288+216164374+216130945+215359659+213423576
1846+210829625+210709378+214008191+216576240+217130652+217386219+217200359
1832+214844072+211805957+211445537+212587544+214017718+216262115+217836306
1819+218084214+218014299+217723020+216542773+215433874+215990984+217336830
1805+217583417+216124361+214339106+214452618+215720720+215115901+212506669
1792+212461958+216627799+219974737+220621154+220353249+220067460+220325272
1778+221191866+220318405+216499232+213374451+215414443+220144241+223973545
1765+225101176+223975243+223893915+224983325+225798945+226561912+225251608
1751+221610013+220240378+222885266+226032289+227433712+227507834+228223920
1738+228811987+226108863+224121410+228837399+234844751+239287495+241943456
1724+242782865+242139957+238196254+231910150+231469364+238729971+245889705
1711+249636021+249587009+247335839+246250484+245039317+241718903+241621181
1697+246434288+254477671+263166678+267296901+267866782+265990408+261056035
1684+261415324+271662505+280482664+283849486+284605058+286932104+289270620
1670+291461949+298900757+307491835+311511696+315007877+321753596+327275979
1657+326669197+320418767+321814908+334219820+339568152+342873606+354116268
1643+365782568+371623057+372042620+368665894+369905490+380552691+389300803
1630+392235630+393035063+393891658+395346998+399556663+403430526+403631516
1616+406021968+413464266+418812523+420345173+420876757+421776516+422287009
1603+422605907+423752348+425385888+426767088+428549589+431338361+434464444
1589+437698248+441546945+446248501+451832309+457624050+461324127+462853419
1576+468344372+477625276+483193087+487884494+497311981+508104821+516476911
1562+519372046+516102436+522899317+545500701+565105606+580124938+592802151
1549+604945930+614663678+620236507+623764721+630799681+650275812+671052701
1535+683942638+696259902+711594171+723675393+732058576+740084301+747421444
1522+756792109+771027666+785990289+801835579+818178609+829999340+834583442
1508+835232255+847045515+870997952+887554235+895472201+900309097+908432619
1495+919498590+926471407+929092770+933297529+942148721+951054094+956597531
1481+959970409+963213343+965686274+964877710+962306453+964808587+972079250
1468+976170063+974664693+973393327+974473550+971090409+960492749+955560245
1454+962407194+968550168+968629251+965245431+963551785+962167077+958495072
1441+953948625+947580400+938552932+932100492+928618875+924398193+922201148
1427+923077627+923008203+921136620+918358752+917522796+923564274+933155135
1414+940582529+945494358+948319540+948376966+947462908+949387841+954532542
1400+959393585+961608062+962275741+964698414+970005809+974978837+977301600
1387+977298808+977157168+978703664+981387131+983190648+982954380+983191780
1373+986747952+990851368+992256526+992053385+990154863+985553707+982943211
1360+985105092+988172806+990340724+991455282+991294550+989956401+986187202
1346+981088079+978435250+976645995+972217192+968519379+967899921+967743415
1333+967248164+965771695+964443205+966405869+969387935+970061273+970245247
1319+971862752+974919977+978513654+981928186+985587287+988838824+990375662
1306+991121820+993340372+996918503+999556694+1000418684+1001271468+1004549718
1292+1009588472+1013825227+1016694554+1018486676+1021151957+1026864728
1281+1033597731+1038620487+1042723978+1046677603+1049277006+1051397157
1269+1054090962+1054863456+1053701206+1054228527+1056795332+1058558628
1258+1058679516+1059179067+1061319291+1064351463+1066759422+1067299797
1246+1066809301+1067235127+1069210846+1072081984+1073741823+1072576555
1234+1069884335+1067825006+1067211508+1067732490+1068633419+1068098929
1223+1065701082+1063797051+1062262553+1060139383+1059635153+1060811439
1211+1060263064+1058143819+1057919549+1059219137+1059171295+1057471990
1200+1055950773+1055079350+1053445997+1051879202+1051743749+1051222767
1188+1048346724+1044376044+1041497209+1039321519+1037942319+1038060114
1177+1037736764+1035633139+1032476909+1029822193+1029224392+1029771936
1165+1029131122+1026958450+1023968461+1020714660+1018764599+1018877941
1153+1019032183+1017494817+1014860174+1011936288+1010665375+1012658676
1142+1014843950+1014408389+1012415692+1009916878+1007480772+1006079010
1130+1005712194+1004702527+1003029255+1003240622+1005803502+1008212291
1119+1009159250+1009008555+1007742018+1007329775+1007443419+1005371412
1107+1005550104+1009862848+1012407014+1011817890+1010936657+1011656404
1096+1013658609+1016770845+1022079975+1026599860+1028178050+1030772699
1084+1035346614+1038506843+1041626474+1045700837+1045051344+1039779265
1072+1037779097+1041122017+1044554057+1045586287+1046971448+1049837153
1061+1051946136+1051505293+1050889909+1052545824+1054247015+1054699328
1049+1055614519+1058322057+1061667468+1061356795+1057109853+1054687934
1038+1055636101+1056615810+1055021018+1050175067+1046599275+1047331774
1026+1047510918+1045552858+1046960355+1051665270+1051313094+1045244373
1015+1040509048+1037698882+1036216452+1037786342+1041143826+1043766395
1003+1043709120+1040637030+1037586596+1037585691+1040061036+1043192137
991+1045954536+1047928217+1048863556+1049395103+1050755966+1051396704
980+1051054338+1053009909+1057873669+1063291689+1065413877+1063850025
968+1063803692+1066006699+1067012065+1066540283+1065923918+1065442779
957+1063079342+1059226231+1059087533+1063124770+1067345074+1070260508
945+1069907426+1066785606+1065624112+1065166969+1061361700+1057030845
934+1055400662+1055744312+1057210367+1058992377+1060666705+1062111706
922+1061878985+1060167002+1059554637+1060512764+1061413466+1061390752
910+1062081220+1064731786+1065371393+1062816587+1061795978+1062299906
899+1061366982+1059605120+1058396160+1057365213+1056022385+1053531495
887+1048766664+1044500328+1043553822+1044266324+1044453165+1041906962
876+1035408869+1028396509+1024701564+1023942276+1024565055+1025905166
864+1025969233+1023165330+1019572408+1018133368+1018740527+1019961485
853+1021008958+1020820004+1019148846+1017276735+1016291291+1015190391
841+1013300773+1014095453+1019261962+1024174620+1023881983+1018286780
829+1013256553+1014060967+1016564384+1014385826+1010337346+1010429635
818+1013949813+1015306374+1013957963+1014359717+1015628894+1014799654
806+1013761387+1012298803+1009511351+1008307900+1006675981+1001198573+996633940
793+997988615+1003000656+1004858882+999124982+989943271+984547737+982337788
779+977923021+971689192+967853437+966752839+965507205+963943352+963653884
766+962889842+959109399+953107386+948986238+949837588+952102548+949912219
752+944378441+940639880+938394916+934924694+932645094+932515226+929226487
739+921456952+915468069+914491831+914482625+911328055+905941276+900730094
725+896380977+892672449+889360091+887008199+885773960+883548315+879774362
712+878244014+880900994+883980706+884960416+886133230+888842353+890547393
698+889293685+887074680+884853110+881972162+880332999+881304635+884100010
685+887341812+889363788+891246539+894643263+895411606+892958371+892943052
671+891418364+885853722+888930869+897238440+899333161+900316341+904429642
658+908236949+908658473+907884621+907131144+906501422+906670681+905973648
644+905885661+908567241+911029306+912631191+912227852+905970328+899070405
631+898089866+900210771+900059925+898378353+900117954+900950289+892940411
617+885228076+890742686+903136920+905596419+896560574+889117031+884441773
604+874817181+867480566+869917804
##END=
