##TITLE=Sample description
##JCAMP-DX=4.24
##DATA TYPE=INFRARED SPECTRUM
##DATE=12/9/2023
##SAMPLING PROCEDURE=Instrument type and / or accessory
##ORIGIN=Default
##XUNITS=1/CM
##YUNITS=ABSORBANCE
##RESOLUTION=4
##FIRSTX=4397.6552
##LASTX=599.8556
##DELTAX=-1.9287962
##MAXY=1.853947
##MINY=0.28304586
##XFACTOR=1
##YFACTOR=1.7266227e-009
##NPOINTS=1970
##FIRSTY=0.29924041
##XYDATA=(X++(Y..Y))
4398+173309666+173654651+173668581+172721257+171243364+171138593+171925808
4384+171835329+171171025+170735181+170713001+171266044+172538762+174103942
4371+175170328+175886741+176330767+176221801+175752955+174926507+173833643
4357+172909034+172643930+172776370+172901974+173671998+174726872+174662887
4344+173488364+172462954+172152697+172056919+172214748+172655391+172745439
4330+172689670+173132919+173853285+174157156+173728216+172903769+172610307
4317+173297895+174131714+174163646+173286261+172593029+173473037+174810309
4303+174602234+173702946+173485792+173509197+173082260+172500513+172501790
4290+172654148+172778372+173879797+175480758+176191665+175780434+175133477
4276+175135790+174989352+173729217+172649505+173170702+174066797+173800641
4263+173465615+174072131+174839238+175474699+175962238+175852306+175374865
4249+174966223+174540942+174261616+174640759+175172744+174720209+173487639
4236+172461332+172352021+173012700+173136924+172682490+172987051+173989211
4222+174966965+175605620+175438176+174758131+174479512+174710129+175054769
4209+175204642+175000157+174738972+174654913+174447701+174262876+174655914
4195+175281382+175596403+175757219+175654795+175207058+174920880+174777721
4182+174489316+174308323+174251847+174203604+174301073+174395471+174354115
4168+174412127+174811345+175206230+175021922+174665632+174488971+174144124
4155+173884198+173667096+172964716+172472240+172911278+173365280+173249410
4141+173508386+174017329+173732462+173437739+173763392+173723262+173242696
4128+172963991+173084469+173715270+174511133+174992114+175258874+175467432
4114+175396578+175061345+174680424+174303524+174282570+174606894+174656190
4101+174188760+173344395+172924844+173653961+174763464+175330384+175375590
4087+174956885+174291321+173994717+174221365+174563036+174673882+174643556
4074+174536144+173952809+173160726+173145071+173728078+173749256+173085332
4060+172731147+173026767+173311720+173215234+173127396+173408655+173605010
4047+173273385+173217599+174031517+174547777+173800761+172791007+172792819
4033+173449839+173582002+172880899+172005672+171755137+172462626+173534346
4020+174052333+174054697+174030481+174018709+174081693+174097020+173950254
4006+173992387+173840322+173133247+172761681+173049914+173192243+173007798
3993+173210816+173601317+173398661+173205655+173317019+172933457+172539470
3979+172999893+173777339+174137047+173968827+173608342+173361534+173015790
3966+172850262+173511666+174418082+174661334+174370409+173893053+173307906
3952+172938877+173234998+173840029+173907983+173674173+173854718+173936550
3939+173492610+173427555+174165423+174740767+174532812+174135908+173915526
3925+173869441+173722951+173174603+172983374+173962716+175324412+175601805
3912+174748810+173673258+171980248+169721939+169389054+171241724+173034793
3898+174294290+174026822+171764026+170387728+171570570+171969632+171299788
3885+171934421+172435510+172546857+173125342+171927759+169623399+168453847
3871+168363782+169895890+170839296+169914204+170493482+172559509+172672945
3858+169473889+164228104+163930344+170595147+174619029+174610968+172473845
3844+170061643+168310706+167394762+168699153+171343423+172133797+171846617
3831+172527681+173434719+173513133+171872387+168618823+168287681+170673198
3817+171545508+173399559+175868169+175541100+172663918+170368689+169936591
3804+168795863+169056358+172060699+173555369+174437448+175886241+176469144
3790+176412858+176039082+175423746+175222748+174821062+174201981+175143747
3777+176812507+177122867+176194616+175756977+177135899+179102712+180592222
3763+180752313+179401405+179371216+181161766+181278705+179028803+178738982
3750+183446465+187081969+189342280+195784060+202277778+204552967+205382677
3736+207776653+211336677+215608937+219953760+222526900+223799083+224929592
3723+225658864+226669326+228711948+231031376+233142728+237110048+245792496
3709+256495404+266039978+274917246+285213273+297779103+309360327+318118601
3696+324439903+327010229+324661700+320710709+319841955+319073761+314982856
3682+308740849+301606302+293686611+286977897+284151598+281565583+278856068
3669+280181569+282179331+281726519+280245036+278801301+277673623+278079106
3655+279658076+278755129+275528836+275687840+280963037+286344300+289564171
3642+290860830+291576760+292800182+294438235+295701149+295575976+295171909
3628+297773200+300636229+300477501+297927819+295222758+295025057+295817761
3615+295259005+294726934+295807577+298299265+301074058+302668856+303135821
3601+303853477+305321687+306693653+307310957+307358561+307012178+306416243
3588+306628305+307372749+307407684+307150434+306980867+306891216+307053327
3574+307191825+307293489+307761559+308398573+308871269+308984601+308876447
3561+309079982+309477629+309686999+309633698+309660314+310003901+310026063
3547+309751484+309690761+309545670+309176158+308891256+308859739+308923292
3534+308947664+308982115+309020813+309192555+309434685+309053367+308125720
3520+307616432+307426878+307087123+306839090+306955218+307299358+307367157
3507+307253341+307555952+308282859+308786313+308220618+306720200+305500161
3493+304798074+304050764+303488729+303319024+303478683+304084664+304586322
3480+304356931+303820889+303568610+303370564+302914507+302494111+302190120
3466+301661708+300917402+300731783+301242900+301239897+300461863+299839175
3453+299664154+299525794+299310452+299219006+298841796+298212306+298426302
3439+299423232+299815045+299306586+298811728+298632288+298513916+298363197
3426+297901134+297145471+296861467+297239092+297424504+296971209+296510113
3412+296715996+297052575+296844966+296562792+296648680+296919773+296914422
3399+296210195+295268809+295187616+295782515+295773747+295189273+294862946
3385+295114638+295739916+296105148+296201979+296138840+295619231+295300154
3372+295926260+296621581+296508283+296358186+296579535+296599798+296687896
3358+297294981+297910766+298057687+297777170+297108223+296577084+296762530
3345+297178680+297337028+297530207+297957956+298519957+299161321+299474772
3331+298985886+298071185+297799781+298773306+299742654+299377699+298573257
3318+298064419+297465169+297126692+297257733+297393228+297682720+298181755
3304+298359745+298139329+298015571+298147925+298115302+298194252+298887156
3291+299573640+299728846+299833272+300427998+301496318+302771867+303761513
3277+304139587+304309775+304627644+304910474+304773080+304389208+304473024
3264+304896389+305051837+304966398+304855896+304895250+304901740+304424039
3250+303934532+304241838+304946893+304705972+303380920+302666578+303254124
3237+304034919+304461356+304679667+304049211+302459107+301448783+301730750
3223+302243524+302231545+302004397+301780943+301480715+300968113+300191737
3210+299894892+300189010+299996383+299265091+298552165+297630490+296686308
3196+296501448+296769814+296606116+295809442+294779854+293951662+293426737
3183+293038687+292341813+291639035+291440057+290933289+289575270+288377773
3169+288428743+288988914+288530442+287335430+287052859+287436197+286459479
3156+284333765+283190622+283796102+284387808+283022677+280813509+280575349
3142+282644448+283355252+280788050+278357275+279005786+280814148+280054877
3129+276955915+275204547+276884094+278711719+276596379+273162063+273011086
3115+275376202+275001028+270486379+266849149+267553549+269780789+267941375
3102+262851797+260504027+262747716+264799089+261665882+256707414+256134625
3088+260323845+262614966+258271006+252919535+252191609+254837794+255982906
3075+253096990+249582982+249371679+252229306+253331024+250499582+247807207
3061+248263626+250701184+251007540+248106625+245540286+245383233+246685950
3047+247007599+245665373+244243749+243791576+244000169+243786640+242734200
3034+241447069+240901483+241211843+241067684+240170743+239723248+242121833
3020+253160318+273075347+285869188+279882635+265858485+254886210+248246003
3007+244209314+241342470+239089358+237501550+236289519+235000663+234011534
2993+233955317+235270772+237050948+237164263+235878012+235333099+236562286
2980+238410037+238167234+235911256+234336825+234632531+236284876+236967286
2966+235262090+233286732+233357448+236085639+238371615+236370350+232697218
2953+231318970+232864403+235546111+235332978+232283053+230523952+231570662
2939+234228205+235135674+232653894+229825197+229125371+230979611+233392090
2926+232592758+229399881+227464516+227891437+229492087+229520031+227234348
2912+225136752+225006642+226551023+227479999+226222453+224676933+224632815
2899+225753054+226855981+226362159+224580136+223530285+223796873+224690016
2885+225079344+224277284+223319570+223362652+224271346+225111603+225071456
2872+224422186+223816119+223518013+223717234+224030287+223751288+223050479
2858+222500957+222261019+222151122+221681188+220708785+219927818+219933255
2845+220414321+220613179+220327363+220004368+219940021+220094468+220411922
2831+220787010+220987266+220891591+220773063+220879215+220870447+220478220
2818+220002521+219632301+219329535+219186515+219204552+219232342+219265706
2804+219358412+219408726+219378935+219400355+219467705+219405602+219265137
2791+219304249+219422535+219281102+219010079+218979579+219113935+219141569
2777+219122030+219194161+219283726+219286160+219020141+218456035+218012648
2764+217902716+217928814+217973674+218002913+217987154+217936891+217982822
2750+218196558+218261009+218057421+218021330+218258627+218363985+218124427
2737+217727643+217552397+217675775+217869317+218120439+218408948+218494508
2723+218281946+217982235+217920891+218077599+218122096+218045598+218009385
2710+217927364+217839974+217867919+217861222+217783636+217771812+217765098
2696+217699491+217659257+217677587+217774160+217895829+217915989+217846567
2683+217665919+217419077+217313236+217340266+217383935+217370800+217300066
2669+217304640+217333189+217207965+216942067+216636022+216418039+216309367
2656+216102000+215808451+215627509+215488839+215357435+215303099+215250299
2642+215133929+214924421+214674041+214598682+214743583+214748209+214387811
2629+213931444+213626020+213500588+213429647+213178197+212824685+212640706
2615+212566969+212436048+212376465+212437861+212333625+211951046+211525973
2602+211248200+211050153+210882399+210814306+210754240+210669180+210657478
2588+210618175+210432228+210121730+209795576+209630825+209606039+209504323
2575+209339520+209241653+209155903+209071603+208951090+208665636+208315473
2561+208040100+207838601+207658039+207390019+207100025+206988057+207040736
2548+207130473+207137515+206925988+206606583+206438380+206378330+206208971
2534+205923327+205708503+205632057+205636665+205733566+205794357+205686980
2521+205573889+205528390+205486844+205468410+205426864+205333502+205264754
2507+205259369+205249047+205139374+205043095+205104956+205158964+205088956
2494+205076943+205163262+205234669+205358168+205529167+205624186+205715874
2480+205830000+205864486+205867541+205918581+206007627+206073511+206048707
2467+205999808+206055698+206188759+206299036+206384458+206463373+206546482
2453+206652548+206717551+206676177+206586716+206599178+206856791+207279103
2440+207581955+207682756+207737420+207818561+207889278+207953849+208047573
2426+208147529+208244671+208363872+208477118+208602101+208796471+208956665
2413+208893371+208752785+208902329+209257895+209487597+209611717+209772343
2399+210047320+210677828+212216064+215708064+222657838+234664273+252671226
2386+276008384+302665508+330593054+358417348+385809475+413822909+443849536
2372+475847965+508630813+540075836+567889877+590133792+603481660+608385981
2359+606573701+592326148+566445072+537686710+510962219+494948851+498587807
2345+517505042+527616917+519086585+506708617+497283882+492339758+494752565
2332+500857283+501022328+495134919+491926508+492728568+490549847+481503945
2318+467126559+452363264+446119875+450363707+453542465+445153599+426445181
2305+405005363+388560173+378289502+369623986+359758142+348227318+334584366
2291+320111460+307143737+296025335+286015229+277367922+270429454+264793099
2278+259946635+255683489+251924572+248625941+245750484+243157513+240818477
2264+238833057+237109530+235499197+234042154+232737280+231486500+230375219
2251+229452439+228548319+227602031+226705297+225949668+225453499+225180939
2237+224818262+224304556+223992020+223965508+223941240+223798945+223644291
2224+223532909+223481438+223525798+223586261+223607198+223710295+223930124
2210+224148728+224326304+224534396+224759973+224887528+224979872+225189414
2197+225507334+225839719+226085681+226269626+226493926+226686224+226760272
2183+226858208+227099268+227367340+227560830+227662615+227599942+227416791
2170+227351478+227493100+227640452+227631149+227485471+227234883+226939246
2156+226713651+226567041+226454537+226329744+226138998+225909952+225702291
2143+225711646+226041511+226426938+226733622+227121240+227682533+228268647
2129+228691391+228936058+229090004+229345166+229783098+230218735+230535810
2116+230795667+230945781+231006262+231217875+231488157+231618318+231722623
2102+231931992+232312137+232785747+233228219+233709234+234334443+235032456
2089+235670628+236241639+236867158+237707968+238782466+240036474+241375990
2075+242726035+244270589+246155518+248266664+250507850+252921243+255485304
2062+258208557+261168953+264281999+267596062+271198046+274993520+278856949
2048+282575665+286061211+289446679+292799388+295809925+298312382+300617622
2035+302703515+304270145+305278398+305950659+306434884+306592438+306283855
2021+305670418+305056359+304208732+302775768+301074852+299467108+297958405
2008+296393363+294670388+292919383+291301559+289753605+288216163+286818393
1994+285563695+284326240+283122909+282047668+281046647+280048456+279236852
1981+278747845+278372913+277887963+277366093+277007921+276841599+276764755
1967+276716667+276655583+276602144+276725142+277096415+277586354+278082713
1954+278542014+279009687+279527984+280081217+280669298+281274157+281972947
1940+282847311+283816521+284761393+285566612+286229448+286882550+287611304
1927+288321487+288949681+289529253+289861828+290030014+290562396+291294655
1913+291659161+291711771+291827278+292154571+292555049+292896219+293179567
1900+293458462+293706529+293879410+293965471+293901814+293997403+294604902
1886+295282859+295646606+295960954+296476248+296946492+297098523+297108430
1873+296946734+296283690+295689723+296234049+297391640+298136360+298252316
1859+297903896+297430372+297073875+296800607+296572596+296335851+295620474
1846+294312268+293714227+294133243+294090230+293486803+293170419+293004235
1832+291885308+290094914+289426588+289730062+290018174+290215979+290272317
1819+290275286+290080795+289423533+288500944+287784565+287676584+287862444
1805+287956048+287975897+287574833+286940614+286810988+286511484+285764348
1792+286184122+287770895+288857510+289351626+289487811+289411244+289752052
1778+290276943+289772143+288059507+287181122+289248788+292265176+293746090
1765+293637971+293382964+294187751+295382521+296195386+296729390+296911799
1751+296865541+297166805+298260118+299722598+300519859+300393408+300625596
1738+301318052+301334242+302347087+305338672+307727728+309358704+310627832
1724+311565249+311887709+310884496+309498929+310715412+314258918+317242563
1711+318855036+319006790+318608280+319165863+319569792+318888729+319571933
1697+322238158+326254980+330340810+332609630+333843581+334016979+332959154
1684+334834263+340339145+344057154+345258483+345905129+347599175+349272992
1670+351222804+355529637+359811408+362091447+364704993+369037475+372625651
1657+373368058+371863428+374372272+381313191+384896465+388192628+394666513
1643+400595036+404164191+405619836+405495353+407666444+413712408+418324751
1630+420422278+421980070+423845651+425962924+428907319+431118005+431590873
1616+433428975+437766014+441485576+444077478+446590085+449449109+452357084
1603+455506119+459392280+463625134+467492757+471439502+476094030+481010261
1589+485891729+490897715+496256884+502379450+509067088+514712850+519083927
1576+525206975+532358161+537460598+542836061+550783576+559130706+566270949
1562+570986268+574174104+584138402+599614417+612258402+623372213+634035594
1549+644439999+653438090+660797195+666441577+672662596+686474080+701550342
1535+712333580+722790250+734277094+744092571+752751114+760619404+766823024
1522+774536315+785753757+797747299+809583288+820220640+828605984+834304356
1508+838378104+849064338+866149926+878226318+885234001+889744576+895028283
1495+902556127+909224192+914353452+920136055+927554398+934188978+938709220
1481+943212546+948011233+950177008+950301421+952347616+956756769+961417165
1468+964317062+964485248+963714050+963008511+961273351+957130147+954283343
1454+957497450+961490418+961833004+957897133+952635106+949064605+947796513
1441+948135508+946175340+939513489+933925791+930473006+924995085+919987891
1427+918360988+918605949+919875560+922170650+924780710+927864673+932992552
1414+939560023+944929410+946927413+947006812+948500671+952320275+956480256
1400+959212312+961841496+965629894+970458890+976050662+979151954+978209463
1387+976124260+975186671+975223816+977456562+982466103+986758230+987502708
1373+986444987+986303589+987486898+990010448+993258316+995458819+995470073
1360+993708538+992346273+991823488+990556086+989438988+989299454+988432771
1346+985911362+983014779+981085541+979251651+975444543+970623210+968424226
1333+968386874+967854768+967742921+967480285+966144187+967198525+970392955
1319+972250251+974337871+978334498+981435860+982500624+985066634+990339985
1306+993592341+992287725+989816371+989855656+993058578+995838895+995873968
1292+998019790+1004963608+1011681729+1015629889+1019388598+1023564183
1281+1027453933+1031721067+1036312836+1039915234+1042935610+1047789254
1269+1053242804+1053571098+1049265163+1048027656+1051607271+1054563023
1258+1054127714+1052939503+1054524014+1058738262+1062406250+1064233858
1246+1064975022+1064659087+1063848811+1063471635+1062869521+1062630912
1234+1064575891+1067441475+1069003202+1069641425+1069994368+1068855453
1223+1066452035+1065238279+1064838803+1063503671+1061869173+1061177995
1211+1062472185+1065578103+1068686783+1070445280+1070563204+1068267009
1200+1063285913+1058754556+1057416800+1057426949+1056359147+1055156921
1188+1055166035+1055390214+1054588361+1053175626+1052562189+1052676798
1177+1052269658+1051706346+1050885921+1048619483+1046184100+1045114572
1165+1043807747+1041718332+1041081145+1042106348+1042266111+1039230753
1153+1035016920+1034347006+1035825193+1034918811+1032215890+1029690476
1142+1027921899+1027243287+1026633302+1025710419+1025974918+1027570131
1130+1028804324+1027720435+1023891303+1021255077+1022729190+1024585795
1119+1023306380+1020063069+1017214884+1016040481+1016186436+1018413658
1107+1022147443+1020888326+1014207626+1012189463+1017346961+1023390957
1096+1028142626+1030342715+1028341260+1026102508+1026708764+1028901673
1084+1032299500+1037097290+1041541861+1044455084+1045715581+1044000926
1072+1040220400+1038932078+1041622226+1045950393+1050892825+1055334704
1061+1055750060+1051136543+1045236569+1040765554+1037842804+1038279356
1049+1044501411+1053899806+1058924330+1056645188+1052009992+1048310452
1038+1045534553+1045069833+1046934516+1047196115+1042986632+1036586035
1026+1033020988+1034833959+1037792680+1035808209+1030719960+1028100925
1015+1027577795+1027699308+1031332983+1037555521+1039818369+1036341695
1003+1032375653+1032405203+1034698775+1036419368+1039972470+1044788418
991+1044586816+1040123189+1037619177+1038497528+1042568859+1049263437
980+1053439849+1052581383+1049954960+1047814247+1049476914+1055814269
968+1060795434+1061632843+1061334582+1061605847+1062803379+1065343844
957+1067423179+1066998916+1066960736+1068780887+1067652260+1064265479
945+1066085975+1072156897+1073741823+1069667523+1066667791+1068153987
934+1071010319+1070089024+1065648940+1063388992+1064393137+1065353303
922+1066832387+1068015144+1065076652+1062841835+1067580870+1072902826
910+1070694314+1063685941+1058522161+1060174471+1067608280+1073290634
899+1072471107+1069469787+1070170010+1072156967+1071343791+1067463016
887+1061492205+1058116816+1059364472+1063075611+1067816717+1068869882
876+1062297647+1053267728+1049397516+1051264823+1053499571+1051107614
864+1045026060+1041407091+1040980136+1039394313+1037011885+1036543712
853+1037321952+1037206307+1036548959+1035851222+1035182482+1036094387
841+1035737786+1031224449+1028265590+1031644707+1035835895+1034255388
829+1030638076+1028474027+1026116040+1024776213+1024754879+1024938530
818+1026625983+1031148917+1035636294+1033736883+1027085940+1023787395
806+1025652493+1027930392+1026891656+1024408013+1021939351+1018744092
795+1016255478+1015271009+1015576658+1015655780+1013431319+1011020515
783+1009382565+1005753793+999765514+994733810+992726141+989897840+984642717
770+982369720+985197331+988827001+988207281+985324092+986119523+986334312
756+977873851+966703219+963261274+966778751+968959093+966032477+961567676
743+957820290+953889183+950855275+949813295+949588978+948539610+944793812
729+939643080+938078246+938735248+936255747+931803512+926425080+920872248
716+918799473+920210551+922699649+923353821+922215458+922572267+925170727
702+929778721+935277838+939029643+939676911+937754439+936372221+937825967
689+938467159+935421238+933974603+936911783+939654127+939334877+936768107
675+935428349+940507001+951626473+957538668+946184039+935280876+935481166
662+940221858+943156069+941195832+937431185+937969298+939708463+935450995
648+929569800+928475072+931805860+933321743+926812267+919001628+918789462
635+921977126+924780848+936266794+949638343+943175539+927799014+914868642
621+900843888+900338639+917534349+931032590+934323886+939555949+942718137
608+934248423+922240797+917310516+923702690+938525775
##END=
