##TITLE=Sample description
##JCAMP-DX=4.24
##DATA TYPE=INFRARED SPECTRUM
##DATE=12/9/2023
##SAMPLING PROCEDURE=Instrument type and / or accessory
##ORIGIN=Default
##XUNITS=1/CM
##YUNITS=ABSORBANCE
##RESOLUTION=4
##FIRSTX=4397.6552
##LASTX=599.8556
##DELTAX=-1.9287962
##MAXY=1.8667961
##MINY=0.27172199
##XFACTOR=1
##YFACTOR=1.7385894e-009
##NPOINTS=1970
##FIRSTY=0.29573968
##XYDATA=(X++(Y..Y))
4398+170103236+170041149+169878903+169799417+169677986+169603162+170094494
4384+170838082+171083105+170730758+170036264+169497312+169290515+169227571
4371+169886428+171228227+171939794+171997322+172124993+171903231+170926842
4357+169875440+169629715+170165220+170718930+170403267+169263809+168220995
4344+167825468+168718326+170607784+171488283+170689892+169596563+169299395
4330+169755414+170521836+171245951+171325248+170643216+170456817+171485300
4317+172362491+171855680+170643576+169776259+169425814+169521619+170078398
4303+170833385+171448377+171955959+172371473+172303661+172014103+172317391
4290+172804112+172767805+172580413+172441428+172143660+171776709+171581122
4276+171997236+172757212+172631032+171778731+171491625+171708588+171676584
4263+171307952+170859492+170695464+170917105+171037817+170922831+171039548
4249+171481186+171734163+171182475+170121800+169385857+168944202+168592249
4236+168612545+169178357+170004997+170602744+171018447+171490168+171929698
4222+172467226+173006726+172948496+172419213+171877759+171270926+171142193
4209+172076636+172998361+172472403+170961588+170185327+170678013+171555890
4195+172047633+171901157+171738345+172355326+172756406+171792942+170538874
4182+170242358+170471405+170678030+171143581+171651831+171572980+171288634
4168+171461062+171623119+171157106+170794097+171382793+172102160+171892089
4155+171256596+170822792+170599470+170725924+170907986+171082574+171565952
4141+172129981+172660070+172586138+171531600+170567930+170224205+170093140
4128+169990170+170046291+170717765+171841555+172113251+171088248+170018025
4114+169738050+170025087+170272801+170029441+169767105+169915209+170078089
4101+170032818+170017905+170136508+170206686+170285418+170532601+170697760
4087+170666631+170663323+170830146+171328505+171837664+171418602+170389570
4074+170167637+170401055+169982096+169740398+170106853+169957155+169401696
4060+169338803+169724765+170129120+170165632+169930225+169897810+169835586
4047+169298812+168871127+169395354+170466811+171024704+170769790+170090380
4033+169737364+170185876+170874491+171024584+170492678+169894690+169715714
4020+169655050+169740895+170105910+170203840+169762957+169396914+169834643
4006+170706588+170970519+170465628+169792269+169234633+168847643+169068034
3993+170057673+170781498+170483798+169960634+169901153+170164963+170313067
3979+170121766+170011151+170001055+169960737+170175351+170249797+169894125
3966+169746861+170220759+170789434+170619834+169874206+169544863+169851459
3952+170170054+170535395+171015310+170689070+169806668+169592826+169659010
3939+169370275+169007095+168553835+168176564+168526734+169254981+169313759
3925+169128681+169523813+169493027+168759963+168828856+169940990+170636205
3912+170313273+169404216+167843278+165775548+164725003+165465421+167475658
3898+169874258+170397970+168155205+166365615+167518718+167897480+166757885
3885+166976819+166757371+166165795+167309504+167097822+165293284+164049553
3871+163287434+164235403+165128278+164447805+165571219+168182221+168431855
3858+164820208+158190394+156288766+163622520+169125098+170025910+168320691
3844+165854056+163556319+161403514+161148394+163373074+165003161+165883677
3831+167219425+167867654+167487486+165564568+161567388+160966367+164319260
3817+166172994+168801635+171497385+170563833+166825800+164430235+164474101
3804+163013905+163116772+167235109+169468411+170613595+172821596+174065138
3790+173709860+172378415+170982072+170611521+170300297+169846231+171285788
3777+173320007+173420457+171764452+170544737+171662631+173596399+175213099
3763+175658114+174198175+173872792+175804606+175752701+171847092+169638783
3750+174854666+179873267+182972858+190391806+197389223+199205589+198664015
3736+199049823+202009006+207779097+213692630+216994184+218415519+219317943
3723+219862328+221084923+223469740+225823068+226988051+229032726+237236591
3709+249964571+261478784+270456441+279684196+292581158+305621477+314447550
3696+319536329+320747285+317363896+313444385+314105368+315056079+311736938
3682+304939992+296448936+286829511+278485530+276458939+275987561+273634489
3669+274298283+276619145+276812983+275575698+274208598+272637770+271894782
3655+272893249+271866378+267943953+267951529+274234294+279733152+282364055
3642+284208465+286336826+287819957+288302015+288139546+286793051+285548017
3628+288881472+293275293+293328329+289346628+284937637+284617825+286276915
3615+286300417+286636119+288697028+291313875+294395672+297119346+298000668
3601+297911908+298529111+299554937+300485867+301533189+301769332+300433276
3588+299573656+300427654+300797023+300408490+300469480+300685019+300543463
3574+300614258+300889245+300618612+300119584+300688584+301784280+302388764
3561+302924304+303529267+303757560+303547369+303510857+303894453+304036798
3547+303876249+303678126+303350240+302922864+302578419+302661556+303176012
3534+303538044+303283353+302935514+303366833+303936999+303572396+302734305
3520+302247825+302151077+302150460+301982198+301951274+302214021+301785891
3507+300614635+300195007+300861030+301047942+300070216+299135721+298991662
3493+299239668+299572628+299690151+299276728+298656782+298682838+299351603
3480+299438888+298679375+298011810+297896961+298171810+298308841+297848759
3466+297057293+296392162+296068562+296135175+296057454+295305861+294417854
3453+294153701+294235192+294052976+293686042+293329255+293085946+293371492
3439+294070769+294247705+293458229+292599020+292767797+293627588+293941898
3426+293287601+292305040+291676387+291636755+292037047+292221595+291825142
3412+291424816+291252919+290895481+290591045+290961648+291534179+291133236
3399+290147007+289971133+290439170+290797362+291168170+291400132+291071800
3385+290506982+290305670+290484424+290647612+290688649+290814126+290991611
3372+291171839+291454642+291634321+291767306+292090152+292088301+291823394
3358+292214395+292947441+293026464+292410907+291799909+291826822+292343163
3345+292971474+293711994+294458651+294985003+295041296+294639564+294442846
3331+294748756+294903169+294758767+294764081+294736003+294492557+294342293
3318+294259190+293739729+292897628+292402165+292220223+292196431+292630938
3304+293176214+292639063+291109889+290528306+291711047+293422471+294546725
3291+295216107+295517629+295317311+295605668+297002372+298508336+299264969
3277+299410639+299425003+300010494+301304930+302038251+301502505+300917049
3264+301072866+300892639+299937059+299533167+300172620+300738775+300530024
3250+300073473+299814359+299456201+299008838+298995433+299087553+298593975
3237+298176747+298607826+299313720+299318485+298628807+297981949+297462180
3223+296908092+296682199+297196998+297787563+297320624+296079121+295117645
3210+294833573+294554541+294015264+294002614+294289291+293966753+293306765
3196+293114298+292963143+291981680+290525666+289541906+289380706+289506389
3183+288982745+287617754+286508431+286021659+285244901+284142915+283501062
3169+283853495+284637383+284294122+282494863+281190245+281408202+281557540
3156+280796176+280255784+280820191+281012915+278975062+276364420+276260782
3142+278313291+278642514+276156954+274286319+275389265+277498667+276627905
3129+273163796+271664175+273896757+275577566+272866868+268855135+268190913
3115+270782047+271309754+267121598+263113979+263738519+266234791+264106602
3102+258417419+255888200+258087991+260271942+257743854+253309819+252598268
3088+256207790+258488797+254928987+249873223+248468961+250203217+250693692
3075+247803795+245270805+246142631+248953350+249346065+246278290+243807233
3061+244495419+246999783+247411114+244917516+242949395+243023721+243785617
3047+243424648+242022133+240997027+240834747+241087347+240833307+239684953
3034+238374849+237623856+237528239+237562163+237159505+236694434+238765628
3020+249605110+269508318+282350411+276226618+261945449+251046536+244712810
3007+240674027+237700993+235652855+234317554+233107935+231601885+230360228
2993+230397066+232145893+234067577+233843655+232260296+231775633+233300281
2980+235405278+235155815+232694529+231047523+231529376+233299304+233758015
2966+231715551+229425990+229225912+232079726+234779933+232765941+228604321
2953+226979205+228705303+231540706+231457243+228528761+226587501+227335152
2939+229800964+230610839+228174700+225609518+225467653+227820467+230250573
2926+229277715+225998153+223933662+224409412+226379898+226387509+223415933
2912+220865544+220968377+223060483+224461214+223180029+220950704+220102122
2899+220987490+222504939+222641129+221226650+220055377+220073256+221127708
2885+221918385+221294943+220221154+220007380+220770082+221607349+221438590
2872+220626263+220241964+220456801+220892302+221052234+220652370+220074524
2858+219759666+219701436+219574159+218983269+218092039+217322464+216885008
2845+216937925+217127769+217054694+216946170+217007554+217184833+217376923
2831+217464020+217354862+217158469+217226453+217561213+217675805+217420908
2818+217107936+216804511+216425252+216142448+216017880+215912082+215912750
2804+216211187+216676257+216913326+216805317+216648282+216631260+216732996
2791+216893956+216880414+216626015+216481631+216523285+216483602+216370107
2777+216305500+216242350+216103914+215876187+215525623+215091184+214903157
2764+215030194+215018469+214812821+214791239+214943029+215042313+215164653
2750+215386398+215494048+215403728+215323128+215304547+215198954+215095932
2737+215181332+215302215+215225626+214989191+214830888+214880033+214966701
2723+214961868+214935246+214980655+215129427+215268018+215348001+215407311
2710+215393049+215298993+215159460+215060398+215052907+215023320+214989551
2696+214972787+214791856+214593013+214730626+215041919+215187606+215143741
2683+214986414+214826757+214716759+214628274+214564387+214481832+214394890
2669+214345779+214282817+214161797+214023070+213935544+213858493+213741141
2656+213530692+213152136+212829084+212812491+212916198+212915135+212866521
2642+212807451+212666992+212508603+212424695+212295790+212027042+211695197
2629+211384367+211183998+211037814+210790168+210579154+210549054+210495280
2615+210218545+209800443+209518394+209518342+209609536+209571584+209382374
2602+209102880+208782399+208470678+208295061+208318957+208326105+208165282
2588+208024514+207970364+207831174+207603704+207365297+207108121+206895427
2575+206809187+206743518+206496900+206173386+206090094+206163666+206015562
2561+205616693+205255244+205029608+204815920+204636841+204607666+204603020
2548+204461413+204301053+204275289+204315040+204268398+204116060+203921845
2534+203712442+203549768+203498240+203518210+203482178+203286969+203047345
2521+202970534+203078989+203249497+203263536+203032226+202818024+202779507
2507+202757857+202672800+202564207+202435388+202291021+202224871+202333858
2494+202546277+202763205+202951935+203069989+203167731+203319932+203485778
2480+203669416+203875219+203962590+203910685+203811692+203654743+203504616
2467+203461762+203508113+203633350+203807167+203935421+204010930+204089353
2453+204164331+204255764+204395160+204521272+204629693+204795470+204978183
2440+205114442+205286887+205525019+205696367+205730359+205745187+205845311
2426+205938528+206000958+206152576+206345008+206448664+206526761+206657244
2413+206720908+206725262+206834043+207006968+207194515+207391095+207488769
2399+207641312+208257710+209815047+213332209+220387771+232397944+250054822
2386+272892135+299204767+326742069+353999070+381028155+408939830+438721628
2372+469994167+501007079+529989012+556127519+577331934+590840322+598221045
2359+599142787+585830773+558734115+528928217+502864687+487787082+491681600
2345+510356659+520672686+512766401+499996406+489799891+485047603+488149182
2332+494592461+495146000+490032812+486918856+487145126+484893088+475934132
2318+461560432+447357497+441579075+445509111+448445685+440487837+422102746
2305+400742342+384647790+374679018+365910609+356126556+345068569+331750144
2291+317328105+304235881+292971268+283118683+274768805+267926502+262331033
2278+257635502+253506400+249736227+246308905+243354230+240846369+238627603
2264+236707822+235089700+233562257+232032963+230573196+229231518+228074181
2251+227069302+226144560+225300213+224566310+223990333+223557591+223197805
2237+222832482+222451679+222152403+221999739+221897421+221721016+221503488
2224+221327975+221282121+221404581+221561855+221639027+221696898+221818226
2210+221984980+222183721+222434658+222699154+222932709+223182634+223496687
2197+223817253+224114524+224359136+224459037+224555099+224835571+225090965
2183+225185433+225347370+225573246+225650400+225608232+225548545+225487623
2170+225503256+225626094+225720716+225723184+225648155+225440141+225179622
2156+225016107+224861987+224616158+224353650+224108713+223846754+223666749
2143+223810534+224235133+224653561+225073618+225538911+225909154+226214293
2129+226586284+227007043+227386971+227687653+227895222+228039366+228236701
2116+228589065+228962016+229198023+229405574+229632119+229831048+230035256
2102+230284239+230566099+230854868+231266542+231844834+232432313+232971401
2089+233566200+234230937+234886468+235636622+236683961+238031245+239363444
2075+240591816+242126698+244045845+246021987+248022660+250323792+252947873
2062+255696402+258643501+261884664+265328991+268837154+272385239+276024244
2048+279672539+283285043+286831688+290173885+293082621+295579133+297914480
2035+299954201+301517110+302682160+303475820+303837235+303810254+303522994
2021+302972780+302181761+301174414+299955058+298566103+296979607+295316557
2008+293719982+292096529+290403892+288773274+287224695+285730730+284343764
1994+282957449+281576430+280430698+279518521+278705526+277938608+277182558
1981+276414834+275709608+275173400+274792718+274525273+274284947+273984299
1967+273781188+273875673+274178223+274527759+274870078+275159189+275464225
1954+275934850+276549430+277148531+277607328+277897588+278189991+278932979
1940+280147638+281248921+282111079+282960654+283770495+284478772+285148599
1927+285706938+286066296+286447184+286743803+286808341+287340282+288368422
1913+288961112+289004069+289094817+289486813+289950632+290380134+290802642
1900+291125282+291241468+291284185+291373391+291152812+290890887+291456322
1886+292451636+293182351+293814878+294414117+294692292+294655266+294570689
1873+294134433+292893616+291925866+292846271+294672167+295746127+295897831
1859+295588218+295195468+294867857+294583099+294325803+293938675+292799132
1846+290893081+290181839+291202077+291684786+291236909+290947866+290594027
1832+288808140+286359418+285807285+286538223+287077586+287554587+287835007
1819+287928498+287859966+287274423+286153461+285184888+285101614+285416935
1805+285444927+285124944+284342050+283689861+283720133+283129071+281579173
1792+281679486+284057464+286046806+286920071+287087202+286833780+286955948
1778+287422870+286684081+284056967+282075458+284185426+288198959+290658857
1765+290920405+290387642+291049584+292382041+293249409+293957874+293949749
1751+292922037+292494593+293796297+295644203+296540061+296343069+296697250
1738+297486281+296619667+296417155+299957527+303737059+306335873+307972559
1724+308817506+308777395+306745730+303719197+304501577+309362474+313611414
1711+315775549+315810313+314794875+314754969+314434762+312437072+312380779
1697+315528847+320728909+326290386+329265494+330343465+329562765+326436913
1684+327129608+334264038+339710598+341292568+341497891+343050103+344597002
1670+346099435+350935339+356229921+358603322+360982688+365655815+369497915
1657+369352656+365437568+366335757+374566603+378550395+381354567+389099515
1643+396986705+401164713+401781744+399862391+401133960+408766802+415080730
1630+417570386+418714764+419931377+421486366+424568129+426936182+426712278
1616+428351227+433702993+437957109+440437611+443006119+446155112+449336194
1603+452679985+456482487+460416809+464328057+468797542+473908159+478940644
1589+483773703+488635046+493829520+499875386+506328196+510967931+513595303
1576+519294291+527816751+533211302+537868797+546154633+555334717+562577826
1562+566333874+566765604+574324154+591414774+606416202+619044675+630489070
1549+641193081+649528321+654524088+657127771+662095015+678196801+696068567
1535+707374457+717225019+728847070+738693519+746329515+753525519+759966741
1522+767932542+779659500+792063212+804058677+815361070+824515749+829890416
1508+832171767+841491417+858607236+870468585+877208140+881604841+886834147
1495+894403359+899917971+902558130+907793813+917079318+924579552+929641966
1481+935430982+941332447+944775934+945482033+945391388+948280102+954571711
1468+958980480+959063788+958614334+959977576+959550955+954315204+950353353
1454+953721622+958286791+959069617+955265675+951266386+948909064+945346066
1441+940319031+934599680+927732659+923071153+921402652+918346704+914914805
1427+913585229+913094634+913714682+914835473+916371915+922873681+932343219
1414+937296750+937580547+938750843+941859656+944438380+947466627+951850712
1400+955024937+956880968+959658879+963420241+967155204+970264977+972767866
1387+974332764+975888336+978140065+979411017+979434261+979080869+980104432
1373+984615022+989155370+989624983+988580507+988496718+988245216+987994125
1360+987283774+986184376+987309212+989826158+989889788+986942038+983660848
1346+981219120+979027387+976566117+973194831+969375530+965424102+961063741
1333+958073206+957994080+959675815+961698531+963344337+964572435+966791252
1319+969483454+971037107+972713973+975308330+977669492+980148383+984222272
1306+988450367+990223022+990119349+989625943+989581443+990527938+993375923
1292+998546536+1002609865+1004070815+1007157824+1013001830+1018743603
1281+1023387144+1027398980+1031271832+1035037719+1037033695+1037237475
1269+1038789962+1041926681+1043728750+1044187187+1045706625+1048105910
1258+1049573785+1051479870+1055312473+1059355438+1062332809+1063923898
1246+1063780045+1062868657+1062654318+1063567557+1064195971+1063010796
1234+1060728486+1059417902+1060630641+1063061604+1064112937+1064630204
1223+1065202667+1062823403+1058306299+1056834859+1059556133+1063026429
1211+1063972786+1062634022+1061378566+1060408416+1059619694+1060338136
1200+1060855951+1057630095+1052775849+1051206495+1052219362+1052062001
1188+1049464215+1045417616+1042782462+1044039357+1047444378+1048682213
1177+1046585238+1043822207+1042218432+1041305193+1040364869+1038953699
1165+1037428433+1036001424+1033378268+1030575057+1030709585+1033295508
1153+1034613497+1033316353+1031465807+1029527838+1026788600+1025145948
1142+1025423231+1025490084+1024800509+1024314577+1023976749+1023114180
1130+1021588983+1021149745+1022292066+1022306259+1020372953+1019704154
1119+1022367626+1024896365+1024036813+1021096949+1017788812+1014748292
1107+1011468542+1009409074+1010117984+1011155398+1012661671+1016767375
1096+1021707055+1024781927+1023563155+1017889125+1014794986+1018409752
1084+1023141470+1026841327+1030934826+1032601202+1032987370+1035439725
1072+1037769072+1038080228+1038200014+1039513477+1043158756+1049695079
1061+1055250214+1055302873+1050482431+1046033551+1046867733+1049202908
1049+1045280414+1038274272+1036064436+1038120202+1038341810+1036336372
1038+1036531992+1037442146+1037448112+1040749803+1046095672+1045686192
1026+1040787377+1040078124+1041499579+1038243211+1033537274+1031981085
1015+1031780665+1032793463+1036836566+1038083519+1032549366+1028160139
1003+1029854284+1033198418+1034667733+1036622775+1040116658+1041609972
991+1040136748+1039186277+1039697441+1039100911+1037818440+1038680186
980+1041834939+1045309692+1047558953+1048298376+1048230152+1048339105
968+1048688795+1050425246+1054487753+1058462357+1061507197+1063990545
957+1065075407+1066142167+1068376207+1070692457+1072392088+1073741823
945+1072609376+1068318199+1064978865+1063288697+1062555239+1063966410
934+1064401808+1061483268+1059550442+1060965658+1061869161+1062048874
922+1064541821+1066481847+1066171857+1067333513+1069505911+1067531397
910+1061222029+1056291536+1055788257+1058452072+1061291418+1061969954
899+1061024831+1059197529+1059727824+1066549316+1072339566+1069041715
887+1063005791+1059999073+1058213049+1056869416+1057398614+1056914190
876+1049910653+1041570546+1039978085+1041000208+1038202757+1034237752
864+1034436115+1038526528+1041633353+1041386924+1037757896+1031705310
853+1028152528+1029191519+1030988788+1032341129+1034551924+1036415086
841+1035966729+1033280698+1028953318+1025070387+1025817421+1029164778
829+1029931764+1029618209+1028982527+1026420808+1024913164+1024858105
818+1021982967+1018286744+1019010739+1021541878+1021083373+1020524006
806+1022529924+1023285803+1020834887+1017367607+1017277442+1022018348
795+1023635904+1018844054+1014211483+1010153913+1004341379+1001272747
783+1003469897+1005101852+1001694706+997074341+995330004+994537991+991709204
770+987216236+983391792+982055771+980255759+975430173+972190878+972542968
756+972453900+970620838+968333797+965362940+961070049+955937971+952179352
743+952091175+954862160+957502731+956769959+950132019+941476848+937566011
729+937055258+934923109+930424998+926009715+924735198+925409208+923239759
716+918050907+915575650+918464776+921427816+921369534+921900789+923778761
702+923647251+923131972+926176127+929268964+928736338+928502525+930115556
689+931124583+933680680+936896732+934044015+927881311+925571711+927755560
675+932989940+939884662+946641290+950914571+948521251+943642732+940620245
662+936823297+935027604+937529602+936387281+930619247+929312572+934109291
648+939719073+945081261+947304673+937307652+920961837+913758702+919772822
635+934696839+947209708+933791964+897644986+882287834+903545148+931228325
621+940492437+934803940+920603507+912716215+916665449+919467906+918455314
608+923494073+932845401+940634507+947052622+950281083
##END=
