##TITLE=Sample description
##JCAMP-DX=4.24
##DATA TYPE=INFRARED SPECTRUM
##DATE=12/9/2023
##SAMPLING PROCEDURE=Instrument type and / or accessory
##ORIGIN=Default
##XUNITS=1/CM
##YUNITS=ABSORBANCE
##RESOLUTION=4
##FIRSTX=4397.6552
##LASTX=599.8556
##DELTAX=-1.9287962
##MAXY=1.9486895
##MINY=0.32181031
##XFACTOR=1
##YFACTOR=1.8148585e-009
##NPOINTS=1970
##FIRSTY=0.32578054
##XYDATA=(X++(Y..Y))
4398+179507407+179841120+179389929+178270161+177664215+178265037+178810553
4384+178898620+179111506+179052783+178584875+178179466+178130449+178250603
4371+177861468+177319779+177606199+178393288+179103509+179538032+179442986
4357+178927292+177995433+177350831+178126918+179544716+180044399+179510592
4344+179206700+180046403+181063423+180716671+179442198+179321354+180501618
4330+181122917+180910475+180531504+179776995+178824478+178426393+178701450
4317+179128009+179341897+179100421+178438298+178390250+179354278+180048341
4303+180000670+180273542+181705150+183362946+183098596+181147746+180067849
4290+180882082+182445767+183124558+182515246+181518013+180771436+180469875
4276+180654237+180735966+180254198+179982343+180479170+180606779+179753447
4263+179497488+180480303+180945173+180221733+179569660+179481543+179490181
4249+179615377+180328718+181658235+182914562+183272119+182413647+180798038
4236+179600483+179585424+180280620+180862262+180974288+180986374+181295587
4222+181576079+181842235+182450874+183103883+183277407+182715454+181982654
4209+182044661+182518316+182276825+181369351+180851112+181457041+182504736
4195+182560109+181787224+181566243+182156506+182806444+182854132+182420281
4182+182220960+182164717+182059785+182343298+182537464+182228037+182082003
4168+182281209+182930655+184151398+184825886+183967085+182281538+181331123
4155+181646526+182051902+181715102+181317247+181425808+181755465+181955329
4141+182064580+182412908+182991102+183047854+182356862+182047173+182406553
4128+182192042+181372209+181350976+182303493+182915662+182768134+182632510
4114+182588829+182458444+182548844+182758100+182870652+182982908+182920655
4101+182564148+182398195+182482896+182468412+182757542+183241986+183154707
4087+182829828+182923594+183311531+183476088+183185579+182742910+182599618
4074+183125461+183924882+184085630+183749125+183539524+183410009+183341976
4060+183425429+183274205+182676503+182185917+182279288+182539861+182558368
4047+182773241+183353191+183762623+183617361+182906401+182239532+182416685
4033+183261347+183831297+183692160+182971889+181898117+181483824+182292047
4020+182941969+182598387+182392102+183161325+184207345+184616662+184578253
4006+184521960+184403251+184516689+185197598+185680138+184963135+183816387
3993+183684967+184108062+184024395+183718811+183650565+183630744+183398169
3979+182923479+182422055+182287252+182631229+183130486+183435462+183218143
3966+182794703+183253087+184444649+184697241+183683391+182825050+182993368
3952+183633388+183808702+183805746+183985575+183793840+183795630+184409573
3939+184546724+183907591+183429156+183754084+184365695+184473600+183811033
3925+183065655+183260296+183766844+183868262+184230039+184937846+184934677
3912+184121067+183059349+181442722+179678057+179501101+180920377+182910867
3898+184778789+184631408+182200860+180995866+182720890+183545534+183011760
3885+183163575+183092126+183526912+184471498+183033584+180531471+179284307
3871+179414167+181426974+182841356+182918060+184218199+185510719+184693218
3858+182012163+178311313+178419857+183572547+185966230+184961739+182679147
3844+180843919+179918563+179555012+181119337+183750899+184182319+183512626
3831+184003934+184617352+184106026+182189053+179551186+179817474+181905704
3817+182807873+184714714+186072837+184532536+181454611+180227563+181281087
3804+181268016+182162451+184701921+185262380+185258965+185723260+185461603
3790+184857891+184347796+184279927+184980492+184916416+184068454+184768543
3777+186067221+185692799+184019765+183107923+183980862+185247716+186275902
3763+186255425+184873590+184397093+184956320+183792954+180650854+179526767
3750+182822997+184373496+183214645+184738262+187007307+185968200+183427925
3736+182695010+184633412+187362844+188711623+188143841+187470059+188158948
3723+189542951+191428001+193591999+194908100+194704279+194366328+197032407
3709+201764893+205485875+207834744+211027175+217575724+224788120+229213100
3696+230972395+230504273+228151594+226530008+227730388+228653873+227288935
3682+224563953+221372441+217692578+215514293+216760324+217169379+216857177
3669+218730600+220207958+220331184+220525021+220759878+220424227+220704785
3655+222076012+221785453+220310936+222643466+228247051+231572429+232427699
3642+232819725+233391071+233777234+234007822+233672926+232224830+231873809
3628+235460695+238449601+238206927+236633028+236006703+237647864+239494898
3615+240248504+241139195+242083977+242523083+243110670+243670751+243602832
3601+243487177+244003791+244797744+245719520+246882969+247453658+247135249
3588+247574289+249334225+250748886+251279967+251305634+251238175+251228453
3574+251359397+251574762+251207713+250930013+252873703+255458299+256132689
3561+255846614+256010153+256246833+256133083+256204499+256495928+256425842
3547+256490607+257292049+258022911+258212905+258477567+258981865+258943029
3534+258301416+257953236+257839666+257749677+258327887+259024232+258815304
3520+258269329+258186566+258439749+258375739+257917667+257729922+257673203
3507+257196411+256605852+256400520+256502234+256542811+256456763+256206224
3493+255814017+255552902+255392844+255175820+254871140+254599876+254428307
3480+254043014+253438957+252910437+252745994+253131731+253520554+253433275
3466+253206333+252899993+252290074+251851707+251992750+252320979+252524750
3453+252482580+251809833+250786343+250412085+250576085+250491384+250482730
3439+251059922+251602908+251245630+250429311+250164682+250368487+250509135
3426+250397766+250171694+250539531+251619362+252228412+251884665+251465873
3412+251468451+251457350+251165560+250992594+251258209+251665736+251638296
3399+251318130+251469288+251892481+252036512+252038664+251878523+251583745
3385+251475857+251684062+252072902+252386516+252649519+252991345+253333433
3372+253716115+254219231+254606281+254793073+255056257+255382203+255617849
3358+255790108+255977048+256430210+257170022+257603347+257293871+256746435
3345+256776814+257413862+257965092+258072208+258199686+258512709+258645229
3331+258935475+259632543+260018870+259863032+259801764+260130059+260346984
3318+259996012+259402792+258830510+258266702+258073702+258411324+258832349
3304+258672390+258034702+257988525+258858476+259894824+260702718+261727801
3291+263177949+264433833+265243797+265953755+266735195+267408205+268049473
3277+269319824+270850240+271397824+271037574+270706718+270746753+271010167
3264+271570297+272127094+271931467+271504727+271611679+271689959+271386116
3250+270989656+270519383+269904636+269499638+269672505+269876868+269447451
3237+268845233+268795920+269106200+269150603+268826397+268400298+268002607
3223+267676217+267498867+267491248+267547458+267619400+267690668+267406793
3210+266659017+266342759+266699462+266504591+265534076+264864071+264774312
3196+264746987+264507154+264176840+264072433+264267338+264034599+262937229
3183+261916892+261738738+261976846+261835508+261081344+260101124+259186836
3169+258684788+258719338+258557851+257883708+257419659+257607436+258052814
3156+258219014+257911854+257240568+256513811+256117335+256260315+256540479
3142+256239559+255489319+255011345+254758063+254294030+253693109+253060676
3129+252447061+252075300+251908459+251751554+251592333+251388052+250800186
3115+249585536+248383087+248018321+247948793+247215188+246043365+244794230
3102+243538658+242580410+241787967+240979941+240299853+239684597+239096140
3088+238538637+237907057+237337961+237234113+237517791+237497806+236935393
3075+236282154+235918866+235857155+235988246+236139322+236084770+235716802
3061+235145751+234953934+235314973+235475787+235458167+235792291+236021006
3047+235847532+235643793+235418328+235147213+234995332+234802448+234341584
3034+233711581+233204738+232953821+232951998+233131105+233218138+233023776
3020+232608727+232238132+232135860+232070290+231845811+231595928+231350774
3007+231225463+231362647+231422437+231089331+230626973+230430837+230592455
2993+230920471+231294384+231830506+232556409+233303085+233788745+233786118
2980+233537352+233466280+233516004+233456854+233245135+233006188+232981031
2966+233058195+232952212+232657285+232242336+231841837+231535448+231324615
2953+231224215+231044649+230810038+230881158+231204280+231296354+230996518
2939+230831057+231136608+231318720+231028490+230806458+230893523+230838840
2926+230485914+230179821+229845730+229239324+228637517+228186670+227657084
2912+227116757+226996554+227294222+227493593+227513414+227680648+227928577
2899+228000469+227997957+228060785+228147440+228233438+228266199+228350473
2885+228750922+229354898+229658560+229550984+229467597+229486629+229303811
2872+229064618+229119268+229324173+229377904+229259835+229123948+229178976
2858+229332006+229327113+229174313+228791532+228092215+227456695+227248276
2845+227380319+227743148+228171316+228304247+228223487+228301209+228509234
2831+228701232+228944776+229140485+229057344+228868942+228846002+228888122
2818+228847135+228794094+228864771+229010871+229046128+228979129+229041464
2804+229301463+229576388+229769880+229907162+229994835+230072721+230232222
2791+230473664+230630684+230579023+230389603+230275869+230325380+230326644
2777+230259891+230302932+230313096+230203156+230085185+229919724+229736331
2764+229725247+229960695+230227771+230329501+230455256+230703118+230812944
2750+230757030+230717931+230688750+230730575+230821910+230742825+230668880
2737+230878679+231256401+231573989+231725640+231738481+231637523+231529914
2723+231662385+232010106+232213204+232155615+232074953+232090225+232222696
2710+232473564+232650914+232631816+232611371+232770674+232990079+233131565
2696+233179548+233129989+233095717+233207957+233373040+233488055+233606715
2683+233634697+233554660+233582855+233639065+233560571+233453554+233395192
2669+233357325+233362613+233419250+233397738+233231718+232991458+232756141
2656+232614081+232563437+232534717+232541433+232588562+232587856+232546918
2642+232502022+232337054+232067285+231871198+231808698+231747496+231533428
2629+231287848+231151173+231037538+230941950+230889812+230864047+230876281
2615+230751069+230385941+230089028+230134531+230313917+230217787+229870050
2602+229615586+229525498+229491703+229478878+229439336+229336949+229216581
2588+229123390+229026587+228872916+228673397+228495243+228402430+228427735
2575+228506869+228491844+228356565+228185767+227973473+227692833+227397709
2561+227153771+226953678+226687061+226364564+226185424+226170218+226140544
2548+226082988+226038141+225844469+225534779+225397202+225411406+225334325
2534+225135791+225010300+225021696+225003239+224909424+224781420+224572410
2521+224313035+224171385+224196493+224192897+224073925+224001852+224076470
2507+224162288+224125208+224053218+224045910+224074434+224102038+224163191
2494+224249698+224232374+224117047+224144241+224423419+224723338+224877451
2480+224938489+224884036+224787036+224783242+224784195+224752239+224765770
2467+224862968+225070829+225264239+225302303+225280381+225310941+225377119
2453+225406545+225435907+225611056+225820050+225883617+225940664+226056040
2440+226155094+226360294+226677833+226867630+226843951+226761647+226832571
2426+227118547+227479602+227724969+227777846+227737302+227738073+227848523
2413+228042820+228257824+228514160+228792008+229014106+229197335+229336374
2399+229408382+229567422+229875617+230127536+230272634+230471102+230705680
2386+230695581+230095104+228677798+226503488+223912947+221163891+218378150
2372+215710298+213076207+210227310+207243791+204742976+203479456+203642552
2359+204929818+207075867+210137486+214405708+218810785+220862774+219533914
2345+216446333+214308001+213762979+214207470+215196328+216149863+216810229
2332+217436422+218625438+220413717+222011443+223086053+224269896+226016399
2318+227951402+229584204+230849974+232036117+233298947+234482331+235500566
2305+236385313+237182747+237912082+238539753+239101296+239606842+240007817
2291+240386279+240826484+241231483+241542567+241809758+242028211+242184246
2278+242281148+242385423+242546467+242653731+242737282+242965423+243281960
2264+243555243+243783532+243938697+243995317+244073696+244264380+244515774
2251+244743258+244847714+244762668+244608489+244596599+244791455+245104724
2237+245370354+245532318+245749522+246087719+246361888+246428707+246386290
2224+246358128+246405520+246607370+246834411+246873280+246795870+246796527
2210+246959065+247198586+247358842+247459094+247612156+247794745+247921780
2197+247972752+248017615+248171219+248391724+248525722+248608814+248731875
2183+248851997+248998557+249216238+249383291+249454116+249525418+249600118
2170+249714509+249987595+250287858+250389440+250410525+250559663+250740363
2156+250814473+250851092+250930949+251033270+251163951+251382699+251640612
2143+251881939+252116878+252217689+252180839+252227525+252343952+252393331
2129+252446470+252571026+252709194+252862389+253055716+253204953+253276681
2116+253351283+253412896+253420466+253465099+253560179+253595747+253578505
2102+253618195+253730500+253837978+253942351+254078221+254184959+254241629
2089+254319975+254428996+254508114+254564636+254627907+254635149+254589744
2075+254635149+254790577+254939124+255039671+255071463+255046141+255065256
2062+255171600+255341215+255513820+255606189+255598816+255539371+255498794
2048+255521439+255597404+255632184+255612561+255672252+255810240+255950790
2035+256094312+256260972+256437189+256540315+256556884+256553501+256594965
2021+256693739+256801988+256920500+257073416+257277680+257492865+257652989
2008+257778382+257886040+257976439+258072520+258225862+258471754+258699321
1994+258778323+258824894+259031753+259343840+259636566+259860881+260033452
1981+260231362+260487041+260769487+260976872+261103792+261219135+261298647
1967+261489873+261903690+262301742+262606570+262933617+263216326+263364988
1954+263393084+263419014+263587283+263823569+263951704+264051710+264448251
1940+265075873+265537360+265830431+266086144+266317667+266595121+266923712
1927+267109568+267098582+267214483+267520888+267849051+268346994+268924285
1913+269273615+269458847+269772182+270335531+270976109+271501623+271887031
1900+272182236+272414450+272731791+273171012+273405311+273552840+274104283
1886+274860106+275447660+275896831+276342111+276844209+277341150+277709676
1873+277634565+277063466+276989143+278218539+279789170+280806371+281415929
1859+281960985+282521345+283076845+283672806+284205414+284500965+284522706
1846+284527600+285378059+286887898+287847756+288424833+289212628+289887280
1832+289926855+289910565+290676783+291803382+293087954+294437817+295364964
1819+296098601+297005352+297835646+298313768+298760657+299607076+300606476
1805+301333841+301771862+302201148+303020340+304080959+304546141+304503183
1792+305538578+307715516+309308546+310175524+310871919+311467683+312266776
1778+313255338+313563106+313067248+313255206+315187894+317560837+319269505
1765+319978314+320324048+321358129+322664312+323874068+325004412+325389589
1751+325170168+325632362+327183320+328837207+329868201+330469582+331466880
1738+332357866+332239929+333017805+335735956+338129491+340040174+341516284
1724+342481725+343000605+342552041+341678921+342846606+346093260+348942157
1711+350706855+351481907+351853094+352557239+352826022+352585976+353703215
1697+356202339+359895520+363568405+365456197+366328989+366346756+365581820
1684+367176032+371441594+374602069+376174013+377279068+378794490+379913569
1670+381391616+385063122+388526799+390161046+391854082+394616866+396825530
1657+397101210+396010048+398263739+403397791+405617063+407778762+412722556
1643+417429096+420278190+421476682+421850660+424712629+430508655+434868049
1630+437557101+440086670+442931429+446519481+451198335+454864552+457199069
1616+461517048+467766105+473005680+477585316+482610363+488086864+493474953
1603+498797553+504165345+509589594+515276813+521396602+527766027+534110098
1589+540567115+547248183+554148936+561458119+569100391+575722179+581249127
1576+588997284+597854797+604214764+610511476+619049891+627765131+635482350
1562+641162804+645786777+656658855+670645330+681030418+689945144+698610332
1549+707795746+716028463+722156626+727045771+733992634+746912973+759505806
1535+768880393+777603975+786017523+792826053+798699490+804942866+811350323
1522+818643413+827461187+836127097+844464845+852467072+859356855+864464271
1508+867332414+872945081+884194454+893116734+897745633+899876789+903557326
1495+910334919+916145035+919644215+923680569+929874615+935549420+940000116
1481+944348540+947788800+949606506+949834828+948725734+949981109+955318489
1468+959557481+959743107+959045268+959878025+959028518+954742627+953661909
1454+956990045+957869438+956486699+954467997+952132955+950185652+948435471
1441+945600630+941338845+934771445+926459972+921086793+918718252+917213601
1427+916162048+914359449+911884761+911114011+914240691+922659953+933020606
1414+941150132+945797095+947968449+948849813+949284386+951548225+957057898
1400+962758516+964968494+966334220+970745833+975363698+976800692+975966885
1387+974630323+973774773+974849054+978703526+983124729+986073928+987414102
1373+987173891+987798098+991162229+994445306+994680984+993970533+995205743
1360+996879007+996754928+994937222+992856710+991393310+989837425+987481889
1346+985115450+984514956+983790908+978794303+971526370+966485756+963603753
1333+962453015+963993989+967186354+969052732+968279552+966797892+967955330
1319+972212911+976737897+979997984+981828432+982436217+983363166+985246032
1306+987118716+987637563+987325821+989587624+994978275+999879243+1003070885
1292+1005021144+1004896539+1005240072+1009827393+1016308877+1021745705
1281+1027531386+1033214073+1036823867+1038881980+1040803140+1043138379
1269+1045610638+1047859173+1047975107+1045465671+1045346912+1050647442
1258+1057690075+1061274515+1060354988+1058270995+1057377348+1057990388
1246+1060142497+1063068837+1065880425+1068074309+1069869617+1071481662
1234+1071309961+1068369302+1064525799+1061972485+1060826673+1060201351
1223+1060712578+1063051561+1065617093+1066362160+1065350280+1064743086
1211+1064443496+1062207113+1059851708+1059890922+1060643543+1060489708
1200+1059084965+1056599636+1056177608+1059360186+1061529308+1059241296
1188+1055373622+1053336462+1051863603+1049382740+1049070998+1051910503
1177+1052696426+1049236591+1046068266+1046210146+1047612656+1046951469
1165+1043115587+1038750938+1036780843+1037532938+1040013013+1042283356
1153+1042727584+1040525620+1036140281+1032772734+1032914483+1033740671
1142+1031635330+1029761463+1031262304+1032956324+1031560120+1028505431
1130+1026768978+1025378883+1023252063+1023168183+1025438591+1027059898
1119+1026322450+1024954819+1024304930+1022494056+1020109027+1018128488
1107+1015689138+1013468388+1011273189+1011329153+1016092970+1020874785
1096+1020498475+1017897802+1021165507+1029844292+1035549640+1037989582
1084+1039057163+1037345210+1035543663+1036171547+1038149459+1037580823
1072+1032534231+1029399144+1031986680+1032413370+1028042614+1028670564
1061+1035417942+1039485102+1040806819+1045745227+1052639805+1054451402
1049+1051487753+1049456833+1048962355+1046301712+1040230103+1034618553
1038+1034124798+1035272317+1031371341+1027425895+1029671212+1033628349
1026+1035671289+1038415484+1042163546+1041147002+1033752231+1027501696
1015+1026881365+1029957796+1032217629+1031068926+1029770856+1029993200
1003+1028996099+1026477139+1024174414+1024066953+1028737037+1036101133
991+1040177489+1040976155+1042067383+1042391933+1041251770+1042887791
980+1049312260+1055342356+1054736870+1049659669+1047761105+1049593064
968+1049581635+1048812790+1052328129+1057092668+1057562646+1057063110
957+1059326555+1061239899+1062788098+1068055852+1073741823+1073200709
945+1069742187+1068789949+1068766368+1068386117+1068017360+1067619308
934+1067792520+1067390067+1067052642+1069257759+1071802862+1071690869
922+1069592294+1067905301+1068048232+1069498298+1071121510+1070760045
910+1068582121+1067128049+1066215419+1065541292+1065303315+1064374789
899+1062682674+1061256583+1061173622+1063363041+1066388762+1067190056
887+1067453847+1069945483+1071820072+1070967807+1067834821+1064471281
876+1064209788+1065288470+1062892209+1056862573+1052722306+1054064582
864+1054962236+1051954906+1051802976+1054446016+1052191110+1046780622
853+1043822556+1040681820+1035014175+1030798303+1031228541+1035515944
841+1040008021+1041875122+1042543929+1043377933+1043072169+1042309695
829+1042084658+1040685432+1038317876+1035166893+1030393026+1026425116
818+1025589010+1028407626+1031541597+1030822541+1028830047+1027430756
806+1026529227+1028805941+1032641232+1033247703+1029652623+1023485836
795+1018109439+1018158572+1020682524+1016543636+1008823789+1006385227
783+1008354797+1009653656+1006228240+999896715+996550647+995791983+994965532
770+996599845+1000853551+1001068013+997269111+994242141+990647849+987987731
756+986087984+978606509+967834469+963991099+970836282+979019012+978683295
743+972449969+967343801+966376390+965635264+962291101+960538883+960384917
729+955716475+946633398+939703875+935825954+931027718+925904144+922791126
716+921548166+922409693+924608241+928067485+934096727+937472025+934427845
702+932052735+935108015+938870790+937775359+933983288+931410860+929006191
689+927157876+928847562+933469367+936792577+936024915+933801997+934437633
675+937528908+941680014+944770238+941678766+940505432+952153120+963786555
662+966272279+960575995+952807870+950745553+956253517+959642084+953735279
648+943639928+936976102+936556242+939929767+942898145+940851658+929388479
635+912655773+905200046+917271339+940698546+955501750+951811163+943679011
621+943554406+940295436+926068882+910363295+906006792+919165896+941212007
608+959578763+961310947+949426791+945268329+951458302
##END=
