##TITLE=Sample description
##JCAMP-DX=4.24
##DATA TYPE=INFRARED SPECTRUM
##DATE=12/9/2023
##SAMPLING PROCEDURE=Instrument type and / or accessory
##ORIGIN=Default
##XUNITS=1/CM
##YUNITS=ABSORBANCE
##RESOLUTION=4
##FIRSTX=4397.6552
##LASTX=599.8556
##DELTAX=-1.9287962
##MAXY=1.9904027
##MINY=0.34193122
##XFACTOR=1
##YFACTOR=1.853707e-009
##NPOINTS=1970
##FIRSTY=0.34815392
##XYDATA=(X++(Y..Y))
4398+187814970+186957399+186446853+186852882+187832736+188239503+187423926
4384+186826354+187583331+188643796+188679857+187505967+186411258+186406178
4371+186952753+187562093+187958523+187665019+187110036+186984569+187347350
4357+187883588+187844456+187127913+186387882+186530261+188216497+190073279
4344+190623375+190312137+189508875+188503876+188255018+188489873+187928330
4330+187294039+187627253+187912542+187723105+187854520+188279712+188252896
4317+187552704+186841531+186911836+187499697+187901819+188309150+188583169
4303+188168410+187443025+187407189+188441963+189336447+188936737+187889359
4290+187570774+188335661+189243730+189804951+190187121+189948955+188833329
4276+187632607+186990357+187108122+188422285+190172700+190750818+190200803
4263+189343971+188574471+188609374+189524550+190141382+190120208+190276173
4249+190874805+191422457+191028760+189664421+188845194+189103184+189298650
4236+189313055+189951977+190643053+190270723+189366576+189378296+190357250
4222+191034886+191084467+190986236+190779918+190807908+190919162+190420546
4209+189919935+189894212+189969244+189983344+189672620+189382621+189742202
4195+190350915+190752748+191007056+191157297+191326268+191400850+191090641
4182+190842539+190959098+190999130+190870481+190618777+190292073+190322604
4168+191031204+191937408+192053148+191545367+191253679+191012088+190395449
4155+189422492+188611545+188772606+189869566+190819355+190829403+190148906
4141+189425579+189274759+189789887+190312073+190519870+190560159+190254887
4128+189505611+189008377+189283955+189654421+189690530+189856849+190068633
4114+189956495+190023038+190460465+190514661+190172781+189867926+189489630
4101+189337042+189872299+190576606+190736799+190807072+191324660+191736106
4087+191484756+190787651+190142909+189682572+189494180+189599148+189752235
4074+190124485+190607330+190783889+190563021+189850160+189198827+189087010
4060+189255290+189759534+190335385+190360513+190142877+190005884+189574839
4047+189379775+190316157+191660303+192242585+192041460+191605029+191276798
4033+191406171+192067665+192416620+191846267+190972844+190618102+190626606
4020+190585256+190847394+191501075+191911733+191612409+190947490+190847297
4006+191408004+191730078+191482473+191099484+190695963+190411574+190688134
3993+191199982+191231348+190948487+191311509+192556105+193695332+193816104
3979+192740173+191365673+190757924+190545610+190119935+189911881+190416494
3966+191237538+191794981+192029048+191763100+191216332+190991220+190904001
3952+190771654+190783069+190859339+190767217+190524999+190551044+190979805
3939+191614627+192019418+191613679+190936992+190980561+191243679+190828503
3925+190070192+189655852+189655852+190367716+191785335+192897648+193002616
3912+192358389+191484901+190429870+189482717+189493859+190429951+191502586
3898+191939064+191125995+189488650+188939567+189995707+190141366+189760225
3885+190305948+189982877+189953086+191286638+190649259+188656529+187722671
3871+187813700+189278875+190143199+189664936+190537860+192205575+191924322
3858+188934599+184476759+184458078+190169597+193078999+192463710+190615529
3844+188934165+187426498+186288927+187520405+190309099+191219515+190657024
3831+190522201+191015400+191456670+190159292+187136965+187010100+189241415
3817+189947186+191365818+192841169+191680496+188717927+187221723+187790726
3804+187466852+188456818+191531605+192363147+191947810+192005061+191704820
3790+191243422+191274065+191714097+191911621+191049789+190328263+191544917
3777+192856652+192225173+190369372+189559952+190808680+191909032+192095157
3763+191659917+190569549+190355224+190768889+189546077+186913862+186121162
3750+188559262+189508457+189015949+191275544+193224657+191567329+188669728
3736+188089295+190436526+193313853+194615074+193971087+193007359+193115976
3723+193943033+195386600+197310166+198673782+198305245+197146035+198902704
3709+203035464+205889206+207126600+209010954+213753536+219084333+222186724
3696+223428684+223214585+221647545+220796501+222022979+222662190+221169539
3682+218092727+214437121+210935904+209406742+210513203+209856194+208321293
3669+209969185+211832832+211607157+210996932+210843315+210329715+209946419
3655+210236949+209179604+207027500+207728287+211495710+214196269+214925657
3642+214701091+214479195+214676091+215087329+214846509+213272621+211994519
3628+214155449+216711780+216636491+215143872+214372844+215342103+216193260
3615+216200800+216393292+216597873+216856008+217515010+217809061+217591023
3601+217408724+217240895+216946137+217111265+218124383+218758015+218207067
3588+218259511+219634493+220442997+220570440+220736533+220667160+220217933
3574+220072242+220279605+220147434+219969058+220486469+220989073+221008591
3561+221025488+221045440+220941951+221063398+221610262+222157818+222213477
3547+222225438+222704183+223208154+223393057+223418218+223517253+223581128
3534+223356160+222920919+222520502+222551885+222981128+223206273+223133491
3520+223011820+222907045+222890051+222835084+222645036+222618058+222784891
3507+222658010+222379087+222749441+223361015+223361031+223434118+223959777
3493+224033362+223549761+223099858+222804231+222679859+222783701+223119086
3480+223539713+223683539+223603684+223598459+223590693+223462044+223274504
3466+223160951+223069231+222880244+222830148+223130710+223659455+224180387
3453+224464872+224241930+223773314+223883764+224350339+224569326+224999003
3439+225719002+226094693+226033214+225950031+226063343+226392346+226845062
3426+226963744+226768310+226937602+227532296+228195993+228758693+229119834
3412+229336152+229435348+229548113+230017501+230957870+231914509+232111373
3399+231730152+231831293+232642643+233519812+234002818+234155840+234176981
3385+234198284+234403508+234748411+235184343+235866111+236660997+237257508
3372+237684179+238138696+238588599+239038663+239425495+239480029+239453389
3358+239754289+240304513+240983821+241620283+241917357+242031279+242462356
3345+243215490+243911020+244455183+244957690+245535358+246009875+245942335
3331+245579201+245670937+246399023+247293845+247689809+247470066+247274118
3318+247352703+247176739+246684488+246474826+246504183+246491852+246576337
3304+246241450+245334957+245173285+246363830+248064519+249555626+250668261
3291+251449916+252255044+253522293+255157901+256751902+258111450+259150854
3277+259869921+260497958+261231832+262038905+262709563+263114627+263611700
3264+264246426+264395976+264128307+264068002+264407744+264920461+265308064
3250+265399495+264985235+264394063+264440509+264933338+264912760+264377905
3237+264225542+264590927+264764528+264577213+264406522+264113709+263480527
3223+263419627+264459931+265214978+264823387+264148982+263546732+262749017
3210+262062571+261738085+261614227+261517571+261247668+260846543+260668296
3196+260711238+260665949+260427846+259906078+259002301+257900036+257100793
3183+256955793+257134458+257170809+257017963+256745488+256181276+255204750
3169+254346600+254120266+254423819+254986374+255206004+254574976+253789768
3156+253752244+253968032+253694190+253355251+253384624+253491666+253400460
3142+253035573+252668725+252688049+252753934+252264674+251182312+250062651
3129+249598198+249700176+249798375+249716172+249409517+248803971+247835677
3115+246524987+245375728+244948253+244873928+244283752+243051985+241816858
3102+241082294+240611137+239845736+238708213+237598906+236744598+236012381
3088+235570774+235574037+235588394+235424021+235224826+234796209+234045165
3075+233456902+233311468+233178558+232835633+232697048+232926034+232943928
3061+232468141+232270826+232788028+233221597+233049700+232707996+232518270
3047+232473382+232501871+232522064+232588897+232633254+232494025+232140569
3034+231671760+231226214+230761761+230393321+230279093+230184897+229945347
3020+229588338+229253065+229190975+229295991+229256200+228973323+228440012
3007+227968646+227961540+228129289+228042890+227759900+227368920+226957232
2993+226847876+227265737+228014771+228737873+229247310+229550669+229704463
2980+229775974+229977727+230317324+230376858+229921698+229321859+229071570
2966+229171490+229393370+229544319+229345380+228721635+228056234+227802086
2953+227822376+227909723+228249578+228534031+228328372+228011572+228082922
2939+228442246+228704754+228694802+228473179+228195912+227965269+227732279
2926+227548164+227437505+227162602+226700078+226247137+225852507+225573199
2912+225466061+225486414+225407427+225167942+225285466+225800819+225935803
2899+225543327+225274357+225419164+225719758+226074934+226586799+227054676
2885+227164274+227068454+227212746+227625929+227915736+227913083+227841636
2872+227836797+227764771+227643743+227642408+227670013+227606701+227600286
2858+227667376+227634000+227446990+227071171+226557554+226110288+225916205
2845+226072716+226447056+226786589+226845367+226567538+226443712+226898358
2831+227577649+227948871+227886363+227567408+227397167+227570656+227789611
2818+227837569+227745832+227672183+227808324+227910752+227783775+227782601
2804+228058099+228460188+228897181+229194946+229337165+229536666+229806987
2791+229975781+229909254+229641296+229475991+229657550+229975958+230062116
2777+229965090+229988337+230149559+230301360+230234012+229815814+229516473
2764+229702872+229947743+229970685+229901103+229836569+229926151+230189318
2750+230524382+230858352+231041487+231034526+230952050+230940796+231085104
2737+231365586+231728416+231971807+231961759+231871454+231892724+232076888
2723+232322321+232417755+232345006+232321325+232355119+232380376+232626549
2710+233051549+233281838+233349121+233464603+233576982+233671162+233805020
2696+233984409+234201017+234263798+234139875+234203589+234536868+234829794
2683+234989697+235064488+234967479+234799794+234838251+235028797+235160453
2669+235284600+235513989+235663507+235478571+235156835+235053990+235116610
2656+235150115+235176047+235240404+235303250+235342591+235309649+235189970
2642+235081417+234996643+234880244+234768251+234697961+234668476+234607929
2629+234406065+234184216+234116515+234117657+234096017+234025358+233859007
2615+233618895+233359105+233215118+233234089+233213172+233071726+232917723
2602+232780890+232648832+232611196+232726405+232841919+232852948+232864620
2588+232914957+232901726+232771822+232581742+232424427+232290553+232077547
2575+231875843+231837113+231819702+231669895+231473384+231335361+231195313
2561+230953738+230682147+230488031+230393128+230410909+230454945+230318659
2548+229986135+229718643+229594431+229462615+229350959+229300863+229250091
2534+229248194+229262583+229136731+228878114+228581539+228283147+228086314
2521+228126363+228314690+228387182+228271716+228121234+227955913+227718694
2507+227533277+227461154+227411042+227396894+227492312+227636701+227648743
2494+227519466+227538212+227788775+227995269+228098774+228226925+228350028
2480+228457375+228560060+228616651+228623870+228633998+228713130+228729159
2467+228577069+228548693+228758757+228891136+228887583+228921072+228925011
2453+228829127+228862841+229223998+229643129+229769640+229722100+229777389
2440+229972903+230197228+230358080+230452774+230527887+230603514+230660925
2426+230694446+230787468+230947500+231082227+231296069+231614541+231826711
2413+231897033+231964010+232171180+232475360+232630922+232569154+232466742
2399+232537144+232842176+233182899+233364973+233490455+233635149+233651082
2386+233388976+232565167+230900619+228522069+225735883+222655068+219251101
2372+215648019+212107461+208730874+205505847+202730706+201043329+200817107
2359+201959790+204510912+208573881+213809501+218798594+221105616+219575426
2345+215869498+213236222+212680129+213262733+214322298+215505013+216519819
2332+217365847+218570877+220218174+221649313+222823637+224419728+226593487
2318+228873500+230698401+231913560+233016018+234351225+235727108+237041093
2305+238305850+239382617+240237504+240970252+241621907+242183482+242630941
2291+243035924+243509348+244009974+244419283+244696067+244866243+244946131
2278+244969459+245039925+245269233+245582448+245767882+245835792+245973750
2264+246232656+246516836+246739038+246909697+247090983+247291755+247501368
2251+247745194+247927268+247939149+247945885+248117702+248388570+248622573
2237+248737926+248761383+248780515+248849437+248969373+249101720+249188585
2224+249214758+249247250+249324196+249397781+249406575+249398215+249524694
2210+249773970+250029018+250305432+250565737+250688952+250696300+250705078
2197+250813277+251009113+251117778+251085881+251074418+251145206+251283148
2183+251460511+251583951+251702167+251897761+252080430+252205831+252294143
2170+252341233+252413902+252551072+252731104+252915429+253019753+253097824
2156+253263177+253438434+253528450+253588997+253702051+253833996+253925861
2143+254001842+254115298+254310587+254516729+254634815+254722677+254807870
2129+254848770+254889413+255003207+255222724+255459428+255568753+255600216
2116+255679653+255774621+255872064+256031598+256193157+256271099+256242289
2102+256148270+256181871+256409958+256609234+256671485+256747240+256919475
2089+257037658+257011098+256988076+257026355+257053510+257112738+257195375
2075+257194603+257195664+257319538+257445310+257518123+257662303+257824039
2062+257898316+257983300+258136997+258285357+258360711+258380807+258420051
2048+258472784+258536997+258608090+258619504+258665630+258817237+258938170
2035+258981932+259002237+259038925+259143989+259286851+259388764+259469294
2021+259559905+259653587+259783088+259967959+260200997+260493794+260820997
2008+261078424+261169019+261158118+261226639+261438681+261713632+261902715
1994+261947185+262074034+262382297+262673679+262958325+263297585+263586684
1981+263768645+263921491+264108275+264245076+264323516+264374866+264390992
1967+264500284+264737904+265013065+265350042+265726697+266014784+266170330
1954+266294156+266510957+266758706+266894831+266881889+266820828+267085088
1940+267731437+268217048+268340488+268444427+268801339+269262239+269615181
1927+269811660+269905229+270088733+270289665+270482077+271038828+271773200
1913+272160724+272231174+272334132+272714099+273307121+273854227+274203487
1900+274435833+274689724+275056347+275474900+275674321+275800076+276316796
1886+277025412+277603803+278132195+278629815+279056824+279407981+279658045
1873+279637241+279308078+279336984+280286887+281530969+282474569+283145339
1859+283703924+284290129+284924179+285483471+285926815+286282313+286410190
1846+286431701+287176716+288493564+289335009+289909157+290741438+291469026
1832+291531084+291493431+292269185+293384232+294494552+295721432+296765803
1819+297568567+298341010+298979337+299269916+299663002+300669496+301869687
1805+302691744+303074605+303410971+304213446+305222415+305632383+305687817
1792+306778040+308763311+310179000+311003630+311726104+312388001+313215459
1778+314137612+314384172+313932597+314172886+316076581+318458282+320203263
1765+320902137+321181847+322152875+323467600+324651489+325654703+325977500
1751+325929847+326600779+328101934+329620453+330609744+331225210+332221768
1738+333189870+333377972+334449803+337026295+339078511+340682528+341944938
1724+342827573+343310949+342855001+342169118+343520627+346605607+349254092
1711+350917177+351556083+351742320+352425985+352949875+353062286+354391448
1697+356861445+360203177+363294652+364785229+365604488+365744552+365062784
1684+366596255+370686989+373702387+375130745+376002384+377387141+378621898
1670+380014693+383147551+386178093+387750567+389481915+392122105+394139401
1657+394244867+392952875+394930493+399791644+401851416+403860867+408381279
1643+412466000+414734132+415488440+415429983+417612295+422758108+426766206
1630+429263791+431624334+434125070+437120082+441219337+444690233+447107303
1616+451493568+457690022+462747636+466942003+471156467+475565946+480254847
1603+485424132+490940491+496358523+501561699+506994103+512822166+518687882
1589+524436716+530100985+536042424+542661193+549540219+555356095+560231394
1576+566855951+574319928+580039020+586111359+593852506+601193782+607500012
1562+612053189+615349647+623876131+636976371+648494683+659015890+668341280
1549+676484548+683505246+689836556+695592175+702503420+714270799+725254579
1535+732869488+740986455+750213194+757811062+764737033+772047248+778703381
1522+785120028+792286256+800790811+810352598+819280368+827171032+834220026
1508+839823812+846807919+856714272+864739727+870355539+875051160+881417068
1495+889257636+895491325+900246496+904311442+907675296+910766031+914957215
1481+919990392+923065693+924304855+925837008+928183950+932243816+937798470
1468+941418851+942204831+943415762+944120777+940404833+933439570+931897900
1454+937216928+941396343+942068304+940928884+940806698+940380075+937315834
1441+933137962+928044915+920251099+913632844+911133298+908440954+902647779
1427+896971323+896139942+899702702+904670477+910773748+915865574+919339460
1414+924414309+930194236+933398476+933999505+933774424+933421113+934849857
1400+939361555+945164891+950786942+956685004+961173423+962330849+960922876
1387+959372782+960501977+963365381+965896760+968667367+971403698+973478679
1373+975340799+976942533+978254557+979386195+979793333+978730248+978459187
1360+980350181+981511916+981409022+980505358+978482209+976751922+975096105
1346+971888456+968299844+965273739+961856444+957776128+953458449+950579032
1333+950289450+950706427+951001604+953263273+957112849+959238056+959360242
1319+959445579+959593425+960007701+962085447+965875796+969500743+971686656
1306+973021702+974838549+977341246+979821114+983392299+987467213+987599625
1292+983887926+981788314+984100723+989206954+995338457+1003243462+1012486086
1279+1019410578+1022476876+1024124656+1025214429+1024986198+1024974944
1267+1026262402+1028419698+1032832361+1038672096+1040741675+1039001742
1256+1037932225+1038949073+1042037750+1044998711+1045137167+1044798004
1244+1046306233+1048192919+1049631631+1051569763+1053747316+1054831173
1233+1054892460+1054010531+1051807641+1050623719+1053263394+1057634256
1221+1059907887+1060462420+1059771102+1057308855+1056470142+1059038885
1209+1061445312+1061253544+1059265315+1056820303+1054818698+1053964165
1198+1054115740+1053781593+1053642944+1055162363+1055154517+1051433043
1186+1047436457+1045562697+1044656396+1042959485+1041305404+1041994663
1175+1043687008+1043321093+1040582897+1037627338+1036853577+1037225088
1163+1036263996+1035096216+1035432293+1035541746+1033395575+1030268377
1151+1028676289+1028705936+1028859312+1029316095+1029231980+1026161952
1140+1022195848+1019645498+1017361256+1016418557+1015747111+1011910524
1128+1008217796+1007331495+1006399213+1006003330+1008235803+1010070398
1117+1008870014+1007730080+1007269437+1004650920+1002827578+1003780375
1105+1002388608+997775495+995855305+997462891+998521861+998492279+999146104
1092+1001562371+1003439603+1003126163+1003089636+1002722434+1001961727
1080+1002503142+1004052143+1007712974+1012160492+1013102163+1011977212
1069+1014391936+1019656044+1021791797+1018979003+1015074507+1015454056
1057+1020703889+1025357130+1024525362+1021730061+1023498290+1028243492
1045+1030168956+1026854813+1023134946+1025970634+1032502908+1035270878
1034+1033267923+1026601501+1014926855+1005415999+1005284553+1011919913
1022+1016547045+1014390714+1011528660+1012870780+1014134637+1013472066
1011+1013178690+1012786086+1011896827+1013753673+1018132316+1020218809
999+1019157717+1015984988+1013470136+1018674824+1031924131+1040397945
988+1035457052+1026769347+1023683563+1023766585+1025470313+1030513779
976+1032598342+1029236353+1030838216+1038354861+1041719037+1040296531
964+1038883156+1039123285+1042688682+1046804175+1048015234+1049768994
953+1055623520+1066409807+1073741823+1067748519+1057548212+1051367320
941+1049105265+1053457413+1059122357+1058229690+1053986802+1050756388
930+1048936712+1046890412+1041257880+1035455123+1037215120+1043832282
918+1048526230+1051063590+1050331758+1047784238+1050427707+1057229948
907+1059377855+1055649565+1052849697+1055853166+1061430779+1058605316
895+1045572086+1032817956+1026449218+1027561307+1035945411+1046194786
883+1052080116+1057655993+1063175792+1057104868+1044448101+1040523669
872+1046872406+1052514971+1044755110+1030704197+1026441759+1031389083
860+1035413901+1033980912+1029787735+1027285680+1028035261+1030130564
849+1031040530+1029405484+1026403109+1023543113+1019422411+1015724603
837+1014871356+1014491357+1013873737+1014363576+1015451163+1017089295
826+1019893600+1022853789+1025665297+1026091791+1021122280+1015805053
814+1014289942+1015587754+1018810965+1019652121+1016282415+1014339460
802+1015211099+1011855476+1004313428+1002245650+1002449958+993353057+984385031
789+989354864+997073888+993599424+987569786+984375706+979896677+978896293
775+983543360+985002844+982383748+981232495+980310053+978636872+976197711
762+972041382+969147045+969352383+970218491+969888395+967083511+962158052
748+958842429+957870662+956216388+953769188+950476074+944910358+941760652
735+944222963+943214476+933490438+924547749+921652512+919659524+916224545
721+915234514+918581583+923372638+924935851+921663315+918541390+920346597
708+924720096+926804080+926858164+928608451+930035073+927010704+923691801
694+924646141+926990961+925402281+919695665+917474318+922070775+925586011
681+924409292+923852509+924195081+923040548+921741515+919909684+916696570
667+914870720+915114643+916157857+918784541+920700037+919637981+919660810
654+922352061+923859711+923386786+922652253+920685246+913605770+906024301
640+909299024+921436049+928876553+930101246+933544264+937529082+940733965
627+944538333+937942136+921715920+906604043+891053518+880031218+880069738
613+886600148+900046239+915180945+917973610+913710722+909912399+903637424
600+899420516
##END=
