##TITLE=Sample description
##JCAMP-DX=4.24
##DATA TYPE=INFRARED SPECTRUM
##DATE=12/9/2023
##SAMPLING PROCEDURE=Instrument type and / or accessory
##ORIGIN=Default
##XUNITS=1/CM
##YUNITS=ABSORBANCE
##RESOLUTION=4
##FIRSTX=4397.6552
##LASTX=599.8556
##DELTAX=-1.9287962
##MAXY=1.7182418
##MINY=0.14905116
##XFACTOR=1
##YFACTOR=1.6002374e-009
##NPOINTS=1970
##FIRSTY=0.15225452
##XYDATA=(X++(Y..Y))
4398+95144960+94069684+93444785+93830714+94081873+94196893+94223488+93578372
4382+93143155+93876407+94986174+95793399+96583062+97597504+98670005+99254565
4367+98927300+98110102+97590734+97323363+97177437+97451988+97670704+97601368
4351+97873963+98238988+98061746+97573098+97369978+97568134+97625058+97411016
4336+97223885+97159670+97385632+97468041+97141410+97065760+97180473+97356104
4321+98038504+98931025+99383385+99076281+98035365+96826409+96269486+96815225
4305+98112542+99176737+99335448+99101292+99250207+99431760+99459826+100074464
4290+100911207+101041145+100760533+100588217+100504447+100289875+100106022
4276+100060831+99812093+99918621+100592780+100752301+100359835+100056362
4263+100090815+100664127+101228341+101152077+100923220+101141582+101517008
4249+101604381+101458846+101164080+101065002+101637522+102229113+101917399
4236+101043147+100276000+99710697+99706050+100675543+102075411+102979042
4222+102795692+101945195+101580394+102047122+102991920+103842064+104189209
4209+103869767+102849235+102159637+102523144+103205478+103760492+104254811
4195+104422862+104137044+103911819+104044960+104279106+104401184+104322704
4182+104314528+104539186+104849820+105224910+105428225+105400364+105502617
4168+105957529+106272595+105603269+104486332+104005785+103974106+104221559
4155+104873127+105178602+104797431+104617824+104923607+105053125+104838133
4141+104660305+104921176+105405355+105343962+104973853+105021698+105162986
4128+105015459+104883100+105128197+105873312+106721556+107020094+106713529
4114+106258459+105928057+105578276+105094861+104910440+105387057+105895726
4101+105755536+105648292+106332954+107198760+107757313+108155506+108021927
4087+107205288+106466142+106373237+106721612+107096125+107273441+107508137
4074+108114980+108389726+107934517+107663859+107756065+107555180+107127282
4060+107156382+107886263+108749825+109244489+109393059+109463242+109448958
4047+109384604+109614010+109851360+109911310+109957515+109575590+108775227
4033+108284307+108575330+109337067+109732597+109546760+109280376+109235102
4020+109531871+110079938+110262841+109897267+109589343+109700173+110065039
4006+110268372+110029319+109736843+109923480+110159089+109769248+109238566
3993+109410100+110039124+110451080+110577768+110525407+110319206+109989194
3979+109586196+109357013+109370040+109561324+110049367+110527735+110468409
3966+109974658+109583747+109822242+110535715+110987433+110937251+110518405
3952+109841415+109509373+110139133+110554525+110039394+110191010+110969778
3939+111112761+110597490+109700629+109753735+111253742+111805655+110523675
3925+109698888+110145838+109931535+109288813+110450084+113011055+114028951
3912+113046673+111583885+109003442+105431046+104168556+105782336+108573691
3898+111756424+112183791+109069119+107739657+110075375+110194660+109359844
3885+111010759+110744263+110339589+112376620+111171035+107674223+105452231
3871+105060081+108045551+109433286+107962974+109925929+113840722+113581322
3858+107266476+97848067+98472761+110955391+117077761+115993760+112184079
3844+108662005+106212086+104428943+106174336+110623824+112526616+113212507
3831+114690763+115191563+114464829+111416802+106491498+107317086+111458072
3817+112941784+116630969+119795693+117846752+113285699+111490412+112139234
3804+110366212+111616495+116982529+118640735+119299260+121059934+121631662
3790+121330732+120416411+119489007+119800376+119841246+119673484+121809872
3777+124198035+123669764+120904892+119730584+121894210+123867473+124853421
3763+124521565+122087812+121617350+123654940+122547277+117441649+115269922
3750+119756639+121020740+119945949+126649070+133342331+132027396+127701979
3736+127106170+132292299+139682737+144180963+144493543+144477620+147073213
3723+151184094+156292823+161585974+164646926+164003291+163220817+169624460
3709+180395861+188009523+191788810+195747740+204247554+214415790+222259063
3696+227598345+230015476+231089001+237095383+249526136+259771865+265089151
3682+268375599+270582655+270530192+273648077+284742097+293295659+300104237
3669+311623398+321212959+326422377+331087462+336078871+339471995+343518811
3655+350263379+353713455+353459279+359564087+373719505+385450604+392829346
3642+399067947+404859467+409191709+412878604+416240552+417893888+421571545
3628+433563897+444811785+449107190+450038486+452329349+458793221+465535779
3615+469594774+472940930+477203445+483727584+492220581+498559005+501340974
3601+503119350+505502735+508274387+512167893+516992881+519045099+517620424
3588+518936560+525252561+531142339+535068548+538476236+541414644+542821664
3574+543460904+544196465+543214810+542196839+546433691+552445045+554953470
3561+555658861+556801722+557939294+558546873+559988943+562956814+564970109
3547+564729863+564350015+565072837+566574726+568472182+569952653+570895980
3534+571743209+572599117+573445899+574393584+575226137+575355721+575263533
3520+575142070+573753040+571681043+571434577+572880893+573668265+573665509
3507+574200009+575243382+575513575+574214200+572674021+572426959+573247780
3493+574567119+575364474+573992057+571301157+569290544+569191168+571469702
3480+572939632+571266219+569436852+569378187+569316841+568082649+566621881
3466+566161243+566830168+567728761+567655272+566547871+565726566+565716062
3453+565776142+564561505+562128618+561431236+562758434+563270511+562284536
3439+559962274+557300837+556543188+557501302+558056139+558117560+558017551
3426+556767603+555011129+553995505+553552522+552921067+552405340+553320955
3412+554775800+554885903+553113152+549799364+547302710+547659018+549454863
3399+550445569+550277472+549417467+548582828+548301461+547989514+547449725
3385+547274886+547540423+547781599+547573871+547007003+546406091+545760482
3372+545306995+545557856+545500160+544276919+543433750+543433564+543292434
3358+543021832+542442076+541798330+542216729+542958437+542224365+540740467
3345+540346576+541002688+541901989+542234832+541884595+541600062+540366950
3331+537628486+535733004+535568296+535450483+534969023+535058268+535351852
3318+535072981+533990572+531722691+529524909+529190614+530213911+531224619
3304+531205846+529915821+528281517+527477235+527860510+528802497+530244752
3291+531863262+532189475+531322095+530433783+530374969+531306712+531417300
3277+530243113+530129099+531635048+532693953+531254193+528279134+527336626
3264+528414193+528107311+526436618+525812240+525832279+525210546+524733556
3250+524734859+524929887+525195051+524353744+522802317+522318585+522120354
3237+520457371+517917249+516131349+515408414+515119039+514636202+513519004
3223+511714369+509951338+509364469+510037566+510967410+511031326+509696231
3210+507819448+506970356+507174770+506841741+505556558+504407923+503492271
3196+502544623+502777531+504262621+504788405+503414312+501088884+499219960
3183+498372470+497638063+497235010+497643427+497370851+495911201+494411398
3169+493290699+492325284+491342884+490577786+490633061+491207863+491225145
3156+490076027+488001124+486417515+486141549+485843905+484689087+483581164
3142+482996343+482344030+481268177+479980535+478579549+477382270+476484496
3129+475105486+473528581+472936907+472859507+472183579+471119682+470067332
3115+468613306+466530321+464247913+462347850+461152023+460045404+458161729
3102+455837046+453670813+452071038+451768105+452078152+451424573+450078564
3088+448933058+447982207+447217593+446667710+446164163+445479556+444497082
3075+443617187+443019963+441981916+440380130+439087348+438166220+437179798
3061+436165142+435072751+434213193+433953132+433576077+432500671+431188781
3047+430171369+429602713+429248453+428562990+427361911+426136509+425252741
3034+424226911+422749345+421263807+419854478+418577527+417713834+417189019
3020+417030718+417080108+416948550+416639397+416324805+416096293+415798202
3007+415670145+416567993+418323872+419734132+420853677+422889506+426129134
2993+430332352+435610193+441506900+446699259+449991256+451468078+452260069
2980+453012428+453659192+454049358+453305379+450418186+446051266+441477512
2966+437306215+433960060+430980568+427472498+424195325+422396239+421591063
2953+420687367+419906364+420154953+421156014+421892171+422081574+421881890
2939+421515302+421185253+420706028+419715062+418329124+416981365+415289254
2926+412563155+409295816+406145470+402675355+398830122+395644131+393224839
2912+390491813+387428439+385118990+383748697+382543781+381241576+380170453
2899+379093371+377463649+375821896+375141051+375312427+375605675+375553454
2885+375250335+375117288+374886726+373936359+372523790+371079374+369383985
2872+367419260+365574472+363721006+361481135+359208188+357388467+355931723
2858+354545487+352815719+350454757+347609429+344410960+341177217+338793348
2845+337435718+336063860+334087477+332033135+330465766+329275302+328142796
2831+326959335+325675716+324461302+323506428+322590441+321411785+320043056
2818+318818474+317798417+316756086+315682319+314840864+314301000+313728210
2804+312914764+311988292+311040588+310076924+309053999+307919426+306831318
2791+305949784+305090469+304115407+303066390+301875443+300638364+299467921
2777+298211623+296808440+295419634+294300164+293280778+292075323+291131661
2764+290514881+289702758+288866052+288238396+287729634+287413869+287179844
2750+286689892+285814895+284824786+284002252+283318912+282768172+282426483
2737+282178229+281748767+281150034+280689787+280340146+279943517+279603113
2723+279323590+279052746+278751005+278239915+277561082+277035801+276801682
2710+276656008+276303498+275702438+275071970+274572091+274194403+273758106
2696+273025767+272124268+271375149+270756936+270125108+269509335+268911626
2683+268262647+267611302+266978022+266276039+265582214+264915318+264157669
2669+263400542+262699118+261956424+261199315+260576464+260178439+259901560
2656+259660477+259410863+258989335+258493945+258194830+258026956+257861708
2642+257752666+257727003+257771811+257830960+257805650+257699067+257548457
2629+257364046+257226230+257189504+257209730+257258673+257407923+257656419
2615+257652713+257246158+257028503+257306647+257572798+257499570+257228968
2602+257031520+257022934+256943001+256696368+256491395+256306295+256075473
2588+255804014+255381628+254855193+254408448+253967029+253319111+252584872
2575+252114102+251862925+251432047+250828863+250455421+250258382+249833147
2561+249189773+248563701+248053579+247713455+247545265+247552714+247667194
2548+247721575+247754762+247860247+247918129+247913269+248001545+248166104
2534+248288741+248431212+248723697+249042386+249176849+249226425+249394597
2521+249671438+249895630+249967666+249937217+249827989+249652013+249558653
2507+249567778+249474660+249324106+249271960+249161838+248948131+248783405
2494+248649277+248481198+248359753+248386403+248450916+248374168+248139640
2480+247858329+247605494+247315504+247014527+246793780+246569234+246265277
2467+246047994+246071013+246133701+246004713+245678966+245297404+245027286
2453+244727892+244283959+243910014+243637084+243346964+243064312+242790767
2440+242539627+242362981+242161473+241838035+241436304+241053121+240763020
2426+240506479+240295696+240248261+240254798+240143689+239975126+239845133
2413+239646213+239359669+239244072+239374736+239521155+239524675+239437442
2399+239446493+239649994+239834108+239812504+239737097+239655358+239291134
2386+238405764+236886350+234477786+230939248+226531580+221859101+217272403
2372+212692224+208082526+203633457+199366491+195692931+193363722+192507070
2359+193315412+196206255+200952130+207186894+213262015+215864415+213636054
2345+208949775+205746631+204828241+205010325+205741826+206573262+207100890
2332+207414475+208240995+209860082+211626558+213025830+214433352+216593179
2318+219258489+221376505+222644406+223670218+224958120+226452299+227890234
2305+229139585+230112375+230783926+231290007+231775824+232294103+232799754
2291+233228435+233641657+234086148+234392694+234359544+234057449+233731498
2278+233445289+233218024+233166976+233125036+232880414+232591486+232389661
2264+232261511+232187184+232072835+231949825+231957722+232074958+232161409
2251+232106581+231931648+231786998+231789214+231910715+232068514+232219217
2237+232281085+232183366+232066242+232123938+232249406+232256092+232272406
2224+232408899+232489484+232422979+232312503+232235252+232228305+232317494
2210+232471344+232632644+232800444+233001635+233199065+233349973+233503506
2197+233737252+234025212+234224020+234242438+234188672+234228713+234346675
2183+234426441+234460838+234503692+234548370+234499259+234313953+234165672
2170+234190739+234297453+234405861+234467040+234404297+234326655+234425155
2156+234634672+234749580+234773567+234877246+235094975+235339038+235614706
2143+235955222+236263407+236451878+236587235+236741551+236937044+237159113
2129+237354699+237538459+237691676+237793473+237947193+238123652+238222004
2116+238348366+238578275+238752071+238786469+238826157+238918865+238991479
2102+239089514+239263869+239474503+239707783+239942460+240164362+240393824
2089+240546631+240654984+240921266+241305249+241628351+241866939+242053996
2075+242221739+242476157+242821273+243061220+243122753+243162310+243327912
2062+243569945+243801549+244042186+244278316+244528674+244826336+245136458
2048+245379907+245478259+245492226+245522564+245672280+245978770+246294609
2035+246536475+246741950+246932415+247124611+247332638+247540460+247740459
2021+247852332+247788807+247798323+248097960+248479783+248808435+249151297
2008+249474977+249686970+249840988+250078235+250434897+250907213+251292537
1994+251272498+251214206+251689184+252454040+253103001+253567923+253982207
1981+254485326+255030535+255556579+255993454+256360862+256689235+256887782
1967+257236864+257988386+258723240+259184250+259545662+259810714+259951602
1954+260025799+260002855+259878988+259629058+259077835+258356856+258257442
1940+258891411+259339572+259316925+259098153+258921433+258969277+259124263
1927+258958308+258312271+257769967+257554957+257456940+257989336+258963150
1913+259389800+259259099+259248707+259697277+260264666+260598030+260790376
1900+260947243+260993523+261075449+261302471+261220974+261076529+261795347
1886+262921931+263664365+264102375+264398622+264629035+264829239+265004153
1873+264669541+263359402+262526104+263877029+265966383+267106972+267491402
1859+267820297+268299931+268747179+269084361+269203050+268871511+267936043
1846+266823222+267352079+269637857+271290747+272006827+272672848+272961757
1832+272117433+271287283+272045229+273324099+274741232+276656771+277999856
1819+278541749+279046004+279453453+279289397+279302899+280349439+281604824
1805+282110551+281771153+281319659+281866152+282896806+282798938+281893901
1792+282880771+285954480+288100301+288826271+289269981+289830815+290875212
1778+292230011+292290296+290588519+289693390+292043160+295746238+298717536
1765+299897458+299917218+300989924+302792213+304468177+306107918+306374516
1751+305510209+306209622+309046438+312093087+314180728+315606781+317759903
1738+319791077+319911684+321439944+326895083+332422855+337310939+341326430
1724+344394310+346651874+346906758+346439564+350147913+357755354+364683925
1711+369659616+372522188+374515631+377414371+379609172+381016304+385499808
1697+392638863+402003040+411481417+417800509+422842500+426581839+428980831
1684+436673345+449510318+459818642+466962316+473291092+480587667+486509255
1670+491691371+499797555+507496960+512174895+517115387+523932365+529389739
1657+530888424+529638030+534809753+545967689+551499595+556753710+567873281
1643+578977208+586710621+591723075+595740875+605178876+620806310+634175698
1630+645133503+656734348+669118803+683044107+699892287+714968833+727146565
1616+742118297+758505206+770716237+779351147+786368330+791962662+795360815
1603+796898387+797565562+797534199+796147777+793009462+788312941+782254357
1589+774944857+766921400+758680567+750312497+741861216+732975929+722319231
1576+712078362+706518819+701647980+695903168+693629141+694218320+694178018
1562+691835754+686884386+687759252+698806750+710007483+720589239+731513671
1549+742787558+752730298+760943717+769587716+783484414+808738061+832869296
1535+849298369+864535451+880352102+892913855+902648308+909641056+911398312
1522+910298546+911349369+912530409+911109645+907864728+902076858+893188964
1508+882775417+879178065+886058773+891659438+893858374+894957618+897038033
1495+901163702+904412716+905038174+907450165+915831868+925610868+932502080
1481+936827171+940083933+942562820+943608428+944172503+947582202+952671609
1468+954754929+954653467+957522633+961737248+961621185+957179733+955352973
1454+958212752+960728291+960777830+956846965+950449207+946193620+945212673
1441+943869383+937896096+927971831+920921871+917668238+914174359+911855040
1427+912310203+912420231+910378852+908735646+911367397+919004450+928229135
1414+937427971+945186227+949572255+950733106+950850659+952730236+955385453
1400+955714869+955661307+958534272+963074429+966313312+966631851+965110072
1387+964760767+966443454+967107500+965692994+965499680+967592983+969379814
1373+970512134+972259483+973839070+973997445+972375471+969787598+968698038
1360+970083566+971471924+970769439+969363052+969330796+968640751+964718751
1346+959744588+956499373+953863748+950820340+949000508+948567470+948147915
1333+947561045+946713519+946207327+947037571+947801216+947717410+947941937
1319+948952235+951292041+954271011+956854042+959300823+960876163+961862474
1306+963854687+966287909+968326979+970530162+972524982+973463840+973882575
1292+975674397+980092755+985203542+989053804+992048865+994643219+997701080
1279+1001336052+1004542306+1007631976+1011232233+1014849698+1016944416
1267+1016975033+1016761233+1016643159+1015866551+1015826994+1016206694
1256+1015837498+1016195073+1017266978+1017406656+1016890333+1017027626
1244+1018383803+1019417344+1018481987+1017164846+1017279717+1018308936
1233+1019409447+1020072450+1020164377+1020270532+1020855837+1021633488
1221+1021007732+1018180433+1016535961+1018478859+1020692768+1021370373
1209+1022843283+1023903865+1021536272+1018395648+1018120837+1019670924
1198+1021123869+1021912098+1022215962+1022448014+1022530032+1023286825
1186+1025084606+1025956270+1025304738+1025337591+1026684828+1028218824
1175+1029708123+1029841320+1028234319+1028356639+1032265826+1037150522
1163+1038897945+1037856657+1037480012+1038643545+1040398195+1041578266
1151+1041327815+1041755117+1045561575+1049529166+1048622937+1045516804
1140+1044504495+1044998693+1045741257+1046308013+1047663147+1050364997
1128+1051911359+1050241112+1046509595+1044946919+1047117324+1048183120
1117+1045231340+1040506287+1036922493+1036717782+1038968417+1040561562
1105+1041024472+1041494609+1042020318+1041589887+1039393261+1037905749
1094+1039364282+1041635031+1044403554+1047883353+1048965241+1049470687
1082+1053111097+1055874927+1052878599+1046937046+1043141539+1042835812
1070+1045307697+1049534082+1054406188+1057869673+1056904072+1052379708
1059+1049289069+1049445806+1050718847+1053423751+1057484386+1058352846
1047+1056673138+1057525582+1058688519+1055056751+1047890430+1041755862
1036+1039643936+1041486191+1044415473+1046205657+1046211840+1043646241
1024+1039322118+1036537355+1036323108+1035951529+1034074335+1031444819
1013+1029892572+1029712965+1029049664+1030309072+1034903462+1036925249
1001+1032815895+1028294958+1029002285+1033070146+1038023153+1041817543
989+1042716025+1044007093+1045507790+1044693935+1044967107+1048023254
978+1051453291+1054099121+1055282247+1055069564+1056242186+1059800353
966+1061747944+1059958282+1058217414+1059084086+1061795248+1064920974
955+1065747642+1064539933+1065561405+1069987138+1072888635+1070468226
943+1067367307+1066560752+1065141702+1063920286+1064723041+1065127846
932+1063151425+1061293601+1062127421+1063056817+1063632289+1068066589
920+1073722827+1073741823+1069393862+1065167253+1062306431+1061338000
908+1062067601+1062507791+1060231157+1057356553+1059408436+1064298868
897+1064499035+1060623967+1057836821+1056227734+1054694930+1055079248
885+1056800524+1054799595+1048993921+1045325352+1044644247+1043134089
874+1040763070+1039112564+1037311803+1035431183+1033783061+1031525795
862+1030323822+1031341644+1032593380+1031575036+1027284436+1022004174
851+1019292341+1020282004+1021589164+1019891205+1017811982+1017408295
839+1017413062+1017383339+1016419377+1015014257+1016182930+1019022968
827+1019133370+1016647405+1014614443+1013459477+1013731829+1015685827
816+1016304431+1015338756+1015928009+1017269287+1017472584+1015778424
804+1011751386+1007880043+1006047249+1005441904+1003829987+1001262823
793+1000938473+1000247013+995065903+989831305+987886247+985728134+982876401
779+982335122+981827440+977537660+972020727+969416763+969293400+969159905
766+967527576+964177473+959944979+956018360+951388735+942100878+933206130
752+935203409+941937958+941174312+936759753+935338617+934891127+932020695
739+927007496+922045922+918145153+915006838+912717242+910871485+907126709
725+901419964+897343834+895517595+892156616+886815491+883105280+881862037
712+882460453+884895090+887460317+888964366+890790754+892394030+891784589
698+890495308+889601594+888494304+888168613+887661677+885114924+882139455
685+881266898+882740032+884623632+886413666+889720935+892123838+888346358
671+877658074+865936921+868495145+882900344+891359447+893890406+894243959
658+892544882+892566039+895954656+895029878+887044711+881195681+882039409
644+884637041+887138872+891351178+892917952+885812866+873349074+865669187
631+868998581+878103404+881294238+875419581+867198191+861752401+861078447
617+863853079+863466898+862093885+868677806+877312121+878905116+880033637
604+883050302+878440344+866044119
##END=
