##TITLE=Sample description
##JCAMP-DX=4.24
##DATA TYPE=INFRARED SPECTRUM
##DATE=12/9/2023
##SAMPLING PROCEDURE=Instrument type and / or accessory
##ORIGIN=Default
##XUNITS=1/CM
##YUNITS=ABSORBANCE
##RESOLUTION=4
##FIRSTX=4397.6552
##LASTX=599.8556
##DELTAX=-1.9287962
##MAXY=1.7402483
##MINY=0.15634985
##XFACTOR=1
##YFACTOR=1.6207325e-009
##NPOINTS=1970
##FIRSTY=0.16546108
##XYDATA=(X++(Y..Y))
4398+102090304+101802115+101509725+100882265+100074205+100430752+101760365
4384+102263594+101432963+100695753+101163530+102196955+102952765+103538575
4371+104421447+105357773+105306360+104652605+104696461+105096431+105288404
4357+105303896+104799903+103854291+102756462+101986576+102308001+103102821
4344+103527009+104061296+104778555+104911372+104351673+103972950+104116746
4330+104042761+103607007+103793794+104983160+105820852+105333565+104689335
4317+104749281+105044632+105291714+105132720+104738698+105106710+105883969
4303+106085476+106068292+106312120+106143859+105191323+104670993+105063516
4290+105054681+104679350+105433827+106914112+107217526+106190353+105534594
4276+106070977+106386417+105477168+105056924+106081320+106844182+106435927
4263+105694433+105565376+106353778+107235905+107317043+106724465+105884870
4249+105402181+105685644+105952667+105764133+106144778+107364530+108155112
4236+107930086+107571232+107728809+107922612+107631563+107292007+107543411
4222+108061626+108278055+108607130+109441089+109742306+108956607+108657918
4209+109484485+110189681+110275499+109582770+108260145+107712389+108589137
4195+109850897+110478486+110694648+110779887+110110198+108999350+108651924
4182+108986965+109349406+109875298+110440588+110305821+109243573+107903019
4168+107732607+109173753+110410735+110432267+110164048+110065570+109826349
4155+109475300+109581134+110126941+110264870+109842567+109650917+110227395
4141+110991268+110977982+110292113+109883408+110172599+110595398+110640798
4128+110480435+110427008+110514205+110623035+110664933+110581377+110409889
4114+110136705+109905814+109893448+109729535+109453198+109853132+111065133
4101+111980690+111690322+110928702+110669061+110957241+111405875+111500832
4087+111332644+111327174+111557808+111983871+112265413+112220683+112421326
4074+112851885+112577681+112000172+112352039+113046009+112968043+112559734
4060+112644466+112983232+113083374+113121005+113168851+113068930+112702794
4047+112276721+112497655+113288761+114095404+114574315+114226540+113542729
4033+113380968+113264654+112703447+112264438+112384007+112672462+112659692
4020+112658524+113190053+113824813+113887278+113461959+113003321+113216026
4006+114297169+114954500+114471709+113812337+113465398+113347557+113431766
3993+113421036+113315350+113289202+113440206+113843403+114374132+114593641
3979+114175834+113676007+113438955+113271770+113583192+114479929+115312040
3966+115363812+114695365+114455813+114772190+114836246+114771142+114668555
3952+114162337+113598537+113785858+113725324+112672554+112945058+114828844
3939+115573713+114138782+111561780+110523932+112345944+113731309+112398975
3925+111054909+111507948+111480780+110834729+112126278+114990706+116428736
3912+115857939+114088270+110097290+104670165+102459869+105019909+109905795
3898+114744571+115632279+111665608+108868159+110825793+111125097+109449833
3885+110111283+109673084+109488981+112174970+111449667+107581952+104557878
3871+103674611+107003120+109310910+108502492+110573295+114214229+113680622
3858+107261409+97212333+96468632+109047931+116608839+116661925+113078841
3844+108935019+105544983+103067663+104669697+109557937+112063667+112905983
3831+114221106+114818225+114440394+111532110+105757808+105445374+109781500
3817+111814994+116158016+120574369+119354608+114110317+111019963+110960578
3804+108280767+108664428+114689214+117496491+119133481+121721212+122454211
3790+121935950+121053510+120267185+120435594+119691562+118455196+120450185
3777+123418800+123164400+120024609+117776350+119030286+121124029+122895261
3763+123082526+120305690+118957828+120249468+118380338+112012060+108895972
3750+114011729+115961446+114304974+120033178+126735513+125323080+119311331
3736+116575197+121882403+131043018+137235237+138399623+138071504+139916161
3723+143505092+148207924+153272011+156317700+155390991+153276819+157845335
3709+168179952+176559851+180635480+183739240+191328079+201373449+209226343
3696+214384172+216117001+215231665+218749471+230313172+240901215+245910468
3682+247315914+246823919+244838088+246641858+256087333+262358254+266519095
3669+276932652+287150357+292820849+296847327+300339335+302182768+304761398
3655+309474252+309883720+306060173+310316982+325430485+338588294+346092327
3642+350512184+353926501+357335780+361174791+364324723+364032056+363671648
3628+373144172+384887085+388849627+387508062+387906718+394584349+401432107
3615+404961130+408984317+413432822+417478626+423250787+429039386+432225248
3601+434255193+437283506+440564840+443672295+447438820+449255351+447100146
3588+446704947+452659077+459519964+462983856+463974060+465318861+467599326
3574+469484593+470211294+468883079+466730816+468642672+473658195+477009183
3561+478873708+480439204+481146781+480962642+481159653+482400157+482894835
3547+482313622+483447474+486210519+488037899+488763386+488933440+488345791
3534+487686280+487292516+486551141+485782699+485262203+485200014+486296024
3520+487505561+487642774+487496404+487410825+486821484+486439267+486655917
3507+485965073+484499976+484256296+484803639+484604311+484645317+485599921
3493+485554722+483622566+481561619+480819840+480553358+479583087+478419630
3480+477988097+478095962+477944811+477242897+476645796+476671613+476601591
3466+475743856+474597169+474008453+473675701+472439904+470784895+469864382
3453+469380442+468342209+466162952+463777453+462372413+462228139+463156668
3439+463640756+462734476+461572784+460893194+460274615+459427031+458256844
3426+456974305+456112708+455807538+455761163+455263689+453974494+452620609
3412+451924469+451952162+452240488+451888722+450651786+449621864+449547686
3399+449878784+449653161+448834997+448543986+448819110+448743571+448488380
3385+448507872+448610183+448498641+448135989+447747337+447601187+447455185
3372+447105184+446794866+446479802+446287903+446694319+447639435+447940560
3358+446985477+446262822+446316883+446096225+445757257+445921280+446315743
3345+446259696+445248236+444147813+444202390+444414442+443764383+443349472
3331+443744156+444024797+443216783+441689461+440533139+439938906+439570076
3318+438883829+437952321+437619678+437302777+436265830+435128668+433829654
3304+432496033+431596299+430801010+430851320+431990284+432587974+432472349
3291+432639608+432960003+433516503+435072033+437055860+437596031+436251009
3277+435167725+435786561+437189138+438550782+439000484+437824780+436289073
3264+435766591+435789944+435054012+433566850+432887002+433221593+432625706
3250+430734335+429527702+429218965+428402493+427293391+426511489+425713332
3237+425109832+425306217+425938366+426131258+425614624+424914439+424390486
3223+423791767+423432278+423947478+424342052+423025568+420660296+418990870
3210+418223201+417680051+417099830+416662816+416836842+417698586+418242655
3196+417607307+416187923+414797372+414243226+414635998+414800020+414217887
3183+413605745+413041742+412486419+412421178+412307833+411506844+410808167
3169+410616452+410240744+409499443+408645607+407802509+407191322+406994017
3156+407389142+408124927+408414982+407831746+406612867+405697577+405531568
3142+405177485+404285401+403662299+403311269+402323824+400472060+398568222
3129+397320657+396401763+395285601+394429153+394312461+394318456+393425967
3115+391561148+389883043+389022035+388232189+387358566+386875435+385879679
3102+383643455+381455703+380336304+379399647+377871222+376568603+376005594
3088+375765775+375731058+375434420+374198366+372709365+371945630+371194657
3075+369690283+368288920+367482157+366707537+365888711+365252406+364490253
3061+363533773+362852013+362284885+361374229+360347396+359436482+358552121
3047+357746682+357022556+356322370+355990648+356128338+355996091+355142438
3034+354072613+353290012+352757123+352323125+351753643+350898409+350312120
3020+350761417+352188855+353545498+353962027+353912563+354275361+355003570
3007+355628989+356452927+357937551+359883720+362346191+365393775+369175230
2993+374838496+382311489+389441727+395190901+400141184+404224132+407285837
2980+409954919+411997036+412308753+410599498+407446918+403552706+399577402
2966+395768511+391853226+388005021+384995796+383070958+381898270+381549446
2953+382051921+382937239+384211907+385950473+387717283+389417454+391561847
2939+394052747+395431860+394987418+393687153+392150489+390124811+387171595
2926+383275581+379200062+375311918+371200468+367069710+363236510+359598887
2912+356652585+354562953+352543563+349992129+347075653+344501676+342763551
2899+341719287+340622505+339029317+337611257+336996099+336915301+336978998
2885+337142248+337260778+336942185+336137738+335179677+333901000+331913164
2872+329606220+327414606+325307137+323449453+322104983+321238017+320371198
2858+318918973+316767445+314090273+310916878+307276570+303593344+300484509
2845+298066335+295808101+293253854+290605147+288281929+286349423+284733599
2831+283515032+282624052+281647989+280384371+279079675+277879662+276792295
2818+275975529+275457975+275009488+274312925+273261636+272136702+271208614
2804+270540204+270057220+269620059+269078086+268236514+267225366+266342072
2791+265544705+264760854+263985810+263146997+262232663+261248472+260222246
2777+259234893+258343250+257584646+256842480+255841428+254650499+253714118
2764+253222528+252858534+252219876+251309183+250346874+249569642+249170601
2750+248989367+248804198+248514271+247998851+247459433+247052963+246514520
2737+245824228+245228763+244791253+244438108+244094911+243827896+243721079
2723+243705321+243607109+243300431+242867040+242402996+242046744+241938309
2710+241865510+241610723+241182260+240656560+240327578+240344899+240249943
2696+239700541+238985810+238419785+238053107+237725779+237192172+236403411
2683+235558235+234944456+234555344+234109909+233527040+232905685+232162251
2669+231253084+230513511+230140526+229920327+229606128+229135207+228581263
2656+227986148+227424573+227011648+226789519+226660489+226414087+226059821
2642+225811782+225666534+225476860+225315099+225224317+225070776+224892061
2629+224784747+224740505+224685323+224578763+224569256+224752476+224966128
2615+224988010+224872643+224914789+225149624+225346341+225437877+225465386
2602+225462150+225477246+225423755+225303754+225198445+224996028+224749461
2588+224622821+224533381+224308714+223905480+223440480+222999016+222574323
2575+222180448+221831918+221451871+220944008+220390211+219875453+219277818
2561+218608967+218150549+217935849+217703459+217446631+217258153+216951622
2548+216499328+216228102+216242757+216348011+216426952+216468215+216496772
2534+216518139+216567125+216706857+216823015+216783112+216718699+216870364
2521+217198740+217431774+217550561+217656735+217688399+217770135+218105388
2507+218498307+218687778+218755888+218810317+218849374+218906083+218936387
2494+218918808+218935081+218949902+218894039+218850918+218927873+219026342
2480+218953469+218783011+218678290+218511178+218157941+217812759+217633786
2467+217521637+217382402+217244159+217151115+217039885+216810676+216527443
2453+216289666+216147194+216097031+215963128+215674415+215403374+215243746
2440+215124977+214954757+214713173+214422769+214121681+213894936+213773703
2426+213671814+213498708+213273507+213106874+213098562+213230865+213311093
2413+213198484+213056656+213084238+213240482+213419565+213545892+213589416
2399+213649288+213775045+213857645+213884492+213943885+213929469+213603244
2386+212791461+211323459+209030619+205847643+201911249+197653392+193502426
2372+189401990+185125819+180760097+176492844+172810482+170519719+169990875
2359+171176987+174104458+178696447+184724699+190590749+193121956+190953953
2345+186308749+183057847+182219806+182706615+183745069+184786612+185545437
2332+186187074+187275452+188903229+190484999+191784933+193361113+195614437
2318+198074058+200022617+201349600+202574473+203996671+205392536+206590581
2305+207608219+208495559+209319460+210064807+210670458+211183801+211670058
2291+212105012+212452016+212701120+212904254+213054596+212999689+212755678
2278+212539286+212419983+212310261+212173747+212046354+211961548+211943913
2264+211985195+211992808+211892169+211779836+211768269+211824629+211905317
2251+212001229+212107017+212197008+212229666+212226834+212248514+212358493
2237+212524428+212642315+212741537+212818474+212746043+212612912+212625839
2224+212745969+212881802+213026462+213103858+213139458+213248113+213360263
2210+213404082+213467999+213583624+213721591+213899533+214082220+214219616
2197+214378306+214590708+214770397+214902388+215031840+215167508+215281644
2183+215319634+215349551+215455063+215547850+215569603+215567102+215547151
2170+215518888+215580341+215720772+215810653+215846602+215881779+216000438
2156+216241617+216431107+216474117+216510544+216694978+217040584+217380931
2143+217580442+217684427+217776865+217927850+218203930+218603027+218991239
2129+219167655+219151915+219154893+219275428+219475528+219614690+219647347
2116+219746754+219933541+220011911+219971163+220009153+220158263+220233379
2102+220206624+220272913+220489048+220724913+220930199+221145745+221391760
2089+221666664+221959073+222247307+222512998+222776335+223043405+223263199
2075+223469662+223781580+224153739+224342935+224258882+224215983+224499308
2062+224933195+225305151+225622090+225890962+226092202+226254919+226490582
2048+226808201+227060763+227145238+227176038+227441600+227940270+228431841
2035+228857086+229255319+229659528+230084221+230514173+230909961+231270167
2021+231599150+231846691+232202686+232931815+233812645+234486664+235026725
2008+235680057+236421082+237065128+237616645+238216100+238913949+239449193
1994+239513496+239692045+240699019+242056158+243181883+244051681+244780147
1981+245462348+246125886+246789515+247337483+247716868+247906266+247802593
1967+247827436+248506953+249416046+249960171+250210985+250299212+250312617
1954+250387199+250357907+250080356+249647755+248921900+247879640+247555714
1940+248355618+249041001+249139947+249025444+248930010+248989624+249033737
1927+248642676+247746289+247173276+247123775+247018521+247626729+249054185
1913+249790025+249592333+249590329+250399262+251514726+252400374+253058138
1900+253517842+253618462+253658916+254128992+254415663+254520237+255739281
1886+257555942+258852364+259929819+261037137+262051411+262938236+263654823
1873+263501061+261895534+260931699+263208781+266848372+269319192+270690784
1859+271744942+272824549+274001153+275200872+276091706+276258486+275413219
1846+274118727+275142802+278959269+281913679+283193515+284321464+285229068
1832+284576269+283611607+284884566+287146459+289524271+292554570+295028663
1819+296496518+297689414+298560113+298708064+299098500+300864612+303078365
1805+304278175+304080907+303679143+304832762+306738955+306934200+305578017
1792+306584273+311021985+314567300+315824757+316309065+316774139+317712708
1778+319048683+318773633+316007278+313990757+316496588+321183661+324870528
1765+326066459+325394297+325823036+327346975+328629035+329719234+328875327
1751+326050387+325178346+327629711+330397206+331623146+331765434+332593122
1738+333400033+331509985+330462925+335067620+340681862+345240954+348442042
1724+349972159+350143795+347778854+343897477+345065274+352459455+359597342
1711+363772562+364756624+364034557+364199499+364082440+362553831+364036874
1697+369534131+378261860+388023777+394017662+397156304+398137571+396978747
1684+401644675+414552993+425486605+431656208+435611248+440566862+444466701
1670+447314185+454332291+462282200+466311014+470065733+476821624+482534501
1657+483069339+479167036+482568041+495563446+502740720+509303315+523246925
1643+537263242+546688729+552214965+555854685+566613315+586765584+603721656
1630+616000032+628275356+641516391+655560768+671614532+685609114+696235423
1616+709860623+726028615+738354212+746815496+753548512+759664642+764469106
1603+767327659+768708243+768943097+767882761+765738993+762719654+758621738
1589+753437374+747311389+740587273+733950905+727272171+718995283+708143314
1576+699644297+697581879+695130514+690769867+690020439+692701656+694900662
1562+692971374+685350282+685647288+701637061+716569073+728401131+739664407
1549+751353184+761573703+769194427+775642720+786034102+810228828+836013249
1535+852399913+866015699+880964406+891646542+897109817+901436188+904569681
1522+906194093+908982183+911240619+911821465+911277469+907722887+900050381
1508+889658559+887856811+899417975+907765179+909142013+907461995+908870603
1495+914588445+918033581+917647355+919604446+927660087+937158244+944616711
1481+948980741+949734289+948657550+947505862+947677313+953234148+961447854
1468+964141869+961428951+961256617+963991160+961134960+952191832+950877592
1454+958120402+961780091+960866493+959065702+958221611+956171181+952723324
1441+948853274+940720991+928240639+921880314+921261000+918607512+915423342
1427+913900800+913405202+915950126+918976232+919015509+922099207+929300313
1414+935426960+940809622+945990602+949009353+949814093+951602748+955682938
1400+959074969+960539698+961139153+962535993+967207547+973184073+976009969
1387+975862422+976411051+977080602+977257938+979216205+981989584+983050876
1373+983262635+984141369+984605560+983162088+979892522+976797792+976631930
1360+979110436+981329890+981373506+980160622+979099109+977325753+974821136
1346+972753422+970886433+967533459+963167222+960879512+960336251+959603446
1333+958946326+958348563+957466960+955849241+953299683+952490383+955804300
1319+960243648+962074596+962655810+965006629+968542455+970645989+972093213
1306+974211752+975786221+977189975+980488741+985411477+988945465+989968068
1292+990571789+992235846+994941115+998257681+1002895401+1009450640+1015844798
1279+1021062187+1026344670+1030904350+1033297241+1033880220+1033560339
1267+1033636098+1034284245+1033654781+1031857961+1031343754+1033206624
1256+1036831302+1040185968+1041545149+1042046043+1043186552+1043628162
1244+1042143942+1040778583+1040982691+1041546326+1041907911+1042603131
1233+1043799687+1044397303+1043276727+1041716453+1040659280+1039298775
1221+1038221302+1038244985+1038234320+1037090061+1034695405+1031828982
1209+1030408973+1030511432+1030031132+1028348614+1026087383+1024513354
1198+1025555302+1028288374+1029035008+1027227818+1025839363+1026226765
1186+1027376100+1027737832+1026846152+1026013903+1025858119+1025957121
1175+1026264350+1026252876+1026222646+1027933262+1030307617+1030853599
1163+1031202092+1033385946+1035840768+1035934327+1034174946+1034869430
1151+1038603334+1040429354+1038854517+1037853170+1039502296+1041712776
1140+1043418390+1045024119+1045937865+1047199588+1048785238+1046857568
1128+1041675117+1038857827+1040979014+1044368250+1043802188+1040298798
1117+1038626945+1038776625+1037756890+1036782022+1039037957+1042553410
1105+1044424738+1045417994+1045188142+1043785933+1043485617+1042842472
1094+1040559028+1042129967+1047815445+1049328424+1046326664+1045503462
1082+1048153346+1049512895+1046599030+1043340792+1043272682+1044659371
1070+1047622810+1054521982+1061119808+1062339312+1060806400+1059494882
1059+1059140137+1059481716+1058982440+1057904083+1055770098+1050382876
1047+1044512928+1042737806+1045434764+1050345879+1052046492+1047666942
1036+1042001029+1039301865+1039069438+1038267346+1035249551+1031319703
1024+1029983691+1032273608+1032689990+1028753742+1025615395+1027062250
1013+1030379110+1031737997+1034259973+1039230592+1040984971+1038802147
1001+1037125954+1037453632+1038443504+1037984168+1034815590+1031954021
989+1034196938+1040623607+1046337624+1049307830+1050403250+1050211204
978+1049225303+1049514586+1051975881+1055627553+1060978146+1065712367
966+1065483103+1062467662+1060389724+1058215947+1055457426+1056504522
955+1062415072+1065302825+1062563501+1060713209+1062486197+1066268278
943+1068214115+1066008490+1065079960+1069537182+1073741823+1072162793
932+1068138430+1066086750+1066597794+1069165888+1071051485+1068904113
920+1064242121+1061723308+1063069764+1065755248+1068112171+1070780370
908+1072051581+1070035428+1066705770+1064166509+1062759298+1062712740
897+1063662085+1065260238+1067252266+1067854222+1066047767+1062686775
885+1060045865+1060151781+1059965545+1056373819+1051877247+1049021489
874+1048014626+1046937961+1043579838+1039607844+1037354924+1035684615
862+1034160088+1034618836+1036346148+1036871609+1035518018+1033268188
851+1031995579+1031894811+1030719292+1027752910+1024510927+1022787587
839+1024210170+1026552530+1025933805+1023204410+1020173376+1017933034
827+1017590499+1017973635+1019107671+1022392462+1024254522+1021393983
816+1018240484+1017101152+1015815598+1015138545+1015808243+1017519005
804+1018051380+1013263833+1005776314+1001318798+999664377+999862822+1002894591
791+1005073885+1002154430+997571287+995952391+995319912+992272917+988130648
777+984686909+982007090+981091285+982439138+983267342+980461232+975728924
764+972276727+970636722+969974159+967744849+960995137+952464713+947379719
750+944766317+943342189+944538230+945301560+942639393+937959601+933438095
737+930738489+929354080+927149337+922909023+917261203+913115478+911802268
723+909559866+903858647+896711088+891254653+890650270+893777364+896656806
710+897691693+896075445+894666028+897694929+902219010+902531830+899064113
696+895891711+893822599+892300499+891946048+892019086+892441058+894312901
683+896736169+896949987+893822231+891753635+894985762+898882217+893751547
669+878617192+872098214+882865671+894911032+903562009+908149492+906490364
656+903041403+903937937+905938424+904071288+900586213+898027020+896072797
642+894676252+894068633+892786241+888839917+886192166+888115570+885765413
629+877390112+874417552+874878287+872353222+869937162+864953744+859520478
615+863383541+871360407+873053664+871915509+872734225+871462130+866615153
602+863328450+864654091
##END=
