##TITLE=Sample description
##JCAMP-DX=4.24
##DATA TYPE=INFRARED SPECTRUM
##DATE=12/9/2023
##SAMPLING PROCEDURE=Instrument type and / or accessory
##ORIGIN=Default
##XUNITS=1/CM
##YUNITS=ABSORBANCE
##RESOLUTION=4
##FIRSTX=4397.6552
##LASTX=599.8556
##DELTAX=-1.9287962
##MAXY=1.8472638
##MINY=0.20799839
##XFACTOR=1
##YFACTOR=1.7203985e-009
##NPOINTS=1970
##FIRSTY=0.23557784
##XYDATA=(X++(Y..Y))
4398+136932134+136687378+136508606+135989048+135361690+135129710+135222085
4384+135341370+135346645+135248052+135390689+136213770+137311402+137587096
4371+136970088+136446702+136716931+137287912+137041078+136166929+135490365
4357+135065061+135060410+135716758+136504968+137052494+137494548+137358529
4344+136397133+135540376+135487844+135671355+135545062+135647813+136038072
4330+136205974+136372266+136689085+137017640+137262179+137193511+137030485
4317+137192004+137364878+137152135+136698708+136427691+136698907+137073835
4303+137034088+136863301+137073368+137781927+138194905+137953285+137850058
4290+138138207+138425404+138516497+138680744+139119057+139323390+139051004
4276+138609451+137844134+136882781+136537760+136887181+137538393+138001296
4263+137758584+137468200+137994557+139045287+139697599+139473856+138993353
4249+138866073+138882426+138634336+138389268+138688357+138857516+138337733
4236+138029731+138253517+138322948+138025574+137541771+137395297+138215303
4222+139232817+139233570+138771100+138879368+139055101+138552104+138260577
4209+139000274+140036444+140676214+140557691+139522049+138549246+138599318
4195+138936318+138867450+139271031+140047574+140078998+140025721+140882521
4182+141738187+141188860+139648982+138685724+138550545+138493812+138527809
4168+139252669+140539493+141074858+140077638+138729646+138378961+138859473
4155+139324697+139467715+139652906+139862669+139776852+139676846+139766770
4141+140025591+140340271+140236948+139973250+139992297+139783417+139297206
4128+138754825+138123466+138206901+139360885+140308734+139828786+138621907
4114+138378104+139289844+140154647+139982994+139021382+138467308+138787289
4101+139531039+140144842+140231734+139971414+139924789+140184451+140444018
4087+140505124+140260265+139899567+139887995+140349400+140724718+140756506
4074+140662979+139901585+138828179+138789688+139341440+139605554+139930159
4060+140606082+141173018+141237936+140886194+140197357+139603570+139320592
4047+139126341+139351011+139953363+140331843+140226173+139799337+139775804
4033+140320228+140376294+139870213+139892395+140225203+140048518+139511534
4020+139241357+139707101+140501244+140870136+140663664+140396943+140653677
4006+140898112+140608897+140349028+140112864+139466330+138732877+138342315
3993+138529316+139365510+140381066+140908445+140819241+140531750+140083086
3979+139271785+138702146+138823615+139181177+139514756+139776219+139762768
3966+139478568+139297890+139733371+140328171+140302862+139976784+139620287
3952+138958231+138284881+138474047+138866281+138420095+138688747+140170532
3939+140893695+139949700+137796833+136511759+137508537+138615159+138261694
3925+137769047+137805252+137197443+136346619+137179514+139431294+140706165
3912+140401031+139345883+136794062+132672368+130069313+130654715+133446001
3898+137330301+138900321+136341561+134302636+136445308+137116935+135119940
3885+134815403+134286812+134073133+136666591+136980439+134271827+131356761
3871+129257120+130769012+132598139+131964709+133658354+137199470+137249377
3858+132010035+123138648+120901289+130871053+138715650+140111132+137041338
3844+132610837+128949162+126462950+127521103+131498705+133689552+134727403
3831+136443783+137264119+136710106+133976775+128708208+127892368+131568854
3817+133404166+136802914+140387753+139720552+136028839+133801060+133687690
3804+131005998+129815507+133529826+135819431+137537379+140014487+140748702
3790+140218777+139528138+139095957+139480708+138878069+137322887+138393279
3777+140757641+140741426+138230833+135975788+136523469+138389450+140294417
3763+140221687+136768276+134528787+135321362+133762031+127835384+123776304
3750+127407794+129718975+128394265+132418656+138026145+137034469+131234635
3736+127209144+130484838+138075620+142880244+142832762+141506571+142230374
3723+144680597+148396242+152444435+154414986+152588232+149284752+151839986
3709+160727405+169287421+175044087+180715403+189872921+198561404+202179520
3696+201797862+197897139+190465832+185045907+186777679+189392452+187852722
3682+182955932+176030627+167530410+161861883+164011432+165375006+163943076
3669+166976510+171443519+172944913+172845947+171883243+169214544+167220624
3655+167927538+165773450+159106119+157264623+164649089+172041159+175348815
3642+176130806+176237844+175822718+174678677+172710205+168644152+164566251
3628+168007674+174369931+175685451+172529873+169066225+169683198+171667331
3615+171565489+171366639+171660505+172090183+174019506+175852617+175528886
3601+174463076+174064026+173731651+174132313+175658254+175315537+172216692
3588+171490533+175183987+178171012+178719854+178367177+177960556+177779393
3574+178152078+177933325+175155664+171710967+172656660+176486151+178805586
3561+179711002+180135085+179848183+178932251+178443952+178635925+178230465
3547+177696209+178688760+180425729+181086841+180568175+180162819+180302563
3534+180213973+179817071+179617545+179642005+179488264+179243110+179453982
3520+179833493+179949591+180079877+179906699+179062692+178491019+178742478
3507+178859668+178666794+179208846+180069327+180044399+179665270+179872452
3493+180188907+179830011+179230170+179166041+179327127+179285240+179390165
3480+179713809+179931575+180013478+180038631+180180644+180395067+180254145
3466+179697508+179040675+178819617+179422039+180202436+180455542+180536873
3453+180711609+180433385+179677448+179303377+179445113+179695602+180285915
3439+181226463+182010377+182321514+182339028+182587161+182991461+183020148
3426+182646665+182222774+182259550+183027129+184045075+184619278+184670000
3412+184766991+185193360+185557782+185745614+186169939+186919433+187669498
3399+188159303+188316838+188443867+188995221+189805275+190422421+190999153
3385+191631232+191982852+192253973+192788870+193327249+193692312+194079688
3372+194533219+194782894+194880630+195308177+196139227+197189394+198262705
3358+199033973+199718332+200643099+201386321+201618639+201692538+202046307
3345+202676965+203269357+203838155+204576285+205283094+205698533+205864296
3331+206106297+206562011+206989783+207530968+208322279+209002897+209505053
3318+209859359+209903758+209732191+209560833+209714609+210411267+211157157
3304+211338199+211134707+211185861+211722179+212659505+214020948+215386392
3291+216312337+217228788+218334805+219206702+219960301+221089356+222459305
3277+223408653+223904452+224588136+225408688+225832579+225939826+226014591
3264+226137064+226343848+226297336+225920372+226076988+226842783+227251118
3250+227113176+226577898+225779190+225360547+225500343+225615575+225376380
3237+225146765+225398865+225841362+225987949+226076936+226210340+226183784
3223+225983202+225382097+224607641+224178414+223915660+223540809+223071895
3210+222907916+223191718+222991205+221922017+220916508+220298756+219770286
3196+219666868+219916976+219627146+218608230+217526898+216773715+216296018
3183+215976896+215599672+215194437+215071513+214924268+214230797+213261892
3169+212551202+212443557+212839143+212930071+212388696+211702933+211343933
3156+211471776+211654048+211423220+210797967+210174047+210092248+210375391
3142+210384451+210212972+210166546+209823622+209051713+208368756+207833738
3129+207300521+206634663+205689490+204960126+204713430+204265234+203326679
3115+202334110+201504585+200927073+200519742+199763632+198461017+197148408
3102+196260470+195511825+194604936+193737404+193125108+192664059+192104511
3088+191416133+190777558+190270794+189795730+189392071+189193308+188986646
3075+188614671+188236355+187916973+187726715+187890140+188309770+188418056
3061+188105325+187960072+188120586+188276856+188422958+188349006+187896497
3047+187651915+187872089+188005372+187717777+187295028+186990890+186593675
3034+185996485+185506385+185249936+185001508+184731565+184590972+184455161
3020+184134739+183826755+183836767+183974866+183846572+183321549+182479932
3007+181784105+181665721+181745735+181469209+180993713+180571189+180243422
2993+180325983+180868676+181444992+181896531+182371456+182888320+183313979
2980+183526496+183485355+183426318+183468794+183323368+183045023+182948465
2966+182964073+182859876+182575538+182253903+182077833+181957802+181591942
2953+181083030+180911169+181146899+181317443+181141027+180909575+180891005
2939+181024582+181117086+180953645+180591284+180313303+180230153+180140975
2926+179957057+179789960+179347273+178488022+177794308+177612348+177609992
2912+177433974+177217524+177226047+177384708+177586970+177759662+177666863
2899+177390476+177351517+177623972+177890918+177992534+178149324+178453324
2885+178660939+178742599+178873578+179068010+179305612+179609958+179845480
2872+179887384+179920298+180072878+180156098+180002720+179772967+179688188
2858+179585498+179350062+179137354+178814871+178176348+177494864+177225753
2845+177329742+177483985+177702237+178018986+178303619+178556863+178775063
2831+178956364+179162212+179298284+179257852+179117433+179005821+179061445
2818+179290229+179427530+179387324+179406777+179518510+179586555+179716840
2804+180065291+180478598+180766592+180998286+181200236+181237481+181125142
2791+181120360+181312731+181471998+181496320+181457568+181416011+181449288
2777+181511495+181520364+181547526+181579297+181474129+181307153+181276890
2764+181380637+181542728+181724567+181831795+181895076+182049371+182181770
2750+182191107+182243596+182396730+182548393+182617390+182609040+182620543
2737+182646302+182636081+182705893+182932286+183140559+183197378+183212241
2723+183285154+183444472+183690319+183878914+183880854+183844112+184024149
2710+184408268+184759854+184899528+184831051+184806504+184982852+185140646
2696+185228144+185452892+185744055+185944100+186102397+186234848+186279974
2683+186229391+186165037+186238954+186408684+186457049+186374765+186254596
2669+186157865+186189133+186274431+186182568+185888078+185619867+185569631
2656+185703987+185798761+185680861+185501534+185463233+185499109+185522807
2642+185503215+185385800+185222757+185049978+184847646+184700297+184624769
2629+184541082+184442567+184317807+184141893+183942558+183763353+183665149
2615+183616939+183469851+183279004+183215897+183191298+183066452+182867498
2602+182658947+182470076+182318760+182268593+182306322+182266705+182113154
2588+182014188+181972665+181844129+181643201+181459231+181426543+181580769
2575+181695429+181612453+181367905+181107905+180963328+180834446+180558526
2561+180187902+179905729+179736051+179598248+179515409+179472449+179379598
2548+179214545+178982972+178698391+178477767+178426647+178447607+178368043
2534+178168033+178009771+177997904+178028323+177974900+177801029+177549431
2521+177315330+177183052+177156582+177147401+177113829+177051311+176930120
2507+176815148+176813398+176900827+177005474+177133040+177237723+177218754
2494+177151749+177244132+177485215+177664369+177811250+178069881+178341227
2480+178499871+178469174+178230430+178033988+178110434+178318240+178431792
2467+178451401+178457343+178477420+178527882+178562562+178521282+178505102
2453+178681605+179072047+179473817+179618741+179595840+179750481+180090582
2440+180317616+180323593+180319418+180481561+180713670+180895578+181045664
2426+181179293+181288168+181400316+181508134+181608018+181806487+182043378
2413+182090045+182072619+182251911+182548878+182808843+182972163+183068652
2399+183284703+183678020+184000902+184093822+184104216+184119945+183984566
2386+183450778+182204498+179967745+176727788+172740104+168365860+163890640
2372+159409824+154938155+150498794+146222025+142624679+140377472+139884089
2359+141278298+144531689+149427683+155905415+162582118+165882550+163943336
2345+159143363+155836609+154995650+155413981+156545099+157820880+158728930
2332+159509292+160973911+163125244+165148006+166830962+168772047+171317200
2318+174094826+176566668+178517176+180200565+181914807+183538380+184943996
2305+186320752+187771408+189093857+190072741+190741093+191297246+191858456
2291+192457223+193153327+193872523+194434963+194790308+194933673+194877061
2278+194762228+194757689+194920040+195193032+195421434+195493134+195537238
2264+195718765+195998720+196270915+196484213+196661183+196848288+197024740
2251+197181789+197331927+197406571+197446397+197600363+197845794+198099124
2237+198289365+198339740+198361896+198505139+198673327+198721537+198709324
2224+198726249+198768222+198873424+199046948+199194522+199269149+199297628
2210+199345110+199497430+199757828+199980237+200023094+199985122+200042617
2197+200180178+200337349+200490865+200604088+200676913+200733195+200806038
2183+200918724+201099991+201323110+201447922+201455076+201487626+201616110
2170+201815999+202029487+202202387+202360614+202514909+202588653+202607691
2156+202670868+202742030+202764740+202817697+202992069+203257214+203497275
2143+203638976+203695345+203686320+203678524+203778166+203935181+204020513
2129+204087415+204248882+204415667+204483105+204528906+204604694+204649526
2116+204627457+204601472+204688260+204898578+205057758+205067597+205081612
2102+205187888+205308178+205423375+205530102+205545831+205449204+205388695
2089+205480437+205647655+205778946+205847579+205869631+205878639+205890072
2075+205901921+206004282+206250822+206448875+206412358+206306567+206372810
2062+206515949+206617271+206697615+206728675+206755248+206814077+206881463
2048+206936238+206907343+206788421+206709862+206855894+207172557+207383741
2035+207393597+207340381+207391345+207528283+207634282+207710711+207798261
2021+207792215+207554579+207397322+207766872+208383152+208739865+208878293
2008+209008561+209141792+209276928+209464864+209654273+209735985+209614621
1994+209225998+208972911+209346323+210035931+210614032+211015456+211255638
1981+211394429+211480126+211608160+211818148+212042913+212061275+211700681
1967+211497778+211960819+212616977+213065589+213438794+213723253+213918760
1954+214187646+214508986+214705584+214637834+214189707+213573150+213793342
1940+215076866+216151978+216552259+216720326+216895980+217196221+217617411
1927+217772918+217351729+216991984+216998913+216936810+217507341+218894855
1913+219754712+219710435+219676066+220270104+221072380+221642997+222104116
1900+222490763+222559431+222480924+222651728+222564490+222308543+223137965
1886+224575109+225476974+226001270+226447370+226871677+227266640+227500568
1873+226870621+224890559+223602202+225396561+228386497+230151789+230841744
1859+231366230+232070839+232785375+233321589+233581918+233333438+232174569
1846+230442000+230765817+233864680+236338167+237236845+237914379+238312633
1832+237161473+235645718+236308770+238034098+239851809+242265204+244184098
1819+245105105+245757001+246162271+245823868+245606898+246759877+248493797
1805+249362316+248898045+248081547+248723759+250299053+250284433+248687918
1792+249351212+253336315+256481464+257472023+257734621+257923251+258572185
1778+259769129+259628553+257166447+255315164+257670994+262092184+265600023
1765+266811865+266317504+266879702+268421493+269679137+270801004+270216217
1751+267791355+267128909+269561428+272333961+273674807+273972796+274962853
1738+275989426+274399719+273289389+277242895+282214088+286062686+288404536
1724+289298347+289085518+286153770+281269573+281099583+287115226+293031609
1711+296204302+296307269+294602070+293820807+292920396+290228570+289966301
1697+293603300+299922389+306732617+309764370+309853826+307849114+303190149
1684+302750563+310418657+316933876+319028632+318897498+319808822+320602939
1670+321132085+325832312+331578775+333570529+334896217+338749215+341610719
1657+339525767+332730021+331741679+340275503+343784572+345351430+352878377
1643+360967001+364629829+364042097+360687652+361548151+370023181+376845743
1630+379581309+381354760+383304593+385693839+390300696+394352907+395694394
1616+399778480+408106126+414660703+418905580+423425130+429067446+434623634
1603+439907644+445827058+452092584+457875667+463579134+469844661+476363171
1589+482840348+489470488+496603511+504405268+512207788+517578308+520280164
1576+526613042+536884597+543580528+548756824+557663298+567609737+575229708
1562+578285089+576678354+583734741+603114513+619664968+632618214+643723937
1549+654173814+662135220+666150742+667682780+672010115+688721811+707297176
1535+717811287+726648678+738077646+747071220+753083866+759133515+764579286
1522+771277573+782245752+794136272+805965400+817557066+825531013+827477901
1508+826036703+834511837+854360368+868878428+876083376+878950319+882797324
1495+889665376+894415320+896379185+900536824+909484249+918942286+925561581
1481+930361900+934226504+935642895+934438675+934237937+938997305+946065125
1468+949656374+948834852+948123919+948603210+945612720+938254013+936701256
1454+944736249+951526903+952438365+950608788+950030203+948626908+945209026
1441+941391540+936680192+930915956+928032452+927561061+923777043+917721921
1427+915068188+914775084+913891685+912820921+914770996+922551134+931112398
1414+936300058+939228393+940784130+942056186+945432146+951231235+955887982
1400+956987918+957780684+961012933+966241405+973806601+979692097+979559057
1387+976487703+975172755+975022808+975787580+978821793+983141921+986021683
1373+986280141+985289478+984381619+984326393+984824392+985255525+986887829
1360+989063796+989129484+987039716+985021804+983840866+982112801+980794250
1346+981811729+983948061+984022896+980021925+974510050+971363099+969339644
1333+966117858+963626268+964255436+966548575+967675812+966337374+964532187
1319+966192416+971213983+975348756+976168615+974825673+975430936+980973300
1306+987707065+990752849+991546724+992553809+993656933+994093054+994007133
1292+995611443+1000216221+1005826906+1010324837+1014031040+1019064110
1281+1026853880+1034988238+1039713514+1040535313+1039470439+1039776777
1269+1042208222+1043722314+1044037661+1045286435+1047105757+1049235368
1258+1052417311+1055280096+1056544461+1056950510+1057840077+1060650062
1246+1063878292+1064684362+1064368808+1065372082+1067309338+1068398465
1234+1068643688+1070078026+1072798763+1073741823+1071298114+1068223573
1223+1067523173+1068024983+1067254044+1066542072+1066860259+1066405221
1211+1065903549+1067035567+1068751714+1068587146+1066360666+1064694686
1200+1064397217+1064180265+1064384190+1065805778+1065030612+1060383566
1188+1057097340+1056890227+1055811286+1052552776+1049962584+1049803975
1177+1049798778+1048594420+1048159615+1049150970+1049599981+1048777142
1165+1046916591+1043480348+1040139311+1038075875+1036531432+1036316005
1153+1036318776+1034948741+1034058343+1034001178+1032918426+1029965700
1142+1026944722+1026885408+1028949607+1029425641+1027062517+1023892701
1130+1022418451+1022005403+1019004242+1013221367+1009374571+1008877680
1119+1008519304+1007977373+1009004761+1009350596+1008510573+1010538532
1107+1012763211+1009682711+1004111175+999529402+996272139+996129398+999756263
1094+1004944061+1011047133+1016957574+1019754671+1020436986+1019884662
1082+1017366257+1014685985+1013314426+1015464547+1023313699+1032995409
1070+1037548496+1036545707+1034704696+1033115561+1032424792+1034311258
1059+1035399345+1034375976+1033863703+1032386405+1030586276+1033956207
1047+1045132053+1056443018+1054957543+1045351639+1040639389+1039348139
1036+1036752126+1035751693+1037780415+1039982643+1042020927+1044606684
1024+1043992067+1037849776+1030705527+1026610944+1026388795+1029770436
1013+1032668352+1031785161+1029712716+1029126994+1029840698+1030495989
1001+1031176364+1033699412+1038159648+1040779428+1038670536+1035679491
989+1035676858+1037098238+1038003257+1038175932+1038250836+1039246557
978+1040685330+1041597693+1043773590+1048292516+1051470717+1051716148
966+1052531988+1054180922+1054241206+1056214910+1063520331+1069636776
955+1069280548+1067338164+1066467791+1064127811+1060801187+1058476382
943+1056600795+1055942594+1059418126+1065018279+1066131865+1061457172
932+1056366382+1055903652+1059911829+1063334699+1063973222+1063126408
920+1060371302+1058119184+1059334005+1061191854+1061260522+1060367283
908+1058237534+1056392920+1058478808+1061468328+1059640898+1056077435
897+1055175812+1055081991+1053106347+1050082528+1049425851+1051641244
885+1053284427+1053870080+1055716772+1056851216+1053463061+1047479101
874+1044529424+1045427652+1043548115+1036236943+1031546659+1032471079
862+1032764876+1032222530+1034219446+1034398219+1030410830+1027752524
851+1026572210+1022810988+1020012090+1022338419+1026911184+1030241065
839+1031814471+1031623988+1030685987+1029992862+1027380636+1022729917
827+1019301019+1016005160+1011403362+1009421550+1013095741+1018733866
816+1020424375+1020220173+1021889340+1021512393+1017609540+1015814470
804+1017885113+1017624437+1013219011+1011315084+1011697297+1009518836
793+1007208097+1005925301+1002264691+997684996+994994123+992025599+988041813
779+984962768+982511436+980175198+978848401+979781067+981596371+980794597
766+977465686+974172391+972932348+972324937+969976642+970972779+976471143
752+975903090+967577556+960184828+955195204+950649324+947552332+945872356
739+944670907+943311058+940940244+938585366+936788910+932746434+925808952
725+919439731+914981227+911468624+909219417+908409536+908148583+907311193
712+905742638+904947516+906154161+910434238+916792858+919685369+918088889
698+919489967+925613896+926927389+919466546+912450210+912146228+913216091
685+910997302+911275578+915971682+916896172+912712548+910106904+910893157
671+910303208+905846506+908885154+921755181+928816557+927557666+924105416
658+921412118+918174880+915863726+916995813+917017016+913822047+913649164
644+914801970+913073004+912351677+917724484+931723758+945589299+943670751
631+924692940+903510545+895180577+897507184+901163428+901731273+899239545
617+900786343+902420171+900223279+905687967+913232929+906867934+895304401
604+893868332+899213283+903811202
##END=
