##TITLE=Sample description
##JCAMP-DX=4.24
##DATA TYPE=INFRARED SPECTRUM
##DATE=12/9/2023
##SAMPLING PROCEDURE=Instrument type and / or accessory
##ORIGIN=Default
##XUNITS=1/CM
##YUNITS=ABSORBANCE
##RESOLUTION=4
##FIRSTX=4397.6552
##LASTX=599.8556
##DELTAX=-1.9287962
##MAXY=1.9704406
##MINY=0.34400898
##XFACTOR=1
##YFACTOR=1.8351158e-009
##NPOINTS=1970
##FIRSTY=0.3493056
##XYDATA=(X++(Y..Y))
4398+190345259+190826808+190781223+190114066+189383866+189925032+191805286
4384+193401031+193483855+192758250+192522088+192476632+192205992+192386078
4371+192668151+192355985+192144849+192415716+192544613+192156817+191711597
4357+191498025+191146526+190738544+190266950+189628879+189487867+190158207
4344+191065764+191538755+191817027+192324837+192736245+193183918+193484228
4330+192801416+191893924+191802687+191982708+191743866+191104367+190591831
4317+190518654+190720550+190845403+190585547+190888878+192319266+193329688
4303+192964385+192084566+191822517+191902434+191680351+191886616+192550638
4290+192980771+193269990+193252077+193110854+193254578+192880327+192057737
4276+191928743+191916757+191494582+191426016+191738799+192436812+193330825
4263+193341852+192541462+192199188+192761986+193493485+193825675+193892259
4249+194146886+194636620+194231513+192910549+192419240+192596516+191935791
4236+190858265+190805030+191842346+192583914+192116006+191157504+191001876
4222+191954743+193047648+193393073+193461216+193709299+193509514+193152038
4209+193237818+193013657+192729668+193332319+194069096+194029162+193685280
4195+193742591+194052272+194371859+194564937+193908824+192711755+192430397
4182+193155741+193996244+194357876+193946370+193389955+193312555+193342031
4168+193494394+193889482+194067472+194420871+195314268+195724312+195267399
4155+194727824+194296083+193990998+194192391+194507723+194388862+194204733
4141+194237213+194399451+194382464+193801217+193182781+192933367+192560090
4128+192001238+191785489+192313176+193160402+193573126+193615090+193567767
4114+193389159+193147865+192927358+192716806+192867594+193442978+193719920
4101+193580304+193533208+193849661+194422398+194837883+195193507+195495766
4087+195353942+195108182+194748806+194008375+193602293+193446632+192784917
4074+192019800+191749501+192263677+193403937+194251228+194453043+194422593
4060+194566804+194889039+195169358+195494710+195559817+194897857+194039994
4047+193837903+194183410+194389626+194215305+193621895+192876478+192545019
4033+192766517+193273563+193584981+193792772+194682872+196013157+196309342
4020+195177380+193907378+193454087+193732636+194134592+194333874+194725291
4006+195114775+194781108+193901905+193217616+193217323+193720748+193873550
3993+193567263+193715096+194515924+195320033+195489059+194927154+194345518
3979+194114244+193713602+193003588+192717407+193180848+193662641+193777685
3966+194015894+194486302+194881633+194871954+194121308+193043214+192594291
3952+193074184+193790872+193994831+193529457+192761953+192770901+193688414
3939+194327491+193984177+192874107+192421254+193233352+193844984+193751977
3925+194010454+194958189+195313082+194536338+193985834+194583840+195364709
3912+195508855+194997847+193321195+190855163+190033970+191355535+193304272
3898+195198395+195221456+192689247+190827913+191835590+192501236+192352217
3885+193037075+192762619+192340606+193405253+193217064+191587946+190308086
3871+190228656+192123720+193226856+192738097+193531779+194860197+194265195
3858+191359530+187459001+188341419+194329684+196971773+196196637+194197279
3844+192371965+191104431+190128406+190626910+192464891+193373049+193730053
3831+194484922+195072811+195235146+193980215+191134735+190569436+191814478
3817+191826723+193195546+195156073+195033364+193431172+192493083+192123298
3804+190448205+190515796+193146030+194043340+194311284+195251841+195528571
3790+195163105+194675856+194166065+193951632+193608529+193269405+194181071
3777+195319708+195071804+193758944+193037416+193933882+195169845+196061503
3763+195821443+193803572+192388222+192711804+191997941+189404702+188647706
3750+191861379+193095117+191851440+193639661+195877894+194422430+191428079
3736+190424884+192260624+194727158+195857415+195325977+194583808+195268454
3723+197102229+199183290+200758784+201223021+200354716+199616753+201884428
3709+205887415+208925777+210680739+212575641+216911354+222347003+226094810
3696+227382547+226178593+223481287+222545488+224724542+225654803+223820850
3682+220828106+217284273+213249683+211087162+212164363+212042092+211119853
3669+212459590+213654304+213659468+213804183+213997244+213392790+212833955
3655+213033058+211869752+209730633+210682623+214127651+216192132+216827880
3642+216949648+216974284+216815554+216360232+215611470+214298367+213828478
3628+216664765+219086396+218576183+216656272+215526421+216563151+217534565
3615+217295284+217369046+217576480+217622813+218430056+219045455+218531004
3601+217987856+218126530+218327126+218533050+219006170+219239345+218956379
3588+219353252+220877330+222064378+222546235+222489460+221773373+220988233
3574+220920236+221195374+220902209+220436397+221168432+222411736+222964514
3561+223122951+223128798+222961801+222850379+222954152+223029149+222807635
3547+222855478+223608642+224376372+224677673+224649335+224543986+224511051
3534+224368041+224157311+224310048+224676715+224685647+224344834+224024224
3520+223938541+224118059+224368756+224277065+223868872+223763523+223858040
3507+223404975+222888072+223318091+224060683+223993822+223436838+223352455
3493+223866760+224308213+224291047+224138748+224247540+224375219+224375236
3480+224618738+224859286+224626452+224257479+224316658+224799961+225221909
3466+225220951+225010626+225150453+225689216+226136092+226135865+225784788
3453+225590817+225561683+225481019+225748346+226238275+226487786+226856597
3439+227523055+227919897+227824649+227741743+228042541+228563489+228980484
3426+229023487+228766570+228692321+229018518+229582258+230245175+230922644
3412+231553780+231839816+231677009+231667574+232166679+232977202+233755408
3399+234139760+234343248+234871795+235606543+236058730+236158898+236190859
3385+236262656+236433809+236835247+237492497+238095180+238211085+238291359
3372+239057937+240157403+240838120+241047681+241363874+241961134+242427531
3358+242610475+242765648+243225257+243874224+244370146+244666624+244966090
3345+245667237+246615556+247210445+247362468+247430530+247779999+248342585
3331+248916492+249324035+249492298+249887450+250487503+250701140+250631048
3318+250600322+250441202+250223213+250511765+251152840+251313698+250956368
3304+250474933+249859745+249564046+250396818+252020756+253453337+254512251
3291+255436130+256307683+257334052+258869465+260872640+262485729+263302277
3277+264145832+265098797+265574678+266043918+266847929+267476775+267664201
3264+267576911+267371539+267228757+267468850+268080757+268691772+269062986
3250+269201140+269105162+268735263+268477923+268527813+268275475+267550634
3237+267105463+267277461+267435736+267400057+267668017+267888865+267436532
3223+266747468+266789676+267764158+268593195+268331796+267477392+266998587
3210+267008136+267059033+266951930+266693161+266289337+265786529+265239046
3196+264682110+264130242+263655027+263272298+262783051+261976864+260880906
3183+259937767+259669563+260023757+260476188+260310962+259307702+258359594
3169+258047444+258000949+258046454+257957117+257400669+256787300+256632110
3156+256893607+257234014+257123338+256547613+256156440+256083684+256079007
3142+256023499+255720866+255309149+254979655+254516506+253854352+253162868
3129+252664364+252335893+251700892+250773327+250289050+250457183+250481640
3115+249752625+248795179+248099066+247332846+246300045+245244736+244290814
3102+243228749+242072654+241271972+240906263+240548154+239966079+239264738
3088+238644564+238227244+237830549+237350380+236949852+236518647+235913885
3075+235274889+234838422+234740235+234796474+234863269+235023964+235272339
3061+235447244+235511165+235558732+235490394+235413676+235492976+235464686
3047+235352922+235246209+234925664+234664329+234764936+234922562+234788208
3034+234240465+233548234+233171855+233105368+233038930+232727820+232251435
3020+231956500+231829406+231692389+231578757+231497411+231423665+231260274
3007+231045760+230963975+230762777+230268188+229847555+229588266+229438014
2993+229664010+230171007+230668585+231217238+231681167+231846880+231937288
2980+232106639+232259539+232457537+232674813+232573377+232124049+231646283
2966+231263750+231133618+231322311+231388164+231058135+230706636+230619687
2953+230483611+230108434+229940399+230391514+231139107+231475016+231299721
2939+231083940+231055796+230976399+230550358+230129985+230224339+230519729
2926+230495288+230061241+229360322+228659175+228098732+227536924+226944894
2912+226624381+226680361+226835128+226978771+227224612+227517225+227707737
2899+227825266+227962527+228107323+228228587+228402647+228639037+228731946
2885+228711663+228872910+229151670+229292000+229290197+229193796+229138126
2872+229428481+229927391+230156830+230064733+229901342+229861083+229865890
2858+229738828+229694801+229813678+229697984+229115195+228338402+227971718
2845+228160038+228400715+228507639+228713335+229048123+229298934+229418623
2831+229549648+229583265+229558109+229894082+230387454+230428347+230144049
2818+229977995+229981632+230097813+230315462+230471301+230410174+230309405
2804+230392180+230614863+230949148+231335628+231649807+231934138+232188798
2791+232347722+232342120+232218241+232259474+232432089+232490683+232529887
2777+232621058+232659109+232624696+232518470+232296680+232039909+232011424
2764+232271524+232525404+232674634+232873266+233029267+232984088+232839746
2750+232807916+233032353+233424972+233714255+233797226+233800880+233843948
2737+233976223+234184534+234386235+234503943+234502708+234477553+234565768
2723+234705660+234764822+234743792+234776613+234912379+235019125+235158481
2710+235458775+235786060+236012446+236100889+236145988+236238751+236197452
2696+236041564+236081953+236407566+236903309+237391110+237714774+237871734
2683+237875534+237688790+237442705+237422567+237695107+237948533+237946714
2669+237936612+238115253+238223249+238178995+238181707+238166993+238049903
2656+237935053+237855948+237843996+237880097+237828974+237693483+237622839
2642+237677243+237705208+237591155+237476419+237476029+237487576+237392572
2629+237211739+237026960+236907563+236868571+236829449+236708428+236466387
2615+236140726+235916581+235930515+236077146+236173125+236110065+235891117
2602+235720190+235703983+235669749+235618999+235672510+235765321+235840237
2588+235793287+235527551+235241970+235097191+234962041+234808135+234779162
2575+234843327+234889562+234964916+235061381+234984891+234643412+234195512
2561+233795650+233467488+233213121+233013239+232903034+232933289+232964307
2548+232895596+232822207+232780893+232712554+232575294+232382379+232160621
2534+231950280+231841570+231801554+231665333+231394254+231113010+230950951
2521+230942831+231007839+231020507+230952493+230858821+230815493+230835809
2507+230760228+230559339+230421006+230420324+230504967+230516286+230394226
2494+230332774+230366391+230383865+230465747+230718588+231033580+231224692
2480+231295093+231325478+231330382+231329376+231284228+231203028+231189565
2467+231230295+231258715+231304480+231427482+231568445+231598895+231541633
2453+231541535+231685698+231887318+232029613+232170463+232379585+232628366
2440+232867208+233057509+233153763+233122712+233076802+233191034+233441325
2426+233665032+233845264+234014550+234106322+234196422+234395719+234639774
2413+234849482+234981627+235043712+235081779+235144871+235270748+235434350
2399+235626388+235791078+235848032+235903995+236065340+236266765+236335103
2386+236046404+235252738+233798249+231557840+228661919+225357919+221849490
2372+218257976+214700697+211311599+208083326+205337999+203752664+203552555
2359+204625939+207082356+210915229+215972599+221106460+223541245+221828930
2345+217929798+215470653+215249155+216030138+217063490+217950991+218732818
2332+219764076+221208902+222833197+224358914+225772413+227330708+229219472
2318+231297285+233208005+234680699+235904986+237211788+238581146+239958430
2305+241291086+242309076+242987178+243624291+244299940+244912238+245445625
2291+245893996+246313866+246808163+247284288+247554181+247612808+247617647
2278+247705083+247914385+248165196+248308075+248407919+248654784+248953746
2264+249170534+249376685+249560051+249662039+249775020+249966945+250184675
2251+250416615+250642773+250763729+250829761+250966616+251108066+251176778
2237+251256711+251368508+251435368+251532840+251747680+251958361+252077628
2224+252213866+252399717+252467730+252428218+252496393+252647750+252753879
2210+252910871+253152279+253324927+253429496+253504282+253503908+253569810
2197+253774288+253917558+253911581+253925678+254107079+254342657+254485650
2183+254603114+254776428+254938665+255012850+255022870+255017186+255040360
2170+255149152+255347768+255554747+255712681+255847961+255943176+255986520
2156+256034299+256105462+256226921+256418992+256671979+256987831+257224838
2143+257231887+257190458+257314922+257484256+257524597+257497525+257610831
2129+257930711+258209861+258206320+258091390+258157016+258302624+258361770
2116+258434688+258566686+258732075+258903894+258991347+259028147+259078410
2102+259093935+259103468+259174128+259300654+259426060+259463314+259482867
2089+259616295+259776990+259900415+260086444+260311043+260467808+260587059
2075+260641349+260574505+260573661+260709850+260793876+260800550+260806770
2062+260809336+260899761+261127023+261286273+261279404+261251812+261244861
2048+261220566+261236059+261355050+261556150+261700605+261704405+261755707
2035+261960575+262117194+262208235+262390319+262549942+262506776+262331806
2021+262239254+262372000+262663687+262931793+263131318+263314506+263504676
2008+263713945+263906292+264059744+264250061+264507514+264713892+264781142
1994+264809855+264996891+265373984+265767561+266088675+266358097+266591791
1981+266781393+266933578+267084042+267246037+267461054+267656146+267705207
1967+267768527+268009918+268277392+268462836+268662426+268915819+269207230
1954+269477887+269610779+269644785+269647465+269604607+269674115+270116103
1940+270801481+271346301+271656112+271839868+272012727+272251341+272580332
1927+272828479+272851118+272906399+273071170+273259392+273712066+274335846
1913+274803104+275136251+275532768+276104839+276699873+277093239+277288574
1900+277453605+277679666+278063873+278586444+278831019+278869540+279381816
1886+280199468+280738312+281097769+281585749+282153663+282596625+282928636
1873+282998079+282622869+282584835+283662133+285029673+285895526+286395556
1859+286881166+287484905+288095822+288644929+289139243+289454495+289416655
1846+289300572+290087466+291617601+292644100+293242058+293986792+294643734
1832+294649905+294536647+295245524+296285633+297387551+298722221+299868247
1819+300742999+301593911+302311883+302635449+302949498+303831884+304970699
1805+305804235+306248237+306625785+307323521+308138868+308439990+308474516
1792+309704926+312026112+313674214+314493036+315156863+315847032+316696288
1778+317702455+318139928+317653605+317570131+319293652+321676420+323460744
1765+324271544+324700735+325752601+327037479+328195718+329260478+329588007
1751+329359023+329856975+331371909+332976780+334100265+334903594+336049620
1738+336994237+336891275+337581996+340144899+342477518+344385493+345851220
1724+346814189+347269332+346639803+345680895+346888925+350013376+352780546
1711+354583026+355279171+355481002+356155612+356526956+356381024+357493140
1697+359828033+363259680+366790488+368602582+369294050+369121224+368140879
1684+369511991+373981440+377490162+379076552+379851786+381143355+382327707
1670+383682548+386850943+389953437+391592088+393475119+396404786+398627331
1657+398593811+396680314+397910691+402835445+405246049+407473953+412114345
1643+416263735+418671286+419638120+419631136+421723956+427025251+431239212
1630+433645107+435735457+438066063+440937266+444968202+448545522+451102708
1616+455365649+461141803+465816688+469842265+474261695+479256801+484405733
1603+489550994+494911176+500487123+506193899+512131154+518019039+523442394
1589+528695359+534195628+540029986+546394256+553196486+559096681+564146029
1576+571267994+579097503+584663219+590342225+597855054+605247317+611783537
1562+616637679+620095180+628539472+641429178+652240810+661700883+670900076
1549+680100829+687745982+693460456+697875858+703685434+716423848+729351425
1535+737682362+745920665+756115891+764779294+771639144+778571165+786265688
1522+794774550+802349871+809502562+818746382+828627267+836294116+841468382
1508+846350718+855927589+867899993+875952186+881101573+885577258+891639593
1495+898097341+902290385+904937833+908673233+915739851+923490240+928704911
1481+931439471+933084520+934634468+936107373+937602365+940146202+943901285
1468+947325851+950575804+953844855+954716100+952642054+948615893+948373917
1454+952822838+953803736+950328761+946355152+944002752+942011206+939858364
1441+937324465+932502478+924888376+919130768+917678196+917123761+915629939
1427+914057905+913717514+915198019+917843454+921300175+925944692+931920825
1414+937773729+942877968+948672863+953517197+954776968+953959380+954002708
1400+956629435+961779211+966408332+970424944+975384777+978910940+980463811
1387+980221770+978301939+977291940+977975255+979904505+983200320+987350295
1373+989958703+990122597+990748617+992514752+993264717+992370541+991464867
1360+992273686+993308370+991406338+987493078+985506728+985422085+984750073
1346+982991149+981772562+981167524+977538983+970623137+965722678+964923149
1333+965718975+964955045+962693329+962487406+966109775+969758259+968782623
1319+965394629+965006623+968632240+974770644+980434384+982412744+983138023
1306+985375509+987346463+988577781+990881461+994581198+996581319+995172270
1292+994560605+997774896+1003355942+1010289587+1017612083+1023078799+1027074624
1279+1030866865+1033285459+1035281357+1038758281+1042803736+1046022508
1267+1046287740+1043333096+1041610744+1043557663+1047053620+1050726138
1256+1054803943+1058679722+1061194002+1061018740+1058207592+1056920083
1244+1060302035+1064301823+1064136369+1062048552+1063756548+1069696239
1233+1072956326+1071544093+1070928661+1071730139+1072119640+1073079815
1221+1073741823+1071674988+1067220934+1064127015+1064908290+1066803826
1209+1066873203+1066706385+1067572563+1067748605+1067071591+1067595039
1198+1069051510+1069968941+1069564564+1067080621+1064048543+1062667492
1186+1063813518+1066427966+1066358004+1063085705+1060952870+1060011209
1175+1057637242+1054582884+1052487791+1051293435+1049464743+1046517309
1163+1044572859+1044755072+1047253177+1051932122+1054960822+1052692935
1151+1048514702+1045704723+1041730140+1038212746+1038842340+1040993493
1140+1042848558+1043721362+1041655696+1038076525+1034923102+1033158722
1128+1033338531+1032543225+1029237406+1026909496+1024729370+1020504301
1117+1019972733+1023737430+1024223786+1022172086+1021533724+1019809358
1105+1017528350+1018213159+1020262974+1019513465+1014685566+1010439515
1094+1012688108+1018942141+1023123232+1023764388+1020395103+1015766957
1082+1015130023+1017097924+1018051018+1020141174+1026821085+1036040676
1070+1041705521+1041917096+1039516301+1037067760+1037302266+1040738784
1059+1043091444+1042813025+1045191084+1051052628+1051467138+1043910396
1047+1040042477+1043338162+1043959051+1041787825+1041822319+1041320047
1036+1040889297+1041162259+1040615815+1042072155+1044880900+1045036219
1024+1040454714+1030637426+1020567312+1016451441+1019503721+1027620354
1013+1033178794+1029001795+1021559643+1020206329+1026040330+1032207966
1001+1031336006+1028572864+1030247665+1033601360+1037094913+1041544484
989+1045038233+1045374791+1043968145+1042227410+1039618093+1038070744
978+1040581581+1046227782+1051291096+1053912496+1052865534+1049343008
966+1047964360+1048753625+1050542301+1054806671+1061108515+1066798759
955+1068531959+1066813050+1065201650+1065202819+1067166173+1070046698
943+1070936586+1067827921+1063691133+1063584858+1066446480+1067838770
932+1066486171+1063254081+1060375310+1059522579+1059572468+1058696806
920+1057093267+1057143351+1059949887+1064200030+1068803622+1071654071
908+1070063718+1066927185+1066304023+1067173189+1068109913+1066665331
897+1063010156+1062458320+1062766946+1059380316+1055960233+1055876239
885+1059160946+1062994241+1061903821+1055987711+1051952845+1052766730
874+1055354220+1057210390+1058004916+1056710587+1052820127+1048785975
862+1047641963+1049351388+1050702558+1048673594+1043712592+1038991163
851+1037614919+1039276858+1040439838+1039523251+1039176364+1040583530
839+1041849797+1042272752+1040949970+1038063728+1035878341+1034231862
827+1033563488+1034104151+1032230897+1027867397+1026366040+1029814901
816+1035712822+1040720466+1042115289+1040365199+1037155196+1034353662
804+1034890817+1036151953+1032862893+1027625941+1025872733+1026537534
793+1025956466+1022910163+1018083888+1013327056+1008455764+1003705167
781+1002437731+1004814815+1005967532+1002048295+996694090+995139530+995981023
768+996722607+995721312+990299029+983268333+981621660+981047478+966229626
754+945578554+944542895+962886196+978140449+980433670+976581342+973341782
741+972437732+971178091+969470745+969091313+967140757+960912643+953851611
727+946920175+938720458+933685921+932388928+929148783+924563251+922805690
714+924212141+927514647+930150533+929974166+929385368+929122085+927632160
700+928597987+934224570+941128463+944644948+939745333+928716604+922383775
687+924392470+927325029+927025953+927497043+931012423+936307060+942308073
673+944250770+935233660+921161810+922961010+937459063+944726797+946330532
660+947950247+947852222+945448829+943629102+938046172+929100063+929798969
646+936634199+932900423+927585389+936714555+952946717+961105575+955968661
633+944331190+949183644+990253622+1046600393+1045726290+985080525+938423980
619+927634044+936852725+947384185+949433611+942911553+938334270+944059462
606+949465701+945097135+942230576+936451272
##END=
