##TITLE=Sample description
##JCAMP-DX=4.24
##DATA TYPE=INFRARED SPECTRUM
##DATE=12/9/2023
##SAMPLING PROCEDURE=Instrument type and / or accessory
##ORIGIN=Default
##XUNITS=1/CM
##YUNITS=ABSORBANCE
##RESOLUTION=4
##FIRSTX=4397.6552
##LASTX=599.8556
##DELTAX=-1.9287962
##MAXY=1.9851637
##MINY=0.34250364
##XFACTOR=1
##YFACTOR=1.8488278e-009
##NPOINTS=1970
##FIRSTY=0.34853885
##XYDATA=(X++(Y..Y))
4398+188518830+188806871+189217307+189859447+190704741+191509850+191413906
4384+190158110+188702658+188254195+189071070+190005845+190442379+190766914
4371+191213685+191598846+191370351+191183606+192119750+193033778+192326677
4357+190436447+188975159+189266279+190662024+191022265+190285858+189780042
4344+189797193+190152646+190177841+189838314+190197748+191197936+191468987
4330+190656060+190089505+190530972+191402735+191532675+190382205+189690240
4317+190612247+191182848+189893217+188359327+188539672+189847937+190836632
4303+191344076+191499694+191267685+190887763+190776409+191418452+192204668
4290+191847458+190559762+189738695+190503021+192294390+193485546+193585165
4276+192781829+191648526+191067754+191281435+192026950+192610414+192660530
4263+192345553+191735701+191157798+190784839+190654432+191144677+191918723
4249+192288554+192456004+192490952+192204990+191925477+191791668+191712473
4236+191674157+191546441+191175304+190827863+191102427+191875587+192317215
4222+192100584+191870042+191907874+192034655+192782426+193863566+194389951
4209+194456750+194125590+193592016+193388538+193412040+193299187+193296125
4195+193499941+193114022+192050790+191426995+191937873+193167635+194164115
4182+194466954+194309321+193861051+193062842+192329724+192251383+192558251
4168+192803897+193294642+193880395+193643904+192899099+192774221+192948957
4155+192356740+191371608+191282757+192103840+192939479+193175582+192411176
4141+191286400+191176706+192175185+193022817+192855528+192245483+192054998
4128+191884888+191401365+191619705+192849080+193876703+194000582+193806599
4114+194033821+194632969+194895993+194435295+193565112+192647199+191906794
4101+191533932+191847200+192700603+192929485+192644829+192965254+193204791
4087+192811586+192611639+192682533+192682630+192608673+192285782+192040071
4074+192391365+192773882+192832219+193013016+192944234+192158824+191489732
4060+191809690+192463742+192476670+192479475+193099562+193247427+192378824
4047+191897123+192628903+193481451+193763818+193817335+193522169+192953567
4033+192585106+192465128+192565908+192621762+192563087+192804316+193005585
4020+192847146+192738613+192753040+192846888+192881819+192667123+192943928
4006+194239313+195291744+194828403+193633556+193018819+193011662+192949650
3993+192675650+192807121+193266803+193188059+192688739+192472156+192630225
3979+192663947+192271032+191967597+192172767+192578352+193018078+193519897
3966+193656929+193596142+194087435+194471226+194044154+193382171+192836765
3952+192759601+193492719+194324086+194190809+193452968+193573317+194409214
3939+194583805+193793236+192724266+192565956+193512917+193959477+193289612
3925+192825546+193103899+193104398+192793194+192973797+193296479+193149372
3912+193408220+194168548+193473811+191378330+190802345+192376390+194060708
3898+194789797+194000582+192085496+191387921+192828641+193599334+193349271
3885+193458223+192852739+192354532+192943025+192252221+190985883+190438349
3871+189841054+190551912+191369142+191055777+192184502+194035207+193496491
3858+190047466+185325413+185254486+191256176+194876585+194845667+192823708
3844+190436270+188790010+188429092+190114861+192300676+192739902+192372408
3831+192458906+192715707+192935094+192106806+189583286+189122959+191064337
3817+191989262+193665859+195525462+195147506+193127288+192001078+192152956
3804+191184895+191090741+192762841+193074996+193242366+194029791+194274809
3790+194103941+193556407+193151887+193507146+193474423+193110975+193919356
3777+194958069+194719709+193247879+192140754+192968623+194460329+195362687
3763+194956183+193291611+192701828+193349658+192349889+189470723+188482883
3750+191071865+191971321+191270909+193348030+195067054+193357572+190601786
3736+189685017+191158798+193444554+194767471+194732959+194373831+194382552
3723+194929586+196683073+198974471+200080677+199344754+198356205+200384709
3709+204503100+207696920+209549785+211592748+216131698+221616385+225181713
3696+226653898+226128577+223875398+222689304+224353070+225314780+223820511
3682+221093611+217951599+214218482+212051688+213351506+213130410+211481877
3669+212824767+214787809+215056442+214904402+214786552+214017277+213599796
3655+214072293+212821898+210375897+211603032+215989105+218316884+218523328
3642+218530034+218853989+219003917+219042507+218840223+217470719+216413452
3628+219201092+222010105+221606826+219643252+218404752+219335126+220420151
3615+220381158+220551719+220708659+220588391+221505917+222823402+223166040
3601+223027960+222983825+222577450+222143366+222436452+222654018+222081273
3588+222359481+224069091+225163014+225505104+226000346+226468974+226380542
3574+225888750+225367297+224735974+224398962+225399956+226919516+227701719
3561+228157403+228717897+228881978+228385398+227981603+228158418+228334283
3547+228506827+229067321+229553761+229567737+229214896+228898001+229089018
3534+229514107+229456528+229025603+228807941+228752763+228786534+229001972
3520+229073882+229054071+229254034+229285677+229022299+229171115+229698064
3507+229674948+229279406+229436088+229706752+229457124+229305746+229511028
3493+229610921+229583921+229498423+229047848+228411915+228359671+228955725
3480+229440102+229435153+229231902+229245958+229529131+229772423+229823635
3466+229715634+229483899+229384296+229495279+229543413+229611034+229932588
3453+230210956+229958750+229451515+229499277+230018876+230371056+230630646
3439+230997979+231201811+231146118+231240917+231696037+232060388+232092514
3426+232074283+232076298+232121094+232304148+232540364+232960570+233695316
3412+234357363+234633653+234686880+234650691+234766946+235394497+236269613
3399+236941783+237426724+237844125+238084322+238074409+238165130+238463439
3385+238726413+239121440+239609363+240003680+240563497+241120799+241330966
3372+241488100+241881224+242283118+242341229+242314454+242758758+243489072
3358+243987376+244315716+244845421+245587921+246107052+246164551+246351506
3345+247000109+247401777+247569098+248180014+248933556+249376715+249650490
3331+249806689+249813942+249868217+249846246+249678457+250061394+250811906
3318+250775411+250000301+249391819+249377005+249802578+250253539+250534214
3304+250493028+250055720+250014373+250734129+251472196+252436340+253902528
3291+255068764+256146567+257832755+259617047+261111042+262123174+261929095
3277+261365135+261895888+262941307+263839152+264718265+265385325+265903151
3264+266329401+266485229+266433517+266204248+265816766+265535802+265563850
3250+265575279+265179881+264869708+265120706+265495374+265825196+266312266
3237+266867714+267216397+266924487+266165400+265862481+266388173+267012855
3223+267052944+266722235+266239325+265762701+265664597+265551518+264846158
3210+264120616+264187818+264754179+264820915+263875646+262533982+261837148
3196+262011063+262381345+262348171+262014609+261541112+260924716+260421430
3183+259953092+259322398+258762855+258373761+258141107+257874731+257345460
3169+256956543+256717555+256129013+255673199+255787423+255958161+256111604
3156+256564273+256983447+256814014+256256325+256016820+256238174+256510531
3142+256486497+256004054+255175217+254399898+253919341+253720844+253902399
3129+254073073+253540209+252747190+252225286+251575071+250853526+250338699
3115+249657792+248783337+248194650+247628789+246518585+245215430+244224108
3102+243505626+242798283+241864073+240972338+240374689+239687962+238839637
3088+238302243+238180008+238044926+237637810+237227712+237047350+236906481
3075+236630127+236291438+236013585+235870492+235832820+235791167+235695369
3061+235580033+235443468+235340625+235417161+235507237+235289010+234950209
3047+234932332+235150801+235220679+235193002+235271682+235287882+235000147
3034+234431255+233863911+233516647+233224657+232824440+232412520+232126849
3020+232059324+232094126+232143678+232338902+232484349+232189296+231458805
3007+230752123+230580079+230748931+230635079+230245356+230040218+230177347
2993+230443175+230643429+230981053+231771944+232809303+233437371+233264359
2980+232691518+232521633+232993437+233543196+233532798+233077050+232819862
2966+232739602+232301359+231713430+231385413+231126935+230866443+230848034
2953+231032394+231066697+231029444+231322385+231719652+231856943+231825751
2939+231704838+231535615+231390684+231193993+230812587+230292376+229880441
2926+229759028+229804792+229660650+229119951+228447120+228135835+228178600
2912+228185419+228209598+228403936+228552623+228597097+228673423+228688994
2899+228605414+228641006+228837891+229068159+229249085+229371546+229498020
2885+229556099+229623672+229933361+230280561+230437566+230509862+230522516
2872+230541682+230693722+230769597+230625004+230580643+230770257+230841764
2858+230642961+230492630+230465049+230226802+229700933+228987916+228378612
2845+228426374+229015174+229506112+229690488+229726805+229813722+230065171
2831+230367719+230462599+230377552+230334690+230274613+230151749+230135420
2818+230329049+230630340+230801239+230831705+230824919+230768017+230851581
2804+231226764+231684915+232032340+232220874+232265622+232320687+232518974
2791+232721935+232701625+232538881+232495778+232630070+232839302+233016263
2777+233111755+233131727+233097135+233107000+233139384+233038814+232923043
2764+232948577+232945981+232861628+232909583+233074148+233161210+233256912
2750+233536909+233823757+233933854+234043128+234198924+234211191+234077576
2737+234011550+234161220+234388974+234545140+234674065+234822058+235026181
2723+235246116+235311400+235255401+235356535+235598055+235767246+235824035
2710+235723094+235685729+235962341+236243128+236355562+236466142+236518676
2696+236521207+236683676+236961013+237131526+237181287+237251037+237428320
2683+237668647+237808565+237765783+237723018+237791494+237743603+237556616
2669+237570221+237817656+237971566+237906781+237788689+237724711+237693471
2656+237793138+237955898+237812030+237500665+237462655+237585325+237637407
2642+237589613+237384152+237145679+237080427+237087310+237089325+237141053
2629+237033342+236754054+236632093+236672247+236703455+236710773+236685240
2615+236564327+236358915+236239018+236249318+236200443+235990663+235612659
2602+235203335+235092303+235325183+235655457+235847957+235739552+235487555
2588+235316607+235190391+235084791+234960493+234757258+234505228+234214076
2575+234077318+234269753+234473682+234364794+234125967+234042983+233991368
2561+233765178+233490888+233246337+232978688+232752627+232618141+232505659
2548+232328166+232095577+231826477+231565194+231432772+231473539+231614424
2534+231670810+231517545+231254538+231097195+231118972+231131836+231032507
2521+230896909+230782154+230729652+230641752+230391834+230117060+230042862
2507+230129488+230109645+229887743+229723952+229826908+230043829+230201897
2494+230261024+230198899+230136919+230212552+230417126+230705602+231013228
2480+231274027+231412252+231347016+231160867+231057218+231066680+231031072
2467+230969560+231076078+231267853+231332186+231307072+231298883+231350788
2453+231426550+231496461+231641746+231752407+231759468+231923436+232206544
2440+232401736+232681814+233061156+233256847+233256815+233227413+233226736
2426+233259233+233330353+233483182+233745657+233994898+234074561+234062504
2413+234157094+234347305+234534147+234758241+234998842+235137196+235186893
2399+235264170+235440147+235664484+235871298+236053401+236165674+236195027
2386+236013795+235238121+233556946+230954875+227737649+224293572+220731984
2372+216949590+212917213+208948121+205510057+202860805+201206162+200879660
2359+202154590+204904977+208886335+214213340+219635031+222220401+220656061
2345+216868057+214430487+214173266+214731939+215521379+216485249+217342504
2332+217976923+219091527+220994491+222857447+224269828+225717221+227586673
2318+229797570+231867372+233428424+234789287+236335848+237931380+239379659
2305+240689697+241750898+242498169+243166535+243894447+244598630+245229567
2291+245734722+246080165+246416322+246871749+247301319+247595083+247839294
2278+247998717+248030424+248103510+248246394+248285903+248273765+248409911
2264+248696824+248999146+249226207+249393109+249551290+249765181+250073597
2251+250347565+250454825+250444943+250457323+250604898+250834038+251014851
2237+251136151+251200516+251222681+251302102+251412940+251486204+251668693
2224+251988925+252156810+252119090+252137386+252194691+252183553+252253205
2210+252435083+252658258+252929357+253169394+253275348+253278217+253356252
2197+253566935+253704193+253669262+253590711+253637055+253914296+254280097
2183+254512171+254644674+254713085+254680008+254694032+254831661+254941564
2170+254991438+255138174+255377163+255521450+255568906+255636737+255708679
2156+255781732+255917572+256073513+256174196+256267415+256457111+256745425
2143+256996455+257076828+257048457+257167307+257494164+257753866+257841170
2129+257911516+257993129+258022080+258035475+258088992+258161369+258258199
2116+258392443+258501637+258578253+258668007+258770447+258871823+258944942
2102+258996154+259077283+259149306+259183866+259248086+259360182+259517606
2089+259630394+259629234+259716650+259938407+260047634+260028500+260020891
2075+260047811+260209377+260538346+260755460+260700573+260599874+260672654
2062+260841958+260961872+260994836+260957358+260971753+261099807+261199845
2048+261183097+261158450+261216851+261262792+261256682+261306137+261460079
2035+261663299+261834731+262012546+262234996+262351863+262275633+262194262
2021+262271313+262408475+262554115+262781611+263030723+263186841+263270276
2008+263429150+263664706+263767581+263750687+263894200+264273171+264591485
1994+264641810+264702516+265034902+265453946+265747436+265891996+266003914
1981+266171719+266325790+266458905+266669556+266929887+267062519+267064695
1967+267170230+267476357+267838822+268119174+268285254+268383212+268559351
1954+268867734+269183195+269475862+269760404+269906367+269916329+270141923
1940+270672885+271141739+271405585+271572068+271750350+271991402+272302478
1927+272593823+272755277+272914280+273084793+273235769+273713908+274485552
1913+275037841+275258583+275414395+275706643+276190617+276766150+277208858
1900+277510101+277768143+278023477+278341549+278554295+278734608+279293668
1886+279984907+280451408+280809359+281198325+281700804+282220693+282601889
1873+282715112+282458940+282445110+283424342+284733122+285634690+286267642
1859+286887343+287539218+288129163+288604336+289031408+289385329+289463864
1846+289393357+290115997+291615956+292706607+293394333+294168524+294712978
1832+294524122+294347838+295211912+296472559+297692102+298954523+299897486
1819+300596108+301360886+302004089+302375581+302938799+303951302+304955100
1805+305629704+306011835+306361888+307169253+308257389+308733110+308767735
1792+309851551+311913664+313361041+314152319+314919095+315686548+316571255
1778+317543749+317829549+317263268+317286319+319133752+321573321+323390190
1765+324183467+324517690+325487896+326829173+328131345+329263326+329542195
1751+329249173+329712676+331176269+332707790+333793734+334581078+335680498
1738+336665855+336728722+337496820+340013311+342290073+344049299+345341444
1724+346257842+346834891+346380673+345491453+346788918+350125670+352950917
1711+354632640+355193795+355266752+355881972+356310978+356152200+357199811
1697+359644893+363221570+366711620+368417458+369153413+369156315+368439961
1684+370014714+374142229+377044494+378316490+379279957+380889691+382065775
1670+383262331+386488246+389800464+391455655+393153659+395916232+398031604
1657+398145860+396867996+398732773+403441947+405375845+407425449+412390247
1643+416852081+419323696+420273623+420266111+422390510+427619959+431773652
1630+434502728+437238124+439926225+442781292+446803610+450326093+452731263
1616+457005594+463046696+468127458+472599964+477291019+482093460+486580860
1603+491136124+496508908+502579734+508524441+513963283+519288095+524915762
1589+530919273+537051354+543135753+549529551+556532218+563013578+568491591
1576+575221966+582517622+587869837+593276021+600907674+609186689+616610593
1562+621804321+625451214+633874080+645852860+656486881+667128124+677264372
1549+686304360+693389559+698503334+702873545+709291651+721612425+733820748
1535+742174687+750412887+760318432+768784692+775457939+781593953+787198988
1522+794379293+804190248+813481830+822032170+830899356+839015692+845173113
1508+849853787+857094250+866955820+874586699+880580668+886074607+892069606
1495+898822097+904126728+906758088+908633697+912919764+918020321+922001341
1481+925054518+927625332+930601006+933610467+935623673+938728755+943824605
1468+946648884+945716076+946227196+949845976+949815672+942903403+939770402
1454+944696158+948466076+949677366+948848755+946034792+942395508+939168755
1441+936076311+930855889+922907841+916860098+913920338+910044225+906736230
1427+906005561+905301716+906881112+912399166+917928181+922798164+928684066
1414+933543861+935311727+936525983+940359025+944310062+946044593+948458984
1400+952703010+957341258+961038444+962942811+964489194+967368989+970382576
1387+971158895+970579880+971584194+975340184+980552031+984009164+984299639
1373+983068490+982503338+983348133+984962154+985488748+984155917+982989633
1360+983238971+983816116+984200213+984899868+985536398+984849188+982632939
1346+979664100+976621239+973325431+970274188+967264083+963212137+961074423
1333+961931920+962936234+964157711+964946152+963015220+961712758+964335736
1319+967675712+969543262+971555952+974244182+976437089+976419938+976346626
1306+979553133+983353033+985206526+986610864+987120565+986760002+988561397
1292+992313648+995336972+998382605+1003511532+1010684550+1017910506+1022302317
1279+1024012539+1026783495+1031269702+1034401414+1034941484+1033274720
1267+1031600089+1033027703+1035735599+1037127170+1039966279+1045032469
1256+1048206091+1048533318+1049604497+1052172990+1054300839+1056756108
1244+1060163465+1062580950+1063953629+1065581577+1067041366+1067306436
1233+1065698734+1063579848+1063151132+1063828154+1064971161+1067345897
1221+1069403722+1068008089+1063463465+1059370575+1058276507+1061018318
1209+1065551466+1066152468+1061833324+1058376706+1056668740+1054261249
1198+1054050276+1056701173+1057530170+1055939039+1054145382+1050784965
1186+1046014022+1044713494+1047689684+1050072803+1050760722+1051825194
1175+1051441290+1048266185+1046412175+1048063787+1049381531+1047040388
1163+1043024098+1041265517+1042166150+1043025904+1041628723+1038155276
1151+1035754556+1036695552+1038631062+1037900781+1035925359+1035696267
1140+1035084626+1031990634+1027919861+1024432164+1022318823+1022115201
1128+1024389222+1027862410+1029184732+1025955722+1018915916+1012966438
1117+1012629087+1015234914+1014454339+1009627042+1003914521+1001282001
1105+1004445823+1009791590+1014845465+1019352821+1019487194+1016474767
1094+1015613595+1017322915+1018313366+1020001150+1026301326+1030122246
1082+1026360066+1024998413+1029245277+1029554708+1023838061+1021003659
1070+1024609028+1027447428+1026282756+1028173196+1034745212+1037337627
1059+1032495370+1029807141+1034914983+1040086079+1038742029+1034691179
1047+1035584010+1041550704+1043994755+1042091871+1041583975+1041887603
1036+1041102516+1038761695+1036510241+1039661683+1044782228+1041855300
1024+1033819304+1027799995+1024304562+1022649532+1021498853+1020846525
1013+1021648958+1023665582+1026164439+1026983958+1025446602+1023244603
1001+1022005846+1023946449+1028486818+1031655347+1033023125+1034052457
989+1035945669+1038982017+1037459169+1031875025+1031041771+1033512064
978+1034920593+1039296607+1047950563+1055499426+1058174051+1057630886
966+1054976314+1050765880+1049395200+1051031659+1051363529+1051894831
955+1055615358+1060718107+1064686940+1066892808+1067694789+1066731290
943+1064099156+1062555610+1063001864+1061933394+1058615340+1057004930
932+1059171337+1062529883+1062731120+1058416876+1054338301+1056174192
920+1061066612+1061459479+1057864104+1057014022+1061932878+1069506501
908+1073741823+1071935979+1068820903+1069127175+1070920703+1072243412
897+1073184601+1071393136+1067776999+1068303722+1071905158+1071693154
885+1069142521+1067880745+1067619027+1070206284+1072109297+1066010229
874+1057154068+1053292978+1053005727+1053940469+1053550247+1050660071
862+1048128137+1044669585+1040911853+1042069948+1045410118+1044591759
851+1041736144+1040204655+1036009567+1027864087+1022743542+1024852885
839+1029826484+1030869421+1028928624+1029277903+1029302211+1025082428
827+1022003911+1024317006+1029548712+1032899134+1031227018+1029401379
816+1030436900+1030120570+1028902961+1028738929+1028702240+1029332838
804+1029245406+1025790593+1021715887+1021113595+1023408765+1022659011
793+1011507552+997725377+995849639+1003186690+1006980400+1003295465+999560301
779+1002527657+1007522792+1005543566+996930682+990835483+991314170+993008853
766+992543578+991591362+990871720+987263578+981497670+982851456+991048390
752+993044381+986067312+977837558+972356580+969213584+965970519+961937723
739+958283157+954557987+951970472+951471410+950216275+947995900+946161879
725+944303227+942491258+940299640+938644740+936145109+928343685+919935004
712+919326845+924021833+927670725+929708691+931007929+932481774+936598521
698+942993931+945862377+942632014+938788527+936378585+933353521+931837120
685+934200379+938511850+939608626+937104289+937909881+939834687+934678937
671+925061481+917193515+922520778+939913544+951301574+951487014+943048995
658+933502401+931899986+938755901+942183374+934741997+925911821+925155749
644+936085789+953704294+963059259+960036258+954246815+954270994+951683350
631+949088421+964809007+980805237+974786509+963855372+948515595+927832437
617+915901950+909814424+905510175+921993087+957940906+969179346+952953573
604+944280596+937118667+918391780
##END=
