##TITLE=Sample description
##JCAMP-DX=4.24
##DATA TYPE=INFRARED SPECTRUM
##DATE=12/9/2023
##SAMPLING PROCEDURE=Instrument type and / or accessory
##ORIGIN=Default
##XUNITS=1/CM
##YUNITS=ABSORBANCE
##RESOLUTION=4
##FIRSTX=4397.6552
##LASTX=599.8556
##DELTAX=-1.9287962
##MAXY=1.8707756
##MINY=0.23945324
##XFACTOR=1
##YFACTOR=1.7422955e-009
##NPOINTS=1970
##FIRSTY=0.25354898
##XYDATA=(X++(Y..Y))
4398+145525816+144031420+142834355+142922490+143887258+144343197+143734029
4384+142993622+142660943+142703842+143544503+144791251+145434834+145721107
4371+145835181+145273737+144643975+144625997+144670214+144132632+143283469
4357+143224636+144483733+145914772+146122087+145643569+145890209+146391767
4344+145681679+144531747+144802403+146002248+146763087+146840283+146307730
4330+145608058+144905684+144300382+144700593+145629953+145895699+146252223
4317+147061436+147037078+145933587+145015688+145150819+145740709+145786996
4303+145310547+145292142+146255268+146951484+146734983+147025601+147773338
4290+147648265+147175767+147048145+146991921+147127086+147032443+146232535
4276+145656842+145633237+145580964+145764331+146351690+146881661+147107945
4263+146932514+146858004+147561370+148180921+147783105+147428788+148019430
4249+148647174+148554481+147977163+147232711+146769296+146879266+147310745
4236+147817247+148268277+148404503+148371541+148559151+148453920+147597462
4222+146931180+147380311+148330437+148882080+149127728+149116969+149253999
4209+149878390+149954816+149494429+149311729+149178667+149436545+150295569
4195+150639948+150229098+149948196+149800253+149316022+148654444+148421095
4182+148740945+148810033+148462506+148305977+148555935+149055031+149462579
4168+149969954+150513763+150258467+149586917+149594255+150072688+150247366
4155+150153322+150198890+150294440+150096943+149681680+149474895+149810123
4141+150552711+150957762+150559724+149835815+149550466+149653456+149434818
4128+149293717+149904150+150320269+149822610+149212159+149285198+149845172
4114+150242029+150225728+149777418+149221242+149284976+149907127+150072790
4101+149244608+148474275+149057597+150336587+151019187+151033556+150648056
4087+150091196+149810397+149899788+149961761+149955876+150405709+151223475
4074+151562329+150946131+149860618+149539245+150456101+151515118+151682065
4060+151071221+150326307+150024024+150282552+150673337+150807904+150647560
4047+150390468+150493254+151063079+151305272+150802687+150385097+150466005
4033+150576282+150848494+151348702+151273679+150607482+150409113+150849965
4020+151082802+150979401+150990570+150948440+150730674+150840250+151514024
4006+152112860+151866134+151331580+151440095+151597668+151341261+151173989
3993+151093612+151190256+151744191+152299290+152371320+152198369+152215388
3979+152084551+151389737+150806330+151029775+151545617+151563800+151626644
3966+152294124+152690434+152546408+152163372+151549739+151319828+151354860
3952+150989664+150654932+150756024+150508221+149783764+150137226+151674146
3939+152802285+152687492+151287089+150090409+150634543+151254640+150276360
3925+149441848+149822216+149521849+148797187+149794899+151873951+152763884
3912+152333996+151317776+148451713+143835788+141637692+143574335+147395980
3898+151097974+151835106+149125453+147462827+149328440+149533019+147764871
3885+148118623+148239780+148585921+150864454+149850697+146114766+143928532
3871+143868869+146273417+147280349+145723057+146880189+150107411+150327607
3858+145946416+138479225+137435491+146725883+152782717+153177214+150609740
3844+147305151+144116074+141346373+142029778+146046721+148489105+149273533
3831+150408993+151255855+151044264+148426996+143636701+143348923+146746837
3817+148257894+151643083+155394818+154965683+151100334+148163388+147665421
3804+145550448+145236379+149296984+151701274+153491283+156161628+157299962
3790+156858340+155763692+154855543+155115730+154903660+153698547+154536804
3777+156670696+156689802+154128999+151768669+152158719+153618888+155044932
3763+155312748+153394621+152500002+153365953+151593426+145857315+141976803
3750+145417609+147678797+146528181+150232639+155231549+154354668+149770319
3736+147239159+150737003+157487127+161662217+161558080+160487209+161557909
3723+164312617+168147536+172497903+175494888+175026616+172764675+176168047
3709+185837636+194822025+200697886+206346042+215621732+225430815+231398462
3696+233642357+232145070+227681809+226393804+231807943+236222626+235744364
3682+232484215+227663352+220837520+216710445+220930743+224168126+224187557
3669+228387313+233890365+236669756+238038668+238594827+237857815+237950747
3655+239694760+237904170+232757008+234180196+244223945+252577511+256485263
3642+258309551+259800338+261032374+261639951+261333836+259533753+258411378
3628+263127283+269132151+271231182+270529612+269530685+271079886+273672146
3615+274837797+275653698+276769402+278693533+282298574+285285485+285752269
3601+285472651+286344999+287659979+289023058+290902510+291517784+289711680
3588+290000689+294970983+299211534+300594695+301212672+301831881+302253421
3574+303030750+303372478+301455463+299129771+301034436+305184501+307179549
3561+307820858+308878814+309792882+309617965+309121674+309243634+308947714
3547+308312051+309301621+311283464+312226200+312062606+311766892+312010606
3534+312382610+312219290+311649174+310769042+310012924+310224515+310826037
3520+311077107+311637268+312219393+311471006+309830274+309016717+309245790
3507+309096324+308229432+308072988+308758496+308602360+307509440+306918319
3493+306854311+306141400+304679008+303443943+302870064+302567302+302316676
3480+302067624+301554126+300952297+300724558+300760205+300603111+299973434
3466+299021461+298095248+297474261+297356201+297318330+296763164+295983782
3453+295348803+294363406+293013976+292360455+292438557+292334421+292213726
3439+292297508+291921706+291022657+290243549+289835350+289686261+289519075
3426+288901509+287796991+287029754+287343122+288153566+288609762+289038624
3412+289789714+289854303+288763333+287840917+287625016+287349724+286860225
3399+286497458+286395596+286602723+287179904+287750978+287948236+288146177
3385+288345418+288189864+288133280+288435084+288326500+287509248+286841289
3372+286838518+287251370+287857920+288385616+288367895+287625460+286617451
3358+285883672+285450705+285200815+285221751+285644370+286188418+286177642
3345+285706171+285738859+286219378+286101848+285611904+285663014+285880062
3331+285778611+285727604+285769221+285495982+284917604+284588756+284516812
3318+283866301+282868794+282719653+282993987+282465521+281752730+281953409
3304+282769156+283321329+283140476+283057635+284153429+285996275+287705752
3291+288748417+289021587+289072390+289183984+289209368+289272418+289598067
3277+289863197+289749414+289857690+290589177+291096551+290859268+290642990
3264+290545695+289776132+288670828+288136940+288224553+288257669+287666102
3250+286842196+286496192+286415968+286057238+285540952+285039239+284324960
3237+283568995+283303950+283239463+282782652+282277569+282024583+281888101
3223+281922465+281851633+281190243+280025395+279231868+279465012+279989509
3210+279872731+279320456+278788809+278203007+277441021+276719387+276378497
3196+276327678+276068619+275444844+274728461+274103505+273190070+271728960
3183+270526687+270048716+269595343+268735207+267895735+267641945+267870043
3169+267869581+267337866+266693393+266107454+265219797+264000794+262956590
3156+262758768+263425204+263689599+262848126+262157777+262375424+262496939
3142+261854707+260905573+260275315+259745037+258664997+257578953+257121372
3129+256824836+256353793+255627369+254840239+254413584+254019257+253209839
3115+252163924+251159626+250351628+249600162+248637720+247615342+246620486
3102+245433214+244172749+243082668+242237483+241610218+240933587+240246180
3088+239966425+239939655+239582225+238853543+238141145+237551067+237000006
3075+236531169+236196420+236005458+235884387+235749889+235593650+235232251
3061+234645851+234345620+234485301+234640138+234802004+235043085+235038980
3047+234914231+234903660+234601685+233979244+233661019+233589245+233179866
3034+232649297+232531596+232594851+232401152+232023811+231750641+231704508
3020+231721511+231611353+231506584+231430979+231120314+230608851+230121062
3007+229872712+230090974+230386603+230122995+229464171+228914837+228801994
2993+229281966+230072295+230879952+231786305+232698817+233159237+233075353
2980+232906508+232795358+232654890+232600923+232395558+231848346+231396478
2966+231114071+230600983+230053702+229733544+229337866+228893729+228714347
2953+228690605+228647825+228597467+228524291+228495708+228644490+228905481
2939+229067809+228921371+228430982+227875970+227499450+227310523+227277544
2926+227159809+226658438+225957210+225291784+224632139+224153792+223894904
2912+223576029+223311959+223265228+223093012+222669419+222281148+221988153
2899+221784071+221820231+222081684+222473291+222849212+222888605+222591676
2885+222294080+222188814+222458957+223002919+223184765+222840882+222574365
2872+222653340+222767894+222685583+222394367+222092854+221994157+221847274
2858+221440855+221097622+220910901+220605129+220190002+219839483+219535797
2845+219232521+219179991+219543101+219869006+219768564+219444643+219258162
2831+219417070+219790818+220087850+220167030+219939531+219521189+219346613
2818+219582032+219779683+219559659+219182147+218980733+218921070+219035606
2804+219358741+219615302+219717386+219853304+219968131+219938180+219946698
2791+220139046+220258697+220006549+219582751+219413700+219384330+219190494
2777+219018313+218985557+218942520+218932872+218877298+218523032+218064339
2764+217905414+218059002+218253745+218222442+217987006+217812892+217813354
2750+217936511+218021251+217961947+217895887+217879243+217844126+217827688
2737+217873102+217951598+217974895+217975340+218102107+218256037+218290863
2723+218272321+218217618+218185290+218261493+218274989+218164507+218121692
2710+218135052+218175488+218299484+218327006+218262947+218316538+218356273
2696+218275656+218225863+218225316+218170853+218072412+218020840+218000998
2683+217910956+217752083+217613719+217487295+217318124+217130685+216863758
2669+216497519+216262322+216196638+216049260+215762679+215498968+215375674
2656+215375092+215382328+215328224+215268630+215177408+214916536+214640150
2642+214602365+214669007+214662490+214583036+214394896+214132998+213870279
2629+213648972+213561889+213493383+213212481+212891280+212851151+212946376
2615+212773716+212394322+212263981+212397487+212392697+212167593+211906277
2602+211700450+211572828+211469974+211324819+211131838+210918690+210777094
2588+210643673+210305743+209918156+209794075+209803277+209713817+209554567
2575+209377272+209244501+209181281+209089494+208947333+208740086+208431577
2561+208093954+207748908+207374629+207061159+206945972+207010870+206998981
2548+206787407+206561772+206409331+206224577+206015073+205925801+205925202
2534+205873237+205869884+205918292+205772880+205496871+205351733+205352486
2521+205434796+205577830+205670215+205624989+205471093+205275290+205184427
2507+205216209+205209213+205237624+205423917+205602478+205664775+205677793
2494+205602701+205390203+205200215+205205364+205355342+205550188+205799000
2480+206031443+206153625+206203264+206148476+205965297+205775446+205669479
2467+205716621+205899014+206013414+205941999+205775549+205722574+205956590
2453+206307794+206537688+206725281+206890637+206950334+206999426+207136952
2440+207350493+207618087+207860160+207959148+208019906+208215623+208442421
2426+208548525+208635573+208848003+209077349+209179673+209205125+209263300
2413+209409550+209618712+209851377+210050807+210160947+210247123+210399428
2399+210621539+210882633+211124791+211300119+211435901+211495067+211359817
2386+210887371+209746146+207550470+204249764+200242135+196012975+191700958
2372+187210329+182581421+178103312+174010755+170620658+168669398+168554263
2359+170147493+173404752+178077552+184115193+190377084+193496629+191676566
2345+187121912+183924847+183149416+183657065+184716168+185843828+186753329
2332+187489503+188725337+190745171+192675579+194135867+195913252+198484541
2318+201398361+203866864+205550803+206925361+208528563+210286978+211961680
2305+213510916+214868522+215972902+216854026+217527492+218085737+218705886
2291+219387187+219985578+220517037+221049744+221494291+221739991+221769531
2278+221704429+221709766+221730258+221679489+221742454+221991916+222229696
2264+222403348+222612835+222888776+223140496+223293314+223450922+223656184
2251+223812303+223946648+224097208+224219168+224395471+224660602+224819903
2237+224803174+224768929+224836649+225031870+225254409+225371836+225466223
2224+225608538+225720611+225816982+225867699+225853331+225987777+226289308
2210+226473531+226464927+226450713+226570826+226766988+226927401+227094330
2197+227281820+227423913+227565698+227690584+227757636+227869590+228033115
2183+228213473+228458231+228667496+228732205+228737952+228738312+228746129
2170+228884031+229173126+229433809+229596463+229733988+229832788+229922283
2156+230086578+230257408+230370576+230522419+230767913+230953213+230986603
2143+231058479+231254111+231401113+231481371+231629245+231807584+231921676
2129+232034450+232219118+232384047+232446737+232491929+232568030+232638897
2116+232724166+232830595+232926111+233027733+233145810+233211066+233230395
2102+233311628+233458442+233587432+233632709+233642288+233773348+234018466
2089+234220718+234354669+234481213+234559948+234519991+234488107+234583554
2075+234642498+234628711+234668053+234651188+234530476+234512208+234681909
2062+234858126+234951829+235086549+235232611+235247937+235150882+235096966
2048+235194073+235306693+235198451+234951230+234922322+235147290+235381050
2035+235566692+235701396+235738497+235723769+235764377+235892136+236008708
2021+235987549+235836784+235832387+236175261+236586539+236775021+236873154
2008+237045386+237207543+237305676+237381880+237437694+237526641+237561604
1994+237276272+237037278+237478695+238261652+238807530+239102937+239331018
1981+239558329+239723651+239869096+240060965+240291612+240415779+240234874
1967+240146372+240651351+241322029+241702124+241957898+242155480+242283667
1954+242496712+242795557+243028462+243075826+242788715+242284334+242477178
1940+243623158+244591689+245009775+245304668+245587246+245828071+246069305
1927+246087454+245611656+245259630+245377639+245496623+246155875+247484949
1913+248286516+248302989+248363644+249001189+249908346+250626816+251115597
1900+251424671+251420378+251316190+251514850+251545622+251430812+252225109
1886+253478357+254274484+254871216+255490681+256080041+256577221+256862006
1873+256382649+254707383+253594911+255275789+258133025+259929790+260745691
1859+261303201+261886044+262528772+263175417+263604860+263514476+262680358
1846+261437699+261877064+264577377+266722404+267563056+268341377+268922920
1832+268027206+266730340+267371153+268966230+270715802+273056068+274904901
1819+275794731+276449090+276959544+276868236+276917790+278208737+279946113
1805+280767299+280385870+279820064+280531949+282021607+282248781+281075860
1792+281687405+285218758+288101977+289104445+289507683+289866755+290571661
1778+291667626+291457676+289155863+287628505+290109068+294406272+297747842
1765+298893788+298474163+299108766+300660790+301898796+303014295+302676741
1751+300763797+300384541+302707017+305373205+306793793+307241641+308244246
1738+309245687+307970425+307337567+311275733+315926604+319543089+321866626
1724+322837209+322671665+320074890+315973540+316200937+321803063+327376999
1711+330606667+331042610+329853730+329462808+328899294+326939345+327345423
1697+331043089+337064464+343596599+346817201+347422384+346115443+342548632
1684+342778423+349982896+356158388+358526228+358956800+360266169+361384439
1670+362430970+367476321+373336872+375675359+377541297+381869325+385357486
1657+384346535+379168036+379556530+388307211+392248558+394739726+402881324
1643+411309983+415567639+415998690+413976308+416225950+425958709+433790704
1630+437138090+439291738+441861931+445030910+450330855+455296017+457545694
1616+461360292+468677932+475116263+479876437+484468260+489586412+494826694
1603+500213191+506170010+512429352+518337969+524164652+530644309+537617246
1589+544618783+551514609+558450633+565752777+573270275+579017282+582459259
1576+588786748+598481842+605297308+610838574+619421076+628867802+636444518
1562+640222853+640138627+647359007+664677549+680032207+692798369+703604822
1549+713687109+721966165+726777243+729144877+733578341+747943155+764032174
1535+773833252+782740548+794488540+803624361+808675597+813017103+816642449
1522+820482293+828259277+837701077+847148419+856615329+863212738+864835269
1508+863349853+869899983+886488817+898106877+903473875+906970794+912340803
1495+918985969+922770667+922824104+923845216+931051228+940830206+948124139
1481+952234520+954703553+956268885+955757439+954435139+957598028+963631718
1468+965991757+964604046+963703902+963536271+960555039+953948461+952714492
1454+959600021+964819161+964576199+959729747+955401035+954315950+953574610
1441+949979712+942320617+933744135+929512239+926940095+923449539+922299248
1427+922189227+919518557+917624190+918626350+920798437+925352116+930343620
1414+933134369+937024913+942904246+947039943+949162425+951290449+953690446
1400+955620803+958179810+963647865+970737631+975817534+977783333+978002074
1387+978486767+979788884+980664876+981221890+982671522+985208292+988353802
1373+990907678+992098132+993430354+994983506+994908380+995575073+998260179
1360+997104073+992961603+992209042+993735647+992734719+989679798+987005912
1346+984703415+982678158+980146930+976325559+973375185+972612087+972350925
1333+971356497+970035633+968664411+967603068+968360623+970893698+973107659
1319+974166061+975231510+977029199+979286470+981457257+983909733+987358553
1306+989259215+988143545+988379460+991674128+993907999+994278703+996275497
1292+1001170801+1007119033+1011259177+1015253311+1022935874+1031494019
1281+1036899880+1040131806+1043023338+1046227690+1049559921+1052481148
1269+1054363473+1054039090+1051641898+1049718794+1049621226+1052203017
1258+1058917289+1065488562+1065997749+1062456082+1060525110+1062161325
1246+1065077010+1066647610+1066548332+1066853078+1069522379+1072871921
1234+1073741823+1071079706+1067629381+1067058067+1067721680+1066906378
1223+1066321448+1067001277+1067035693+1064858337+1061755248+1060520731
1211+1060991398+1060843540+1059855954+1059478477+1058885405+1055522248
1200+1051603514+1050738059+1051028437+1050557223+1050156140+1050664712
1188+1052385496+1052901388+1050417371+1047704964+1046974093+1047620875
1177+1048783618+1049047107+1046875362+1043451994+1040600078+1037327578
1165+1033885190+1033103414+1034300231+1033852758+1031779950+1031893391
1153+1034970070+1036464997+1033488349+1029356826+1028202704+1029466779
1142+1030813916+1031497440+1030498222+1027512885+1025048299+1025341550
1130+1026932677+1028372867+1030048971+1030045345+1027857110+1026693135
1119+1027252612+1025986964+1021501569+1018869420+1019842295+1018089970
1107+1012974282+1012675488+1019301087+1024822852+1023089753+1018226059
1096+1017297657+1021644705+1026793988+1028398524+1027337728+1026653109
1084+1027772200+1029926361+1031131731+1031218488+1030051229+1028093915
1072+1028409608+1032555294+1039072446+1045127962+1049122370+1048149973
1061+1040327968+1033121340+1031759902+1033532891+1037999402+1044154608
1049+1045776592+1041836100+1038876489+1039187872+1038900915+1035853931
1038+1032174533+1031281572+1033144877+1033751906+1032948714+1034142657
1026+1034850129+1033440181+1034177620+1035166917+1032561247+1029105243
1015+1026595088+1026161848+1029036480+1032988603+1036572965+1038665411
1003+1038178938+1039164335+1043683393+1045875597+1042238346+1037291589
991+1035170270+1035862141+1037481662+1039261424+1043064664+1047553959
980+1048680440+1047562443+1047054624+1048292083+1051419530+1053665786
968+1053686517+1054273636+1055803115+1057051727+1059615934+1062359746
957+1061615601+1059709260+1061474996+1066307011+1070228277+1071116242
945+1069826852+1067685212+1064401765+1062202310+1064239129+1067197714
934+1067956501+1067324771+1065274199+1063483626+1062817686+1062942554
922+1063758883+1062496656+1059570366+1058292539+1058493285+1058338175
910+1057392257+1057576309+1059341498+1059354840+1056098214+1053727159
899+1056002083+1060207227+1062205252+1062367751+1062770750+1062561450
887+1060367468+1059592603+1062847381+1066240643+1064566523+1055741947
876+1043700362+1037503625+1039502334+1042833744+1043891530+1043100380
864+1039873106+1036848359+1035635737+1033904006+1032296116+1032918335
853+1034429683+1034937297+1034863197+1035024739+1035122512+1032949467
841+1027781026+1024998215+1027808668+1030788600+1027592801+1020700087
829+1018740583+1022076509+1024588032+1027303723+1030779979+1030436712
818+1027104618+1023901019+1019754169+1016010661+1016072719+1017261188
806+1016680364+1015487789+1013361202+1009877008+1006842955+1006767556
795+1009084148+1009245484+1005953416+1003789539+1004069312+1002625907+999294907
781+996924468+995082580+993097828+991329561+989225689+986126568+983037710
768+980990491+980285482+980008241+977627881+974719928+972874276+968039045
754+961177258+958752903+960300445+960320424+957943690+954879532+953448989
741+954442049+952257920+946265829+942845883+941612940+938050815+932206309
727+927618488+925286159+923268565+920476038+917296523+915671049+914971994
714+912288461+910094752+912841369+918547939+921826255+922224464+923198297
700+924600035+924408114+923111677+921050568+919897745+921957417+924578756
687+924199431+920802611+916658772+914163807+913816640+915541392+918847144
673+922780588+924742350+922765604+922149885+924732087+926103787+927511614
660+928891115+928751468+924863455+916188447+909212261+908102133+909516733
646+909762022+908527231+910718750+920800216+933128279+934892989+928949683
633+930037300+931072097+915225219+891881814+881601038+888882587+898374950
619+897990083+901120951+919227837+937245844+937976305+923791848+909504554
606+905404984+900966046+894685289+901574650
##END=
