##TITLE=Sample description
##JCAMP-DX=4.24
##DATA TYPE=INFRARED SPECTRUM
##DATE=12/9/2023
##SAMPLING PROCEDURE=Instrument type and / or accessory
##ORIGIN=Default
##XUNITS=1/CM
##YUNITS=ABSORBANCE
##RESOLUTION=4
##FIRSTX=4397.6552
##LASTX=599.8556
##DELTAX=-1.9287962
##MAXY=1.6789899
##MINY=0.13127415
##XFACTOR=1
##YFACTOR=1.5636812e-009
##NPOINTS=1970
##FIRSTY=0.18720153
##XYDATA=(X++(Y..Y))
4398+119718477+119624106+119110006+118917033+119207684+119858647+119710501
4384+118438269+118097874+119525799+120610423+120144161+119502985+119515793
4371+119776664+119978700+119784364+119292554+118976993+118814333+118748875
4357+118622732+118089107+117757174+118185441+118937846+119658565+119923495
4344+119888112+120466746+121226317+121026263+120289763+120013740+119892705
4330+119452927+119183908+119357221+119718553+120068392+120000141+119363273
4317+118858007+119012357+119344957+118999959+118623094+119578040+120724196
4303+120621334+120214823+120128342+119823178+119366608+119308449+119423499
4290+119386706+119678024+120398428+121009015+120931835+120147916+119702610
4276+119986095+119814411+118953207+118478893+118413626+118603883+119274848
4263+119363301+118481562+118250480+119164410+119827476+119746217+119825846
4249+120365590+120757873+120508771+119909963+119667017+119653142+119213840
4236+118529095+118738897+120192619+121607841+122149100+122281913+122434253
4222+122294464+121707863+121530052+122178575+122679524+122005013+120870865
4209+120781421+121214586+120946853+120310052+120303190+121195555+121976015
4195+121867455+121479031+121488617+121644035+121407511+120879584+120495411
4182+120417583+120696408+121440322+122153722+121881749+120984905+120703841
4168+121184434+121688080+121594014+120920752+120334457+120135690+119978957
4155+119809436+119820195+119939229+120190017+120745952+121398878+121885599
4141+122470674+122942663+122439160+121225211+120211583+119584511+119386582
4128+119580946+120000780+120506398+120609298+120207371+119784793+119515002
4114+119494590+119748466+119837853+119531860+119171786+119272685+119735983
4101+119709738+119157520+119075890+119876391+120881204+121094504+120507389
4087+119969828+119876667+119932548+119699799+119278889+119171862+119604399
4074+120170520+120200424+119887426+119757815+119715751+119597089+119277192
4060+118903654+119011699+119642364+120056156+119678253+119278870+119438261
4047+119329357+119150497+119733305+120261937+119916158+119363959+119483774
4033+120092549+120383896+119978776+119173235+118627535+118540206+118525312
4020+118691612+119344090+119923524+119904227+119494942+119089413+119199593
4006+119678148+119678481+119230498+118815953+118374431+118017568+118159473
3993+118780913+119473739+119971410+120250473+120409149+120361549+119751668
3979+118571435+117443328+117070332+117624427+118559304+118973610+118713063
3966+118018407+117074268+117238414+118518898+118765914+117932431+117336673
3952+116769561+115958025+115750729+115284211+113948074+114614227+117094385
3939+118134391+117229275+114887505+113172417+114652564+116586699+115045248
3925+112260850+111758281+111495256+110446673+111896107+116187478+119260125
3912+119353553+117181790+111742291+103489767+98091921+98820807+103800878
3898+111075185+114905755+111238140+106750013+108304776+108345906+104795333
3885+104682036+105057166+105651638+109938797+110062404+104958898+100431442
3871+98170597+100938433+104054735+103209408+105249415+111069429+112680664
3858+105275002+90093884+83951991+98909689+112490026+116063603+112126941
3844+105056776+98557449+93727411+94297049+100574118+105381723+107944188
3831+110530038+111347177+110265441+106460839+98427428+95996976+100949649
3817+103983502+109939264+117164770+117266869+110595163+105059892+104131267
3804+100777260+99857935+106362589+110684540+113932550+118498905+120588848
3790+120555504+119479057+117803849+117613859+117080700+115401043+117623246
3777+122423465+123630019+120157636+116697908+118019160+121535674+124896695
3763+125797903+121804683+119160827+121506876+120473902+111618502+104590876
3750+110018311+114648790+113912414+121776886+133245991+135179058+129494412
3736+126057450+134094549+149774348+162015108+166815099+169060544+173667695
3723+180266672+188432515+197033573+202099742+200698100+197218179+203998236
3709+222265105+241086479+254398864+264204817+277383998+292971160+303981209
3696+307058697+300845762+287375777+276408707+276187602+278742872+276281831
3682+269456279+259894435+246992353+237302585+240654676+244375713+244280895
3669+251278054+259969775+263004914+262654399+260795605+256791807+253261666
3655+252298877+246263915+232987838+227871695+239730501+252953442+258702537
3642+259490211+259861348+260421533+259292320+255390126+247427396+239364110
3628+244545320+256621915+260843958+256572552+250350887+250429067+253832561
3615+254480437+254561647+255009040+256102155+260662763+265633809+266830891
3601+266352032+266400613+265451662+265127105+267960847+269229533+265080429
3588+262737192+268124011+274089217+276140393+276242702+276379337+276928963
3574+277681930+276854365+271950922+265747096+266322223+272508190+277040973
3561+279232443+280729876+280944653+279434717+278308268+278982902+278923266
3547+277343364+277585910+280469224+282868934+282792412+281661275+281388196
3534+281317029+280371356+279417716+279344091+279373690+279544993+280658214
3520+281828232+282280733+282200265+281169074+279096304+277578363+277735524
3507+277772270+276557939+276274626+277604645+278375680+278331520+278711348
3493+278945680+277990992+276867306+276853584+276729109+275682480+275563494
3480+276709078+277422612+277392937+277166629+276880533+276402665+275740210
3466+275112175+274578635+274392542+274672234+274833855+274726476+274790725
3453+274864045+274101110+272364542+271388222+272239343+273413935+273827784
3439+273727876+273376407+273203561+273365582+273456741+273537076+273869466
3426+273727190+272568951+271576011+271955458+272925241+273292586+273310025
3412+273477649+273417613+272601160+271573018+271433315+271814459+271668199
3399+271352562+271646167+271984485+271553311+270947690+270954913+271372746
3385+271859286+272345750+272661559+272710750+272621554+272323069+271873714
3372+271801556+272245175+272705928+272929682+273190334+273713791+274499254
3358+275499894+276358601+276640503+276718283+277097292+277457109+277647394
3345+277969455+278443378+279201396+280153473+280542392+280362360+280240192
3331+280192887+280384736+280914502+281202313+281342664+281731869+281762250
3318+281024130+280282560+280367582+281018374+281405769+281379467+281187123
3304+280809639+280308671+280108779+280575174+281302411+281476230+280999296
3291+280688385+280855266+280788807+280678264+281174830+281322290+280193916
3277+279023898+279281634+280198471+280513480+280195917+279245594+278040164
3264+277575675+277904921+278323782+278565661+278605742+278470385+278656840
3250+279062893+278700313+277571273+276471926+275853840+275931410+276309047
3237+276548905+276999062+277589417+277771393+277846295+278059757+277860589
3223+277374735+277342068+277628755+277625381+277420020+277139889+276253661
3210+274982154+274598971+275291540+275772096+275334442+274271860+272838103
3196+271634293+271310461+271438137+271260316+270740670+270155404+269553766
3183+268835296+267670100+266059951+264699095+263738003+262761511+261917194
3169+261587529+261238004+260120132+258963322+258604612+258416937+257894623
3156+257577804+257757645+257797898+257186940+256171758+255155242+254439726
3142+253971102+253331346+252453790+251317735+250087281+249509524+249220436
3129+248235920+246963098+245950718+245033614+244171457+243267581+242131469
3115+240920779+239766371+238575902+237308093+235914150+234408768+232666711
3102+230589672+228657863+227077541+225480829+224046462+223266126+222788448
3088+222070188+221405236+220986508+220300247+219042005+217562563+216386713
3075+215697366+215322359+215027287+214627580+214124306+213826317+213618344
3061+212963703+212200825+211954982+211894451+211570561+211034657+210401076
3047+209875217+209652626+209507225+209043536+208244008+207391915+206414680
3034+205060627+203786985+203119174+202704010+202022248+201112863+200418808
3020+200035663+199451674+198616277+197964189+197335525+196450079+195541437
3007+194739222+193934890+193153430+192390800+191569373+190689015+189918266
2993+189691863+190101328+190587563+190755321+190811927+191052376+191213254
2980+190982239+190821266+191232256+191765815+191567429+190695019+189991262
2966+189660473+189233626+188671535+188230508+187844467+187401877+186845599
2953+186103553+185312620+184724724+184549743+184767226+184904680+184646544
2939+184363745+184206641+183815053+183265542+182946398+182811803+182380953
2926+181607879+180934636+180137623+178852584+177431024+176298839+175650697
2912+175412744+175289299+175133129+175005280+174943090+174775332+174374082
2899+174005689+173874124+173760398+173619495+173652715+173781592+173745971
2885+173503406+173230194+172974021+172806854+172925973+173189503+173344586
2872+173357909+173222056+173012101+172801879+172516412+172193780+171936845
2858+171628355+171239035+170873520+170321474+169382490+168324273+167595854
2845+167353251+167358206+167377589+167426114+167550798+167645865+167678170
2831+167788675+167961883+168018660+167774742+167276652+166913253+166832786
2818+166797240+166610747+166277137+166017228+166083802+166376950+166521875
2804+166537770+166717268+166970201+167046400+166916112+166759961+166772997
2791+166932884+167009139+166859449+166666381+166564758+166422939+166219807
2777+166116526+166085727+165887875+165577173+165346997+165066295+164739660
2764+164682655+164868538+164904559+164737983+164691879+164796514+164741509
2750+164486175+164356306+164476645+164593801+164472795+164174578+163942019
2737+163906092+164042536+164223197+164238788+164035389+163808796+163801897
2723+163958962+163878781+163505280+163281889+163253929+163079367+162817190
2710+162666623+162609065+162698242+162916488+163044069+162959523+162761271
2696+162700206+162855728+162931907+162737981+162458975+162295391+162312468
2683+162416225+162357104+162085283+161803209+161619270+161423762+161105628
2669+160832168+160767825+160736225+160551352+160218599+159805370+159485349
2656+159371461+159246310+158972145+158759760+158655221+158486539+158199366
2642+157793846+157349293+157017980+156746702+156445740+156226589+156032320
2629+155697757+155346031+155039428+154621300+154191137+153985747+153917715
2615+153783873+153522011+153187305+152876766+152526460+152123198+151819168
2602+151599264+151383354+151213013+151100898+150990193+150929557+150988287
2588+151039156+150979473+150874686+150764162+150635142+150537207+150525504
2575+150582729+150596700+150425987+150189979+150084525+149998378+149757195
2561+149379959+149057622+148864992+148638532+148427033+148411919+148387657
2548+148136020+147861941+147703694+147552993+147446701+147408173+147241959
2534+146969747+146862054+146899277+146840794+146618365+146344124+146137619
2521+146022854+145980152+145939995+145846501+145771618+145742543+145691627
2507+145625901+145599476+145611445+145655939+145717194+145777831+145889717
2494+146037778+146150846+146247075+146375895+146584573+146865961+147174966
2480+147522127+147815342+147885879+147817657+147842491+147923664+147849877
2467+147724430+147861912+148216087+148459319+148457995+148329251+148262811
2453+148362747+148585814+148818450+148977564+149047911+149074870+149153308
2440+149325631+149515774+149643507+149680825+149627364+149583481+149648558
2426+149750610+149881918+150121928+150294451+150232376+150149192+150243830
2413+150411531+150560287+150732086+150904189+150974403+150949769+150972773
2399+151124169+151361569+151574688+151724158+151885637+152002907+151848767
2386+151158152+149607343+146885011+143051249+138605471+133940485+129136111
2372+124154115+118996328+113887895+109200829+105501967+103275600+102677078
2359+103975649+107432299+112950932+120406548+127998274+131669987+129330113
2345+123449196+119122538+117958838+118328946+119225838+120297797+121223343
2332+122021919+123307511+125241150+127130905+128658490+130448624+133047901
2318+136143305+138893349+140821346+142367047+144102566+145998573+147785781
2305+149267872+150423052+151466737+152499711+153319156+153868448+154391724
2291+155023666+155668673+156194637+156533050+156672515+156676851+156637103
2278+156593115+156586101+156625115+156681072+156720105+156690850+156685561
2264+156821004+157017312+157162104+157223999+157295413+157467345+157612689
2251+157663673+157723871+157751535+157727092+157806406+157978710+158067754
2237+158027282+157959184+157956172+158051058+158211392+158332713+158390452
2224+158455634+158527783+158535635+158455606+158373204+158330140+158258478
2210+158208086+158309032+158518205+158662492+158665627+158634294+158658032
2197+158706871+158796230+158939602+159074073+159156856+159179174+159217054
2183+159381334+159610052+159740569+159781508+159824591+159822409+159751194
2170+159691587+159701031+159820083+160044628+160257880+160298037+160219628
2156+160248122+160331944+160309320+160313571+160445783+160557794+160609234
2143+160723627+160854048+160847206+160820428+160955366+161081918+161074409
2129+161132158+161267706+161304700+161299344+161404455+161600668+161730499
2116+161760174+161841365+162025133+162222089+162392401+162581487+162827006
2102+163120458+163483705+163955341+164559895+165325270+166290536+167566598
2089+169199847+171056487+173053993+175182301+177300565+179260277+181043921
2075+182655537+184087846+185341018+186396243+187217023+187928307+188860506
2062+190044666+191178471+192164778+193102009+194013986+194870043+195742835
2048+196703526+197614855+198305080+198949829+199934517+201152258+202171366
2035+202907866+203448553+203728836+203609641+203132020+202448524+201588864
2021+200474155+199047431+197719051+197046819+196773473+196340165+195756995
2008+195292049+195011366+194856873+194795027+194834326+195052572+195156291
1994+194642192+194319941+195393463+197240325+198903630+200327763+201711985
1981+203303171+205118719+207096785+209210246+211385630+213460783+215285042
1967+217586902+221103245+224981862+228380515+231545466+234574582+237303766
1954+239819393+242173608+244162309+245444204+245550420+244635165+244610712
1940+246374210+247851289+247943611+247354991+246603624+246001815+245637634
1927+244822115+243035346+241582910+241062502+240395149+240694300+242404338
1913+243008244+241783507+240470737+240288075+240575714+240289676+239345108
1900+237977619+236052233+233904141+232248994+230270185+228044180+227802110
1886+228902563+229304175+229192737+229025417+228847672+228704634+228300200
1873+226401726+222102398+218709882+220754768+225406460+228099070+228770407
1859+228964276+229349136+229811338+230100788+229832112+228437064+225369067
1846+221126630+220157800+224318397+227706758+227966495+227329560+225884996
1832+221442611+216071419+214596113+215313287+216254653+218395121+219844697
1819+219479792+218591925+217340373+214829835+212416726+212407673+213586592
1805+213240936+210554559+207491270+207116702+208411404+207126022+202866985
1792+202087297+207564857+212130040+212710617+211951590+211327691+211440273
1778+212315199+210848336+205205019+200239977+202566747+209011898+214277750
1765+215698700+213815682+213362457+214734025+215736246+216584490+214497292
1751+209092023+206859766+210277192+214444346+216141309+215840595+216395061
1738+217049150+213156447+209673515+215429509+223595581+229718196+233175913
1724+233891791+232527104+226636572+217198992+215426231+224686294+234408902
1711+239307161+238569365+234618971+232338000+229762279+223687065+222093383
1697+227993349+238265754+249666952+255039401+254994917+251175459+242742103
1684+241076168+253774107+265269000+268938825+268314145+269576466+271169023
1670+272305459+280342329+290552983+294537988+297263913+304478193+310339184
1657+307635787+296175944+293695748+308226218+314894304+317495087+330199754
1643+344697461+351489316+350442554+344011601+343936813+357552581+369306924
1630+372950067+373531179+374324265+375905216+381129195+386010834+385793752
1616+388102721+397164169+403710048+405381872+406044061+407734410+409383440
1603+410674159+412476728+414593887+416403089+418654919+422147533+426167474
1589+430328948+435043935+440432623+446666199+453126007+456599676+456339024
1576+460962261+471964343+478221286+482035732+492186978+504997042+514261699
1562+515544946+507225392+510055703+535577753+559706013+578343809+593368386
1549+606362751+615155695+617699586+616660752+619734334+641356210+668096936
1535+683408923+695381684+711506731+724321065+731297069+737449492+743378923
1522+750832548+763655801+779184833+797644694+816681283+828567668+830036741
1508+825739453+836055065+865728449+888128584+897132855+898844207+904993200
1495+917999420+926062401+925685641+926763623+937283243+949906986+957617907
1481+960975812+961579680+959161159+954249025+951408536+957771676+969165117
1468+974086247+971604222+970659196+971706378+965397213+951551098+947988727
1454+957377229+963729239+964582095+963758285+963597122+962116384+958494473
1441+953285093+944670389+935301404+932607594+932281074+928417036+925315209
1427+924456102+921508501+918137331+916502749+916651104+922569558+932786597
1414+941706169+946982179+948695209+949117482+951047633+955583389+959013794
1400+958327896+957436999+959389258+964088617+971188962+975881994+975445922
1387+974011307+976239771+980415462+982325411+982363376+983252216+984574077
1373+986360599+988707229+989726280+990414541+991731371+991835510+991864632
1360+993305117+993056358+990176912+989107546+991409654+992834053+991032665
1346+987873432+984720070+979466168+972064460+967464971+966108956+965240700
1333+965694001+966690029+966715797+967301139+969044282+971560767+974136411
1319+975582537+977117556+979152074+980349670+981264582+982728853+985635363
1306+990687696+995970415+999623125+1002672730+1005557665+1006498726+1005954704
1292+1007464411+1012005046+1016392446+1019641866+1024019127+1029685772
1281+1035481485+1040708476+1044816012+1048140373+1051248222+1053758913
1269+1054301792+1053518159+1054454112+1057592837+1060602723+1061386127
1258+1060252875+1060633751+1063709048+1066526971+1068100946+1069743838
1246+1070838668+1070844691+1070547674+1070581218+1071578313+1072655608
1234+1072663842+1072670627+1073251014+1073741823+1073529352+1071786133
1223+1069256307+1068130373+1068585580+1069359531+1069542193+1067891296
1211+1064464702+1061473037+1060499880+1060733621+1060098649+1057874530
1200+1055089770+1053060665+1052759912+1053639451+1052934036+1049358172
1188+1045843373+1044617874+1043572293+1040654500+1037948797+1037533691
1177+1036622972+1033015241+1029746609+1028194285+1026082615+1023651668
1165+1022522456+1021983084+1021221483+1020568900+1020482219+1020400875
1153+1018825376+1016131718+1013641382+1011476652+1009753864+1008655909
1142+1008434366+1009177518+1010085340+1009737778+1008047390+1006927327
1130+1006536844+1006146209+1006025908+1005488290+1004554166+1003980945
1119+1004176263+1004856901+1004709917+1003511940+1002168427+1002975770
1107+1006610793+1009029619+1008387023+1007641051+1009324349+1012451562
1096+1013773348+1013910268+1015536770+1018140087+1020875980+1023319354
1084+1026131178+1030061083+1032526108+1034324447+1037490236+1038031438
1072+1035849783+1036139024+1039336603+1041463215+1039598551+1036157549
1061+1036200623+1039498910+1042365396+1044650351+1046672519+1046851522
1049+1045843983+1045833767+1047382279+1048781215+1048152418+1045337469
1038+1040931086+1037359872+1037736556+1040318222+1040599000+1038699420
1026+1036808455+1033865885+1029662672+1027358201+1028788852+1031959825
1015+1033519849+1034108393+1036141616+1036301026+1033449483+1033283211
1003+1035144140+1034535850+1033827615+1035341287+1036776054+1036295156
991+1034805117+1034766541+1037795562+1042645869+1045839332+1046544747
980+1047557089+1049820164+1052141178+1054247740+1055940263+1055898256
968+1053578690+1051375842+1051300749+1051861925+1052067305+1052320715
957+1052792923+1054802741+1058130303+1060761752+1060990918+1058238178
945+1055332278+1053683134+1051678653+1050248078+1050550889+1051063654
934+1050873673+1052035744+1055807993+1058645051+1056908159+1052967351
922+1051585721+1053264597+1054065154+1051368904+1048015879+1047405683
910+1047789914+1046406378+1045345854+1046257641+1045493067+1043408004
899+1044244011+1046049668+1046573488+1047307262+1047267696+1045406081
887+1043282824+1041018453+1038307108+1036126673+1033415100+1029061092
876+1025028191+1023577261+1024378200+1024574203+1022815965+1020722211
864+1017987691+1013147142+1009283639+1009073836+1009964962+1010641560
853+1011261818+1009830024+1006422947+1003861864+1003891368+1006490340
841+1009626778+1010791135+1009702557+1006810990+1003329887+1001769940
829+1003038207+1005517870+1006190960+1003843720+1000697295+999592783+1000115841
816+998962156+996241130+995167875+996467094+998070649+997886615+996404657
802+995525805+996011659+996131807+993178641+988142013+985535569+987055721
789+988107935+984599616+979128593+975654276+973665804+969282521+962049067
775+956806982+956190306+958258521+959894476+958006865+952353485+946876516
762+944108985+942392525+940648466+939422358+936430616+930180153+924536150
748+921763969+918996438+915143608+913144082+913234117+912151409+909196108
735+905599965+902314713+901051782+900659013+897149932+890032891+882525672
721+878151461+876961565+875416026+872781223+870847870+870374442+870685029
708+870670849+870714456+870814250+870808684+871754167+873107819+873288804
694+872188180+871335020+872054462+873635603+874572166+873934526+872945283
681+873806677+875361364+875680261+876360823+877228239+872180633+862316493
667+866206603+881254279+888705388+892237569+895769140+895110687+889985014
654+883971418+879396781+877421956+877635646+877492093+876836232+877936551
640+879698220+878659652+874772591+873907919+876575733+875953416+872399660
627+867940445+861252691+853949938+847761227+844439534+843191317+840702888
613+838822519+837665252+834205419+833197956+836313887+835882161+831304856
600+827625234
##END=
