##TITLE=Sample description
##JCAMP-DX=4.24
##DATA TYPE=INFRARED SPECTRUM
##DATE=12/9/2023
##SAMPLING PROCEDURE=Instrument type and / or accessory
##ORIGIN=Default
##XUNITS=1/CM
##YUNITS=ABSORBANCE
##RESOLUTION=4
##FIRSTX=4397.6552
##LASTX=599.8556
##DELTAX=-1.9287962
##MAXY=1.6765494
##MINY=0.13231203
##XFACTOR=1
##YFACTOR=1.5614083e-009
##NPOINTS=1970
##FIRSTY=0.19731443
##XYDATA=(X++(Y..Y))
4398+126369523+125385692+124382928+123577292+123049723+122608579+121735185
4384+121066383+121834818+123703275+125331266+126369131+126556240+125477777
4371+124556675+124909944+125291804+124895572+124068740+123162020+123240735
4357+124338341+125047235+125456142+125822962+125736737+125718624+125845294
4344+125708832+125525122+125392926+125271801+125180719+124715316+123760306
4330+123061261+123151981+123554331+123585557+123712351+124527902+125555842
4317+126147982+125782326+124519399+123364808+123371479+124399419+125085209
4303+124799975+124202357+124029402+124262242+124583082+124961669+124910516
4290+124296455+124131755+124876408+125893545+126636872+126779097+125841982
4276+124399915+123873539+124170043+124312984+124444903+125034161+125735926
4263+125750069+125100077+124700876+124619748+124433002+124229174+124323644
4249+125078423+125844692+125840216+125692475+125290163+123902599+122778404
4236+123076225+123991238+124534258+124501314+124768482+126099797+127675033
4222+128213605+127473428+126507902+126103576+126177442+126399422+126363701
4209+126233424+126089672+125855171+125791450+125853033+126013324+126127635
4195+125824422+125625118+126324898+127146089+126876507+126097946+125915781
4182+126051670+125619048+124916643+124860328+125178849+125242799+125262248
4168+125489639+125738474+125591992+124666415+123746259+123899106+124216396
4155+123866706+123815830+124430588+125051368+125392430+125559907+125788663
4141+125828745+125000874+123782352+123299465+123464337+123810495+124393359
4128+124621723+124103087+124015316+124907262+125604618+125307274+124688060
4114+124685750+125038064+124962032+124349278+123469662+122675879+122396477
4101+122695768+123112567+123303673+123407229+123489426+123310821+123074727
4087+123113187+123242443+123526884+123957998+124228993+124326364+124317002
4074+124272349+123808167+122846697+122560041+123377129+123821260+122989562
4060+122305079+122704433+123465367+124104451+124219640+123752490+123017295
4047+122301377+122361338+123118245+123623855+123476065+122870603+122367751
4033+122366673+122811997+123242987+123372357+123629209+124100958+124105434
4020+123410283+122631455+122427321+122681290+122805192+122887523+123324984
4006+123845691+124037275+123907599+123507187+122759327+121941762+121278084
3993+120854920+121262214+122224075+122607835+122502428+122605411+122819374
3979+122606031+121851825+121268885+121552057+122216956+122337689+122039830
3966+121736645+121495035+121903779+122734762+122932521+122615403+121930224
3952+120510575+119179240+119154532+118879453+117241298+117346190+119704319
3939+120987659+120022735+117287421+115315590+117073048+119592374+118383682
3925+115716385+115404516+115228220+113951742+115164051+119578078+122810966
3912+122735411+120177634+114044160+104823774+98903959+100000754+106021959
3898+114174017+117835461+113475516+109119607+111745477+112502317+108929340
3885+108486058+108188237+108146657+112643512+113089208+107663311+102413815
3871+99399328+102023308+105289407+104187248+106134266+112177497+114050850
3858+107098800+91861055+84738903+100045293+115061010+119179164+114765403
3844+107023321+100030014+94933232+95547474+102136035+107417683+110425260
3831+113216183+114222736+113346155+109093535+100134534+97819560+103550998
3817+106413974+111965443+119596879+120382063+113799219+107594055+106027981
3804+102189173+101062544+108155112+113234917+117069717+122143175+124477427
3790+124502927+123682451+122172035+121356302+119816826+117981265+121225118
3777+127032418+128414571+124404763+120033022+120724280+124197042+127838616
3763+128983329+125033197+122385149+124470785+122660390+112710726+105018899
3750+111031133+116372399+115316468+122895435+134957314+137037281+130764387
3736+126812757+134902620+151590219+165052755+169926575+171351865+175477061
3723+182466312+191545836+201076631+206674948+204975171+200737286+207632706
3709+226941813+246563600+259805922+269016974+282473870+299271705+311282202
3696+315019077+308268813+292312821+279436031+280441506+285472066+284845541
3682+279051603+270078468+257526516+247880419+251355346+255057312+254916947
3669+263226204+273885812+278055844+278087146+275981221+270593278+265121545
3655+263120043+256397226+241557756+234931365+247252481+262099833+269009263
3642+270190699+270128094+269547511+267806373+264259202+256312957+247711958
3628+253218659+266115414+270572531+266198118+259873031+259884388+263370271
3615+264308999+264733051+265492058+267258333+272788225+277876160+277887880
3601+276013611+275955492+276288022+276851198+278775703+278253927+273045553
3588+271136184+277762689+284531258+286810663+287108590+287363647+287798082
3574+288710279+287925296+281958450+274504683+275650961+283541186+288848964
3561+290705291+291685342+291758769+290681242+290409980+291493558+291017208
3547+289402940+290559430+293885938+295999536+296093596+295473256+295416510
3534+295529104+294664394+293001741+291786903+291328018+291501822+292987617
3520+295161720+296277441+296242932+295595812+294251317+293321636+293787946
3507+293711809+292202347+291785052+292930948+293665982+294270652+295423687
3493+295642537+294163117+292338589+291455403+291336225+290943247+290394310
3480+290705024+291408335+291537572+291372299+291294616+291025263+290585941
3466+290136351+289715487+289871350+290676298+291275815+291223517+290808684
3453+290164638+288805732+287194251+287107177+288535329+289583902+289619747
3439+289343924+289399218+289861425+290102472+289615014+288887042+288664032
3426+288529947+287736775+287067706+287593967+288575946+288856198+288842895
3412+289142023+289162618+288640402+288310239+288445087+288523209+288341751
3399+288175696+288061194+287864504+287662126+287747750+288359960+289039203
3385+289059606+288767826+288837035+289073616+289237438+289438079+289685940
3372+289877801+290036432+290361976+290696149+290595885+290139310+289962928
3358+290404349+291049789+291689026+292395773+292696677+292507946+292572192
3345+293115460+293573411+293755384+294053444+294747117+295618258+295889291
3331+295477646+295219897+295273378+295421301+295653168+295731863+295686264
3318+295916623+296273890+296329070+296255586+296300440+296536258+296692541
3304+296150952+295593922+296113008+296742262+296449241+296107091+296178132
3291+296290343+296564258+296781772+296570710+296228769+295929850+295301455
3277+294234521+293541936+294008285+295029258+295236159+294411761+293720570
3264+293959480+294418651+294072645+293432893+293623113+294338200+294403706
3250+293681709+293039533+292605232+291982276+291739854+292289994+292588702
3237+291920072+291277590+291613767+292403198+292853417+292890331+292574196
3223+292314768+292538370+292721318+292630560+292742370+292870386+292329351
3210+291255335+290478177+290160935+290114020+290280552+290164046+289404582
3196+288268152+287202439+286310799+285328820+284391084+283832508+283304147
3183+282291209+281079120+280221893+279569829+278799008+278013624+277326823
3169+276820583+276397466+275724465+274946371+274297171+273600617+272946683
3156+272627265+272596440+272462622+271885437+270876794+269682570+268730423
3142+268154154+267735046+267238750+266231939+264901569+263953278+263227693
3129+262269038+261252569+260470143+259651758+258541096+257487923+256511594
3115+255195443+253763569+252671631+251593989+250127739+248317411+246209005
3102+244140394+242411796+240805716+239212597+237890777+237012783+236088962
3088+234735172+233523884+232736686+232019136+231392363+230993181+230730184
3075+230454666+230051781+229471294+228458814+227246457+226709526+226678453
3061+226270605+225627838+225314031+225044163+224356999+223492118+222751587
3047+222255864+222102941+221839409+220941584+219767611+218928726+218338695
3034+217547088+216600115+215736608+214685974+213514272+212702567+212138093
3020+211666324+211291898+210677588+209691659+208770968+208264365+207735794
3007+206680331+205421479+204396879+203573989+202874838+202269614+201810405
2993+201831553+202238904+202403680+202276390+202198802+202111499+201926796
2980+201814565+201854877+201970581+201987168+201646334+200996352+200527427
2966+200435924+200250630+199740133+199074423+198086337+196895491+196287556
2953+196438419+196569335+196270970+195906622+195708615+195470583+195010820
2939+194461577+193903383+193282107+192724581+192355709+192082615+191697558
2926+191257167+190798645+189918666+188558482+187267812+186483171+185994911
2912+185387741+184920572+184873332+184801928+184439908+184134748+183928381
2899+183540881+183100490+182783420+182583333+182475741+182327379+182121203
2885+181917814+181832190+181984121+182112232+182079937+182072417+181951941
2872+181542586+181067095+180895027+181055433+181037453+180554614+180017396
2858+179755601+179510431+178950347+178181721+177414278+176633474+175981125
2845+175679401+175656649+175746949+175763822+175602958+175395503+175292778
2831+175371587+175588127+175709062+175547606+175265713+175097749+174904075
2818+174545052+174168793+173856666+173580232+173378809+173281409+173205100
2804+173135394+173257302+173610160+173902456+173966473+173903906+173852525
2791+173945267+174049863+173884609+173558759+173359665+173288929+173163643
2777+172984341+172865908+172650990+172185787+171703387+171435159+171408075
2764+171593447+171739098+171569378+171226655+170959936+170724424+170544206
2750+170624676+170835070+170869522+170674683+170393439+170220627+170149738
2737+170071368+169975266+169864123+169847518+169960722+169972670+169821693
2723+169669361+169473416+169228513+169099123+168984259+168792112+168658180
2710+168583188+168597503+168714638+168675740+168455077+168320457+168309139
2696+168313605+168273275+168185495+168123596+168115312+168145107+168152112
2683+168021539+167760775+167471476+167213765+167034483+166897325+166717909
2669+166564813+166432484+166095449+165535022+165024163+164730245+164567645
2656+164419073+164281228+164101869+163789189+163468626+163270409+163043352
2642+162701889+162394839+162214831+162084545+161837122+161398622+160910381
2629+160587737+160419811+160149179+159681056+159190095+158816461+158569525
2615+158351220+158067694+157830455+157710971+157524092+157218092+156914221
2602+156579400+156202893+155935143+155850674+155870763+155884324+155862002
2588+155802547+155681756+155564152+155496547+155441061+155397343+155315003
2575+155175984+155073793+154973950+154853550+154870356+154933381+154730917
2561+154330390+153981864+153642004+153263522+153047211+153060372+153054197
2548+152945946+152876909+152752988+152440327+152131702+152016284+151939889
2534+151760053+151603398+151544277+151480164+151310301+151108553+151054500
2521+151097874+150997401+150723410+150487678+150391977+150352582+150286608
2507+150127147+149897628+149810392+149980875+150191374+150206023+150107774
2494+150118157+150258665+150413726+150622555+150989184+151426950+151779417
2480+152014996+152150932+152170325+152107758+152068086+152103778+152178179
2467+152264060+152410532+152604817+152694745+152644537+152568953+152507646
2453+152517600+152674503+152861373+152944104+152962122+152995973+153104042
2440+153290358+153482878+153610349+153682125+153779630+153886793+153938805
2426+153978028+154040642+154157282+154312372+154351557+154265666+154255674
2413+154357856+154433211+154499251+154692896+154996758+155201875+155162776
2399+155083050+155246452+155564992+155800075+155863596+155740982+155366823
2386+154422894+152377837+148872026+144002320+138264373+132110657+125678456
2372+119046768+112520822+106448979+100900125+96123944+92941884+92152931
2359+93911171+98053927+104635531+113755920+123077075+127475423+124435388
2345+117251758+112267291+111170057+111866105+113070064+114180717+114868367
2332+115413907+116953316+119708222+122374727+124376792+126599672+129798890
2318+133517719+136732846+139103133+141172345+143447924+145861997+148149714
2305+150152972+151812895+153204220+154417578+155451960+156261738+156913228
2291+157653367+158509488+159235732+159758520+160104230+160205008+160064787
2278+159847092+159730662+159727752+159731865+159701899+159663782+159696573
2264+159872105+160077661+160184013+160206363+160230126+160397766+160686492
2251+160930670+161053322+161012171+160946970+161057941+161236613+161346056
2237+161425878+161446415+161408795+161484856+161671277+161762817+161695154
2224+161569869+161541696+161610161+161640528+161644422+161661504+161678625
2210+161744876+161862718+161975425+162070191+162103937+162046619+162029498
2197+162134991+162249760+162301046+162314484+162334258+162389609+162430264
2183+162499072+162719563+162929862+162932000+162874739+162888233+162899800
2170+162966165+163202441+163436903+163501722+163510216+163509204+163490404
2156+163507887+163506513+163497275+163552359+163584807+163565701+163596431
2143+163683486+163734142+163686559+163649149+163797587+164048140+164165848
2129+164149815+164138955+164100476+164025598+164082553+164240077+164310946
2116+164332285+164438122+164635823+164832054+164937032+164984883+165081596
2102+165264104+165501353+165733754+165991751+166405725+166976058+167651922
2089+168507298+169564384+170691690+171789335+172897305+174031960+175110193
2075+176074517+176929416+177660632+178165612+178387897+178583155+179118369
2062+179979585+180970611+181955472+182735837+183379234+184226613+185346456
2048+186531175+187624392+188551649+189443328+190617434+191988059+193156516
2035+193969958+194468735+194695792+194589784+194157582+193560603+192919057
2021+192146861+191033928+189960180+189597568+189653015+189451325+189037236
2008+188737650+188570697+188444018+188351409+188290827+188327588+188204440
1994+187338185+186475193+187028711+188505287+189818613+190819869+191655719
1981+192516115+193432607+194398915+195488697+196707925+197747507+198254530
1967+199128057+201410612+204173658+206362993+208169656+209766193+211226812
1954+212720260+214098768+215065916+215394114+214770318+213408550+213351843
1940+215603076+217821328+218650841+218831211+219004806+219372495+219793206
1927+219615680+218428479+217563999+217565717+217362022+218387805+221070057
1913+222426825+221718685+220989683+221448988+222247390+222446484+222180815
1900+221576488+220255814+218632460+217649584+216278406+214381004+214509688
1886+216107503+216897163+217025025+216953946+216744277+216485479+215974620
1873+213879517+209043298+205200434+207499518+212656376+215526920+216154437
1859+216340171+216827725+217427834+217801840+217569038+216090764+212730013
1846+208153108+207357321+212372880+216617865+217452971+217478376+216874583
1832+213085124+208278299+207662691+209305895+211179076+214419426+216769453
1819+216968567+216729561+216243401+214273374+212288268+212853982+214695975
1805+214872662+212321193+209215652+209140527+210966925+209924575+205518707
1792+204782509+210901534+216093073+216884604+216110728+215382337+215512509
1778+216653233+215188854+208877968+203216588+205745210+212879902+218703673
1765+220294865+218156416+217599959+219152233+220250565+221125180+218640973
1751+212338562+209732753+213628926+218307183+220107070+219590351+219981269
1738+220478633+215854240+211738262+218227629+227468914+234226661+237992357
1724+238750257+237094742+230268397+219418036+217169341+227467769+238477525
1711+244079068+243303322+238857524+236137290+233048565+226181088+224454208
1697+231103637+242583539+255303799+261191110+260988274+256764170+247433749
1684+245376609+259356561+272311207+276543595+275765559+277020422+278742759
1670+279863079+288665101+300168480+304691331+307552790+315439903+321933297
1657+318769924+305673520+302560937+318648990+326068075+328865287+342861730
1643+358734216+365890286+364363569+356957080+356429253+370761052+383052163
1630+386424537+386394495+386619032+387783901+392875081+397438168+396218596
1616+397830478+407522346+414762321+416404857+416879584+418512500+419805709
1603+420451454+421664383+423186328+424294356+425804009+428605420+432193094
1589+436107305+440433409+445236646+450759761+456549482+459264620+457691293
1576+461364132+472749918+479316052+482794014+492531309+504745119+513018721
1562+512873280+502576817+505300507+533468647+558803960+576680295+590620050
1549+603251022+612230379+614670438+612720757+614720216+637231977+665696116
1535+680947403+691947596+708168951+721672190+728839139+734457918+739180990
1522+746680355+761833154+778341575+795387633+813355891+826086648+828922415
1508+824470452+834714044+865352897+887273043+896081229+899720323+906949876
1495+918345396+924568769+923648555+925780858+937512535+950064411+957407951
1481+961478788+963445570+961931604+957311371+953870170+958978949+970225744
1468+976828410+976611813+975851088+975192059+967694144+954232820+953255574
1454+964621013+968899210+964543521+958962840+957982388+960147215+960816552
1441+957377259+948253224+936141567+930249923+929445604+926108770+921119398
1427+917431290+914972984+914894346+914997262+913848006+919223313+930599670
1414+938826166+942875779+946012126+947901339+948119234+950281084+954785192
1400+957619814+959217000+962247529+967584433+973989589+976284894+973308876
1387+972237495+977479500+982836254+983413745+982089425+981578738+981566064
1373+983646299+987719427+990066724+989793095+988064287+986091779+986608726
1360+989994729+993513499+994005175+990805155+987849981+987691255+988273784
1346+986332960+981554536+975869412+970635882+967611155+967587029+968446470
1333+968343860+967695060+967297062+967308438+968052824+969437306+971049226
1319+973700462+977879330+981411003+983655079+986889379+990652918+993326906
1306+995860262+998743517+1001156855+1002524463+1003010490+1003878635+1005979942
1292+1008859380+1012065355+1015892644+1021047231+1027503311+1034150945
1281+1040241550+1045901861+1050647532+1053382139+1054514217+1055968556
1269+1058464273+1060300425+1060091234+1058770120+1057684156+1057952364
1258+1060530536+1064406993+1067145036+1067573649+1067542652+1068956299
1246+1070273213+1070598605+1071410177+1072781069+1073741823+1073639441
1234+1072428344+1071090053+1070625556+1070767104+1070629450+1070093873
1223+1069033944+1067620603+1066784142+1065849270+1063621379+1061905245
1211+1061801260+1060921663+1059274852+1058586734+1058040469+1056982219
1200+1055414581+1053895041+1053399012+1052964749+1051431695+1049020801
1188+1046956294+1046495003+1046012107+1043632591+1041167719+1040016860
1177+1038622911+1035611469+1031587585+1027672038+1024737096+1023800467
1165+1024049207+1023330855+1021451948+1019307200+1017060681+1015182614
1153+1014705826+1015684903+1016682381+1015798890+1013652997+1012764314
1142+1012888302+1012532524+1011015580+1008389386+1006983908+1007490702
1130+1007732417+1007935043+1009112929+1010199274+1011520770+1013651775
1119+1013660250+1009161715+1003410168+1001965678+1005207918+1008174926
1107+1008222567+1007624539+1007632402+1007017578+1007733333+1011218282
1096+1012647121+1010678354+1011201485+1016333703+1022216719+1026145856
1084+1028976584+1031201649+1031879155+1032040935+1033699122+1036424109
1072+1038969986+1041909204+1045540357+1048688537+1052172646+1056092697
1061+1056865561+1054492992+1051718914+1047865590+1044237872+1045498442
1049+1050690440+1053342897+1051285796+1048234424+1046459426+1044230619
1038+1041221315+1040203300+1041412488+1041421268+1038784004+1036963808
1026+1038177501+1039761173+1039725824+1039175360+1039791330+1041394699
1015+1041971045+1040653749+1037753392+1034493744+1033204468+1033560628
1003+1032747835+1031842814+1033968170+1038540227+1043278111+1045824445
991+1045159308+1043425843+1042886831+1043594952+1044052425+1044670609
980+1047162584+1050489188+1053598126+1055955425+1055682560+1053531169
968+1052410238+1053129659+1054631410+1056006501+1057422743+1058683466
957+1059120554+1059076196+1059455413+1061615202+1064110689+1063205439
945+1060053442+1058267831+1058668120+1059732325+1059774774+1058946940
934+1057422743+1055159123+1053035675+1052263652+1053122330+1054461079
922+1055956188+1057217064+1056266693+1052329845+1047726562+1045566773
910+1046746949+1050487127+1054256621+1055581094+1054934585+1052633860
899+1049799085+1049453919+1051168221+1051242278+1047384831+1042237573
887+1040114050+1038785760+1035241490+1032820136+1031341976+1027133484
876+1022438050+1019918360+1018234750+1016983494+1016345155+1014909215
864+1012244236+1009996649+1009527876+1010684080+1012751641+1014686586
853+1014574661+1011920219+1010030852+1011285315+1013138950+1012449687
841+1007633089+1000758551+997674426+999136629+1001485071+1001846958+998449656
827+994446539+993625042+995829723+1000630516+1006232117+1008319299+1004470250
814+998906518+996941492+997432863+997190613+996330408+996740698+997380260
800+995579838+992385620+989097419+985412135+983776318+985605065+985616441
787+980249990+974618003+972036396+970010292+967585731+965926934+965460070
773+965927086+965349824+960524294+952136171+946719025+947549531+948369348
760+944590997+939534211+934320989+929300239+927458208+927592656+926972639
746+925269866+921422344+916379759+912971540+910087063+906402543+903563263
733+900285751+895664068+892782416+890871138+887000330+882921477+880637471
719+878403244+875027702+871919451+869383041+868127587+869241035+870884029
706+872785687+875447764+875967002+874714372+875232007+875129625+871158345
692+867684085+868445649+871876467+875667950+877153821+875482503+873306299
679+873595732+875940739+877062968+875883402+871131394+863750826+865876258
665+876056558+880560666+880801313+881606471+884108753+887508040+889714553
652+889009562+887260446+887395046+886616838+881923312+877587703+875733838
638+874289194+875806444+881570511+884353294+880731531+876642981+874614816
625+870359218+862858402+857476148+856365066+855135645+849915552+843884422
611+845541005+852696579+853603584+847775538+842463752+841439095+844350446
##END=
