##TITLE=Sample description
##JCAMP-DX=4.24
##DATA TYPE=INFRARED SPECTRUM
##DATE=12/9/2023
##SAMPLING PROCEDURE=Instrument type and / or accessory
##ORIGIN=Default
##XUNITS=1/CM
##YUNITS=ABSORBANCE
##RESOLUTION=4
##FIRSTX=4397.6552
##LASTX=599.8556
##DELTAX=-1.9287962
##MAXY=1.7365077
##MINY=0.15693942
##XFACTOR=1
##YFACTOR=1.6172488e-009
##NPOINTS=1970
##FIRSTY=0.15999258
##XYDATA=(X++(Y..Y))
4398+98928858+98290317+97950481+97658004+97040987+97081583+97652015+97715849
4382+97667725+98467104+100079305+101416011+101476491+100892994+100988606
4369+101609006+101876605+102021622+102517127+102664844+102175282+101957309
4355+102038309+101689747+101306191+101867087+102752385+102262455+100888755
4342+100959933+102649383+103599760+103011683+102269835+101696206+101062870
4328+101296479+102684074+103608614+102982816+101987964+101778357+101979773
4315+101864839+101428247+101241399+101498098+102128807+102941289+103337026
4301+103323030+103529237+103756645+103617303+103750591+104246852+104324617
4288+104017757+103946985+104747028+105802010+105505599+104499423+104204569
4274+103962806+103195012+102689759+102904184+103245393+103410294+103944535
4261+104726463+105102039+105087362+104585223+103748822+103687209+104589738
4247+105371629+105302709+104816123+104785072+105132915+105380585+105309979
4234+104956801+104628095+104320913+104311377+104917476+105717316+106288098
4220+106351812+106067858+106033343+106186487+106033389+105849249+106168926
4207+106628183+106837228+106965356+107025984+106999374+107146161+107460622
4193+107660950+108002030+108563433+108476665+107351888+106248773+106114029
4180+106319987+106323654+106625253+107196874+107494731+107419408+107370224
4166+107507631+107356827+106846165+106364583+106076225+106411398+107535005
4153+108374723+108140073+107590316+107546615+107792773+107967791+108314777
4139+108842549+108890369+108378842+107878776+107696737+107759244+107601447
4126+107202983+107080207+107191603+107529440+108211342+108649537+108553362
4112+108433084+108488579+108463886+108334947+108415080+108829512+109137182
4099+109005690+108713592+108598980+108915321+109582748+109916659+109659545
4085+109215905+108948408+109298609+110183650+110571878+110120738+109649935
4072+109593076+109903861+110674308+111409310+111286434+110483102+109925311
4058+110014391+110231378+110094690+109966147+110225970+110377087+110166494
4045+110223942+110674815+111214593+111547712+111153523+110554049+110750120
4031+111276814+111396024+111374316+111378656+111268946+111190904+111291907
4018+111578486+111930918+112278706+112450232+112091286+111630047+111645619
4004+111727208+111554982+111358947+111245810+111238936+111380323+111684142
3991+112098887+112462615+112737383+112790971+112475754+112091332+111754702
3977+111440766+111317466+111344896+111733538+112451955+112789515+112598327
3964+112412473+112645216+112881709+112608812+112326028+112366357+112257845
3950+112008490+112200913+112243214+111843027+112506372+113948724+114220193
3937+112973526+111429452+111362780+112866580+113629868+112763347+112251479
3923+112570381+111809940+110806482+111795133+113980503+114918901+114281797
3910+113034651+110829213+108464724+108803178+111568268+114455046+116123001
3896+114934989+111507650+110149181+112168028+112550055+112117767+113680314
3883+113521070+113039672+114320873+113237716+111028684+110137986+110496840
3869+112989226+113819177+112716145+114237285+116577799+115549307+110445979
3856+104102470+106437354+116103274+119371691+117637950+114593255+111862468
3842+109709439+108540988+111104247+115675943+117337530+117254615+117425109
3829+117259719+116671384+114448477+111105049+112403812+115667595+116719057
3815+119379956+121029115+118702495+115004839+114308425+115493268+114070182
3802+114749283+118647065+119831750+120506668+121775864+121626083+120903492
3788+120325320+120017023+120520360+120609864+120329550+121739294+123305094
3775+122656768+120597996+120047687+122067051+124115078+125421194+125288855
3761+123635606+123607494+124770472+123191091+119375985+119545060+125081570
3748+126407837+125339596+130285200+134437184+132125814+128296971+128812903
3734+134311599+140547628+143687677+143475610+143285786+145565902+149073430
3721+152799465+156409635+158850654+159349291+160335086+166330217+174566242
3707+180125612+183252992+187494351+195930852+205171523+211789200+216263468
3694+218984313+221327720+227871152+238815177+246842894+250557513+252690051
3680+253982023+254231849+258606993+268775559+274802055+279149484+287299893
3667+293887736+298049487+302665907+307464172+311290758+316407492+322746910
3653+325037521+325236541+331777486+343504674+352037994+356699599+360753160
3640+366003790+371176471+375143569+378051585+379896907+383703573+393115383
3626+401022637+404024672+405381842+408675625+415277529+421331721+425122392
3613+428515501+432250888+436726925+441982752+446142531+448335843+450126066
3599+453083395+456608484+459837328+463017375+465626160+467791315+471780268
3586+476444674+478807891+480088622+481765514+483543022+485623520+488131247
3572+489253647+487652456+486492390+489735976+493980154+496233026+497923960
3559+499051593+498776282+498438943+499403969+500307078+500355064+501651238
3545+504767673+507089759+507616830+507441435+506928773+506224795+505503384
3532+504428675+504081864+506053269+508193030+507692826+506364072+506459970
3518+507055078+506462108+505077407+505035392+506522846+507529261+506804312
3505+504933265+503804489+504236399+505221918+505900908+505762884+504694735
3491+503513551+502898136+502271592+500814506+499279139+498905313+499307592
3478+499454793+498688787+497272500+496446641+496392610+496367327+495797540
3464+494631687+493964233+493827646+492526976+490603520+489871273+489160329
3451+487181663+485535693+485219656+485336894+485285517+484637965+483071824
3437+481381885+480586762+480782871+480977284+479967478+478495908+477995151
3424+477845702+477039597+475583175+474221877+473994294+474367309+474465198
3410+474649439+474470026+473320426+472091072+471443261+470928794+470210847
3397+469407359+468818370+468546781+468313559+468383474+468793013+468910656
3383+469198240+470247039+471160874+470756715+469571956+469338955+470121657
3370+470618396+470259902+469118411+467867864+467353876+467429688+467547331
3356+467862262+468728884+469482618+468904538+467122497+465549685+464897452
3343+464602017+464234788+464315502+465233575+466024201+465447706+464053791
3329+463114858+462936329+462999868+462568179+462165163+462151379+461169067
3316+459369299+458036085+456961560+456094865+455550102+454524854+453152462
3302+452621668+453643231+455899456+457553977+457632922+457604432+457760589
3289+457009989+455869751+455691333+456698448+457676854+457785614+457493128
3275+457255631+457747285+459393402+460532903+459727277+458493979+458473081
3262+459011984+458667310+456772934+454549584+453723097+453506055+452422759
3248+451396736+451724345+452591815+452186514+450048559+447661202+446769407
3235+447220372+446935663+445246866+443871932+443348435+442935726+442733426
3221+442630857+442171637+442049939+442482145+441580068+438931515+437158540
3208+437663499+438647579+437976476+436160344+435174825+435411070+435547878
3194+435022980+434684720+434615284+434078261+433449173+433457429+433467122
3181+432876769+432230912+431642328+430976864+430256780+429378769+428926256
3167+428764755+427876278+426857331+426620940+426579809+426245418+425504953
3154+424299738+423461421+423382771+423056784+421711150+419964859+418850235
3140+418297217+417785662+417286158+417004802+416938389+416266806+414574951
3127+412783733+411521613+410939774+410993399+410393390+408594838+407116192
3113+406527571+406279865+405837524+404149244+401395284+398985150+397118231
3100+395411707+394207561+393384576+392190381+391006912+390683873+390820975
3086+390646022+390314690+390055301+389104390+387242335+385676784+384943210
3073+384413854+383582208+382499796+381690042+381048571+380012892+378903907
3059+377986719+377101227+376348857+375837523+375381030+374445193+373008452
3046+371742684+371100659+371048472+371263377+371400074+370888482+369615932
3032+368372646+367510004+366709796+365860017+365343633+365327564+365421325
3019+365620787+366029184+366379754+366894774+367739135+368353960+368800244
3005+369753625+371113559+372573077+374519162+377382583+381305196+386553468
2992+393105985+400137477+406536933+411569784+415366424+418456286+420741516
2978+422066843+422385275+420894356+417378334+412981315+408619568+404729940
2965+401520040+398598130+395660371+393004411+391171067+390713947+391460346
2951+392405102+393389441+395175757+397530571+399450378+400988288+402588889
2938+403727985+404199257+404241456+403573707+402068488+399477873+395604019
2924+390954061+385902266+380606967+375545958+371373907+368228799+365711526
2911+363495584+361195316+358499588+355838247+353979730+352710940+351289089
2897+349801929+348522119+347485888+346868004+346589449+346311411+345796059
2884+345220301+344934781+344637430+343860035+342721456+341346522+339631668
2870+337663617+335788000+334189241+332695227+331244701+329810577+328116547
2857+326159995+324039509+321215045+317370749+313301009+309796043+306902714
2843+304352363+301934176+299754316+297966986+296491896+295087957+293475525
2830+291763878+290380025+289219922+287884589+286650977+285910917+285409957
2816+284655247+283478025+282203706+281195706+280480210+279778664+278949045
2803+278291117+277873783+277455454+276813448+275741006+274618735+273938142
2789+273257640+272066099+270643455+269443917+268574844+267775575+266826249
2776+265802548+264718865+263549954+262370759+261360142+260715741+260237263
2762+259522984+258553350+257668669+257154312+256887386+256506483+255969479
2749+255482580+255020743+254488769+254012448+253706712+253338322+252662925
2735+251920525+251412415+251169869+251051396+250807357+250468636+250185604
2722+249775604+249268950+248973884+248766424+248498042+248308715+248106617
2708+247748086+247359370+247142936+247051995+246810683+246350467+245861817
2695+245463408+245074066+244583832+243973337+243253234+242491172+241824841
2681+241283856+240723173+240078439+239361119+238520093+237679067+237115306
2668+236845081+236508092+235824716+234933824+234127829+233623313+233403691
2654+233172588+232827177+232458050+232011305+231626036+231496359+231404460
2641+231157067+230950602+230954803+230960811+230782209+230597175+230577826
2627+230679990+230773400+230711188+230508814+230374807+230454268+230738074
2614+231020277+231105137+231128209+231182073+231201257+231269495+231396646
2600+231364895+231079394+230859734+230923071+230913949+230601027+230253368
2587+230022965+229720215+229221706+228739433+228412616+227955643+227273631
2573+226642405+226181397+225909624+225723080+225353547+224763839+224160716
2560+223679327+223273197+222856158+222451815+222195190+222100784+221995414
2546+221866899+221852267+221901193+221855860+221771351+221777082+221832144
2533+221967772+222255062+222497258+222466668+222371986+222623488+223112728
2519+223468790+223723757+223956868+224017016+223891947+223770711+223774617
2506+223851553+223965142+224140096+224326732+224494757+224639415+224722930
2492+224664790+224390972+224145421+224194863+224300325+224237136+224138179
2479+224021642+223812560+223589215+223376503+223111548+222803989+222559065
2465+222445955+222372668+222259650+222029542+221624463+221302068+221218885
2451+221160488+221027863+220832768+220576603+220370212+220250100+220072142
2438+219754023+219434983+219164924+218755237+218264505+218000251+217952080
2424+217848682+217631363+217571970+217811974+218031320+217953555+217684177
2411+217516632+217636947+217845973+217923904+217944470+217989470+218065135
2397+218146106+218181506+218197078+218273645+218289862+218034839+217499162
2384+216562330+214928301+212504973+209524038+206451609+203552217+200666444
2370+197661608+194569683+191437032+188691015+187058700+186724991+187487183
2357+189516230+192957988+197528670+201804968+203476074+201797431+198526332
2343+196332596+195773663+196041253+196566703+196969995+197175188+197488534
2330+198349278+199647590+200877442+201908182+203081774+204598308+206174400
2316+207488559+208503931+209413950+210396041+211336817+212117252+212843602
2303+213511775+214019203+214414829+214782832+215137622+215472897+215741446
2289+215895355+216008501+216136353+216128908+215924986+215733982+215662354
2276+215562235+215329935+215084605+214958522+214890800+214809552+214754508
2262+214719864+214628886+214510598+214488559+214552908+214590778+214597467
2249+214651258+214692259+214624592+214572479+214625237+214711627+214787955
2235+214807359+214821291+214930641+215009217+214953068+214878417+214861666
2222+214964161+215204312+215374898+215378566+215374898+215450987+215568704
2208+215715960+215897068+216050664+216157858+216318880+216512649+216606575
2195+216703874+216945554+217164992+217257555+217375014+217538450+217633924
2181+217677230+217679847+217572118+217422742+217376249+217437742+217529015
2168+217601178+217599354+217589329+217737139+217919684+218002959+218117746
2154+218237250+218294045+218403690+218628528+218878574+219060125+219269317
2141+219551207+219759423+219925973+220171966+220436865+220664504+220850422
2127+220992647+221112299+221209579+221364207+221575924+221675729+221679709
2114+221696552+221769581+221948073+222148825+222257457+222292968+222349762
2100+222496134+222677224+222856618+223087611+223342946+223545173+223711262
2087+223933373+224200207+224384338+224483516+224634716+224915482+225277864
2073+225638754+225962272+226182079+226265299+226395362+226708303+227032466
2060+227228243+227357256+227513690+227755960+228020712+228229886+228437235
2046+228700992+228978220+229190877+229344804+229537909+229842815+230177851
2033+230461657+230764628+231073920+231303844+231501077+231740343+231960316
2019+232116989+232398344+232951049+233596095+234108038+234521373+234949285
2006+235349057+235699001+236079406+236536213+237085195+237647169+238093029
1992+238562772+239242868+240014108+240742282+241395676+242023456+242659399
1979+243232761+243757972+244306880+244933757+245496247+245764592+246006715
1965+246548566+247123421+247503955+247773516+247944416+248017408+248034288
1952+247986652+247855833+247605971+247173434+246702125+246657308+246998314
1938+247159981+247092315+246978081+246826567+246696449+246639617+246527927
1925+246316136+246234759+246217529+246153069+246405695+246902343+247188452
1911+247331802+247670966+248253984+248817248+249200159+249539359+249932185
1898+250227232+250525817+250984596+251286001+251595680+252397141+253296565
1884+253984419+254655651+255352056+256047742+256740572+257364887+257582593
1871+257323369+257624424+259187893+260918262+262018143+262707509+263393594
1857+264270388+265194781+266039806+266758158+267193902+267227109+267264333
1844+268457661+270429214+271668354+272446449+273482809+274407332+274641991
1830+274961824+276250129+277771030+279334978+280977079+282169836+283089438
1817+284090141+284957997+285479264+286203937+287586427+289077917+290159260
1803+290800989+291385390+292462089+293700731+294190523+294341115+295941606
1790+298607204+300348354+301328657+302370030+303470759+304643301+305796512
1776+306205222+305794466+306086731+308180847+310762175+312726283+313632119
1763+314169216+315550120+317166680+318563543+319778156+320113321+320113873
1749+321154933+322949984+324571925+325847165+327004098+328547942+329752087
1736+329931758+331488612+335102338+338100540+340792250+343288221+345391938
1722+347004222+347543345+348205751+351766774+357040034+361222442+364173063
1709+366084946+367705486+369907423+371578861+373187017+377098168+382201155
1695+388608535+395161163+399837583+404120423+407764297+411150220+419060201
1682+429406079+437200408+443199612+448714350+454373045+458972769+463451755
1668+469881764+475564010+479184481+483414802+489218266+494250969+496901402
1655+498562446+506075788+516581471+522588710+529818706+540955431+550964670
1641+559415434+567134578+575035825+587639512+603504366+616807867+629607516
1628+643855442+658375657+673791978+690399324+704068101+715515519+729584252
1614+744063631+755112419+763495000+770055588+775244043+779013042+781393397
1601+783184652+784085034+782648993+779179556+774902023+769708408+763024870
1587+755472203+748297453+741759789+735184679+727817912+718877706+710404755
1574+705848078+702302793+698611632+697450534+698175631+699268767+699778480
1560+698770775+702418519+713673477+724456093+734000952+743985055+755735278
1547+767733686+778541807+788410184+801251553+824045698+847203314+864743327
1533+880232991+894054055+904791192+912747059+918102249+921167970+922546000
1520+922907111+923105026+922669687+920365255+915881626+910411668+904348778
1506+901665397+905561916+908114312+907617573+906596231+907951411+912224594
1493+916108804+918524835+922004076+927933549+933875185+939059438+944713895
1479+949993974+952571579+951697733+950630396+955001910+962385778+966723533
1466+967324795+966443209+965890744+964605000+960614868+958483067+961813632
1452+964732300+964833063+962435607+958543437+954776944+952122752+950446265
1439+947275137+938886954+929160914+923983663+920316016+916655888+914246713
1425+913366159+915448794+919179464+922331058+927633323+935768530+943176575
1412+947480791+949436349+951055193+953426334+957613349+962171574+964529078
1398+965301571+965655163+967455264+972739912+977309119+976706973+973994476
1385+975074050+978343213+979719769+980543713+982557870+984403082+985447200
1371+985869271+985647695+984785274+982809373+979768492+977719396+978107706
1358+978847766+977399637+974453328+972012162+969940436+968091981+966717562
1344+964572494+961895599+960944578+960557668+958146133+955717645+954262808
1331+952073587+950131592+950051616+951944739+955651526+958998456+959941664
1317+959733061+959922351+960802315+962558631+964873678+967276367+970464227
1304+974630603+978489677+981635080+983660884+984311090+984664314+984934908
1290+986140970+989609522+993293238+995646835+999279543+1005953794+1012860751
1277+1017255631+1020208058+1023650665+1027367624+1029753064+1030840157
1265+1031506284+1031202079+1030043118+1029753064+1031384956+1033659830
1254+1034103424+1032306935+1030540816+1030813031+1032515759+1033920546
1242+1034917490+1036139031+1036798893+1035816029+1034197921+1033502899
1231+1033574693+1033750789+1033569165+1033100878+1033455797+1034763802
1219+1035038376+1032937829+1030200123+1029033128+1029357678+1029839233
1207+1028810962+1025904752+1023672852+1024482495+1027374405+1029204064
1196+1027576005+1023980670+1021699899+1020834382+1020097639+1019526820
1184+1019392076+1019762843+1020629465+1022663451+1025730867+1027270988
1173+1026318345+1025163586+1025244374+1025948758+1026868157+1028185081
1161+1030034346+1032643058+1035346046+1036217828+1035201867+1035524722
1150+1038521376+1041445793+1042464776+1042339983+1042575564+1044477901
1138+1046712234+1045730033+1042666523+1042112731+1042609692+1041611422
1126+1042087743+1043394421+1042178408+1041988823+1045516713+1047718539
1115+1045629491+1042071600+1039995894+1039957785+1039149321+1036292498
1103+1033840864+1033113409+1033840717+1034989653+1036245912+1039697216
1092+1045894851+1051502723+1053356558+1051160777+1046868576+1045083217
1080+1048169356+1051847691+1052948567+1053442800+1052906036+1049012612
1069+1044655029+1045321526+1049954715+1051480241+1047983899+1044179297
1057+1042642051+1043122795+1045329044+1047576719+1049374460+1051289034
1045+1050510202+1048171494+1049203671+1051131882+1047977855+1040416121
1034+1035666100+1037275141+1040827577+1042491385+1042580871+1041524369
1022+1038729536+1034622203+1030450741+1027830309+1030084175+1036800589
1011+1041355423+1041228271+1039875745+1037295707+1032545980+1030039359
999+1032377550+1034901347+1034536624+1035226339+1039161557+1043251200
988+1044867096+1044080082+1043518329+1046201121+1050718067+1052882153
976+1052029094+1050309707+1048951727+1049350504+1052807558+1057579766
964+1060840674+1062600012+1063892906+1064305172+1063289359+1062100914
953+1062634509+1063493244+1062526448+1061576680+1062067449+1062715960
941+1063298130+1064670116+1067008750+1070350741+1073741823+1073665090
930+1069644957+1066955162+1067649374+1069520680+1069909064+1066599211
918+1064005168+1067310745+1071581496+1071156330+1069068314+1068413022
907+1067004107+1063921137+1061315005+1060280543+1061117975+1063634106
895+1065872272+1064277310+1059322077+1058440196+1062740137+1064155981
883+1061404786+1058998927+1057227869+1053255574+1046004017+1039469523
872+1036838181+1036580266+1036282399+1035820599+1036054337+1034228511
860+1029422986+1026038096+1025703299+1026197459+1026178147+1026635746
849+1027022950+1025924433+1024420430+1022903602+1022094917+1022636915
837+1022469812+1020463025+1017346296+1014318094+1012878515+1012621558
826+1010667917+1008151345+1009556574+1013166062+1014283597+1012914486
814+1010686566+1007847286+1005371328+1004511119+1004657583+1005366463
802+1006834789+1008372920+1009020252+1007408483+1003838947+1001960123
791+1002235139+999495369+993396286+989153398+986211880+980962024+976335321
777+976236917+977515806+976261389+973557811+971161092+968587983+964501436
764+960207908+958380682+958696682+959786649+961074752+960750349+956815426
750+950508330+944277599+938688892+934926527+934004032+933832285+933214291
737+933216797+932100073+927911436+922848953+917761335+912270738+908911867
723+907487325+904246393+899361702+895858873+894458214+893277435+889741731
710+886135486+887415186+891797388+894815860+896427260+897492976+898216599
696+898318541+896830165+895238520+894976551+893880761+892185404+892806568
683+893000428+889321578+886385662+888405422+893119250+896051997+892148696
669+884257031+887221915+895832485+898120700+899580697+899446174+894147079
656+889257817+888420901+890422896+893399721+895127511+893273454+888889041
642+887661455+891030202+892265012+888807590+889807998+896522347+899244501
629+898943170+896599818+889587159+881460651+869862494+857854429+855681719
615+860133505+861127500+861080693+866132930+869748315+869384477+868275419
602+859192729+848247137
##END=
