##TITLE=Sample description
##JCAMP-DX=4.24
##DATA TYPE=INFRARED SPECTRUM
##DATE=12/9/2023
##SAMPLING PROCEDURE=Instrument type and / or accessory
##ORIGIN=Default
##XUNITS=1/CM
##YUNITS=ABSORBANCE
##RESOLUTION=4
##FIRSTX=4397.6552
##LASTX=599.8556
##DELTAX=-1.9287962
##MAXY=1.8740047
##MINY=0.253025
##XFACTOR=1
##YFACTOR=1.7453029e-009
##NPOINTS=1970
##FIRSTY=0.25919449
##XYDATA=(X++(Y..Y))
4398+148509747+148283750+148091494+147919047+147680994+147752934+147617848
4384+146635379+145881622+146243217+147146848+147999507+148672325+148985716
4371+148754613+148102491+147486979+147836349+149312546+150248825+149770414
4357+149011296+149034058+149668028+149754278+149137793+149055624+149555465
4344+149514347+149176674+149627115+150111861+149433135+148667049+148817503
4330+148912291+148574003+148501944+148709943+148878856+148711156+148436134
4317+149012167+150171250+150413247+149469830+149020858+149798367+150108394
4303+149414454+148969358+149135026+149473724+149501318+149413071+149496537
4290+149039488+148004613+147676059+148965925+150996828+152104803+152246908
4276+151879506+150603129+149080111+148586332+149056581+149821334+150007665
4263+149148448+148419519+148660731+149399068+150038298+149830726+149172986
4249+149372738+149873893+149384913+148832991+149550701+150277017+150013061
4236+149878726+149775776+149098314+148676219+148975693+149880075+151055090
4222+151561163+151143935+150717810+150838894+151267922+151636177+151784497
4209+151862789+151740390+151038014+150146815+149913799+150365025+150760295
4195+150910612+151297104+151972910+152188252+151366790+150279971+149953244
4182+150081278+150016390+150042926+150449004+150699642+150677682+151056114
4168+152025230+152791709+152471880+151479968+150978232+151210052+151593727
4155+151781099+151947058+152093158+152095753+152237499+152469182+152481767
4141+152505742+152500841+151824539+150668888+150103681+150321414+150722147
4128+151025020+151034240+150841285+150976883+151460741+151666196+151283785
4114+150717008+150380599+150383092+150548555+150450370+150282960+150678126
4101+151247089+151221732+150924204+150856943+151229758+151954195+151838183
4087+150839765+150557708+150902809+150917955+150904977+151243077+151484681
4074+151159474+150527023+150281320+150639535+150898454+150511399+149798009
4060+149391692+149786227+150731249+151589526+152161785+152313622+152006994
4047+151930153+152603773+153280963+153294760+152761673+151712984+150700495
4033+150532077+150960149+151398961+151625351+151558278+151477287+151536404
4020+151358901+150816815+150402695+150566109+151074129+151559285+152077790
4006+152489656+152256863+151437552+150840738+150571266+150267899+150410754
3993+151297702+151975147+151772885+151524980+151699528+151842332+152000232
3979+152080932+151848667+151653202+151733184+151962716+151864719+151209420
3966+150611036+150543774+150928132+151548630+152122477+152517404+152792836
3952+152914381+152870001+152712956+152193939+151696045+152136513+152613933
3939+152057794+151182731+150633132+150788965+151633120+151997824+151263670
3925+150329730+150255126+150557896+150681405+151309962+152409400+152671427
3912+152054071+151560241+150794702+149345570+148906075+150118913+151469740
3898+152291902+151810315+149970918+149556370+151162445+151058112+150325563
3885+151236383+151232678+151150663+152226092+151544839+149924745+149219022
3871+148941644+149503777+149623597+149278360+150706301+152516089+152095241
3858+148928803+144974832+146704672+152824358+154555000+152849903+150349418
3844+148684278+147972306+147651111+148830464+150584363+150522617+150241807
3831+151262458+152110814+151900390+150334272+148198850+149066843+150895483
3817+150790980+151990584+153324745+152348201+150400577+149875635+150402660
3804+149646393+150232040+152491313+152473366+151934746+152201213+152027689
3790+151806081+151767165+151848924+152404312+152484499+152101439+152789267
3777+153618721+153163823+151976872+151603392+152569400+153349744+153498644
3763+152822462+151439977+151452903+152530655+151748894+148980047+147854073
3750+150379864+151630832+151725483+154830244+156943400+154888335+151602572
3736+150869596+153171183+155828081+157152936+157299411+157417012+158122103
3723+159473972+161888924+164480251+165797388+165727975+166284251+170062683
3709+175139452+179435911+183561168+189122802+196930304+203665450+207226714
3696+208581468+207733965+204574733+201743901+201167698+199939833+196605438
3682+192352284+188082053+183721031+181194899+181859042+180943493+179051519
3669+180134581+181459385+181239842+180845939+180542520+179806437+179657810
3655+180289748+179108449+177164719+179378451+184049858+186126131+186322894
3642+186141431+185761649+185188161+184795590+184373461+183007812+182113488
3628+184542937+186465579+185529470+183739558+183109669+184628845+186167351
3615+186178809+185865777+185765901+185960103+186737749+187084352+186642450
3601+186223172+185926208+185580339+185716655+186126540+185658204+184924938
3588+185979723+187620172+187789614+187562695+187697508+187668650+187462426
3574+187597751+187918024+187843676+187967219+189066298+189928298+190104861
3561+190089630+189616478+188867793+188357809+188195538+188288874+188374629
3547+188780024+189670352+190307977+190294334+189929767+189730920+189557379
3534+189206729+189196228+189584086+189900601+189979850+189887521+189723799
3520+189599573+189366387+188862295+188506590+188591747+188903567+189116381
3507+188933056+188799780+189277867+189673972+189356005+188857479+188586299
3493+188309417+188002429+187761132+187610490+187823083+188507034+189078507
3480+188817180+188033763+187679971+188080363+188701356+188933552+188868186
3466+188759140+188567619+188395154+188236213+188204520+188620588+189032471
3453+188944190+188733014+188695909+188862704+189271583+189765789+190199068
3439+190468677+190694281+191210139+191850855+192123349+192143669+192354777
3426+192442939+192030372+191817369+192314563+193016615+193602193+194075771
3412+194272518+194320022+194659539+195290061+195939638+196626356+197169808
3399+197298747+197359110+197731429+198295321+198774432+199039089+199257641
3385+199687727+200320178+200922285+201433891+202055977+202817009+203522919
3372+204046547+204301641+204391613+204718681+205381715+205996202+206461379
3358+207030411+207687895+208333170+209068502+209735121+209972320+210090177
3345+210736374+211643642+212196246+212603007+213377101+214354807+214861939
3331+214888611+215186822+215925415+216356321+216221765+216368462+217129408
3318+217613334+217394850+217314201+217847494+218423065+218859077+219201582
3304+218987504+218250208+217915318+218729336+220028543+220784844+221589828
3291+223371817+225331872+226277816+226696069+227538568+228682557+229881547
3277+231068634+231915932+232567986+233494805+234368280+234634696+234672467
3264+235020556+235329285+235231971+235058789+234958656+234760578+234559836
3250+234431153+234382743+234568630+234849406+234714593+234222334+233981071
3237+233954416+233868320+233811885+233721298+233599343+233420594+233049214
3223+232958883+233562152+233891253+233016497+231983910+231645862+231288040
3210+230789463+230573319+230403944+230072607+229623549+228994070+228358135
3196+227995583+227816186+227707362+227582504+227252874+226580791+225676187
3183+225065029+224782375+224347661+223734198+223035459+222507358+222332929
3169+221990749+221303485+220610398+220054190+219884611+220048692+220143667
3156+220333191+220577527+220246924+219582524+219345189+219519208+219687574
3142+219466614+218772674+217952783+217118684+216293807+215816796+215708314
3129+215677134+215670440+215647900+215430543+214964769+214174111+212957209
3115+211582254+210446343+209638046+208906351+208009175+207081262+206156663
3102+205080533+204096681+203398352+202759873+201978044+201063280+200260020
3088+199784017+199587851+199504419+199246593+198821083+198614944+198448234
3075+197921311+197303870+196929314+196824264+196911470+197025518+197090167
3061+197115012+197193800+197372583+197401543+197180429+196900029+196698245
3047+196644354+196659159+196598471+196408179+196164406+196044125+195884774
3034+195425659+194927901+194651872+194502477+194403830+194184953+193694334
3020+193229071+193038301+192956884+192847907+192745708+192639822+192362375
3007+191864567+191400482+191119843+190885154+190487716+189916516+189576572
2993+189877259+190647630+191484461+192110713+192335020+192386589+192540031
2980+192611664+192569162+192673359+192916688+192935778+192637004+192449171
2966+192390140+192062047+191625899+191278459+190856433+190624425+190887357
2953+191253973+191218950+190825218+190529705+190604224+190843557+190962848
2939+190965461+190914507+190760040+190511195+190224408+190009118+189939312
2926+189905468+189762305+189318029+188502645+187695322+187308625+187194303
2912+187032118+186975273+187135204+187238188+187306047+187576765+187865857
2899+187872927+187650806+187392142+187246077+187264126+187397794+187643446
2885+187918502+188148870+188430996+188699153+188839994+189024104+189381516
2872+189722536+189764696+189508645+189286695+189270712+189256419+189175344
2858+189101952+188922128+188704686+188485501+187887817+187089629+186868566
2845+187259037+187729200+188105874+188397596+188523700+188480754+188490283
2831+188712592+188957543+189133696+189301431+189318439+189190729+189156629
2818+189277235+189393059+189363775+189255497+189260074+189395501+189519300
2804+189654301+189921741+190375990+190924599+191299855+191457857+191564700
2791+191612768+191543338+191447270+191456149+191530070+191549263+191533707
2777+191575850+191657933+191650864+191488491+191236897+191051250+191086101
2764+191366075+191695431+191796639+191624226+191414963+191477443+191893476
2750+192369291+192506699+192281009+192052041+192014252+192078030+192209257
2737+192479993+192845021+193117208+193258544+193376674+193491491+193549805
2723+193582180+193655486+193704016+193697254+193747815+193932625+194204181
2710+194463322+194682694+194846109+194894792+194894143+195032678+195236596
2696+195236716+195176456+195407593+195805423+196034648+196212065+196538092
2683+196780089+196774044+196669199+196594390+196594424+196583206+196473443
2669+196464478+196578493+196464512+196162784+195951370+195805611+195703515
2656+195658077+195600549+195568036+195632685+195688147+195657291+195641428
2642+195544745+195262313+195087338+195168157+195248601+195193190+195107282
2629+195033549+194874796+194640841+194448159+194288330+194225235+194310597
2615+194277948+194023588+193832749+193829625+193810363+193572891+193190309
2602+192940833+192841213+192736009+192761879+192917968+192905213+192756056
2588+192742140+192830780+192791796+192573841+192312292+192199592+192216771
2575+192117373+191847730+191527423+191275215+191170694+191170558+191146071
2561+190973111+190726076+190536877+190301779+190035363+189939158+189867645
2548+189658297+189509021+189412987+189230191+189031857+188881044+188768395
2534+188635443+188513113+188476588+188402462+188209558+188078706+188128106
2521+188168815+188060606+187901648+187764223+187678383+187648210+187584979
2507+187485991+187445316+187450012+187500471+187629802+187735262+187800611
2494+187879211+187883343+187869033+188044674+188364349+188615755+188765782
2480+188869791+188840028+188635546+188500340+188615499+188790969+188784122
2467+188660118+188712079+189008890+189297743+189415446+189392633+189338076
2453+189356927+189440171+189505503+189530485+189641648+189947286+190303930
2440+190545022+190756779+190997649+191131471+191176005+191284572+191402685
2426+191412760+191411547+191551773+191796930+192003870+192105112+192122700
2413+192157006+192322025+192552377+192718336+192839693+192947014+193091014
2399+193402407+193869701+194266080+194410643+194415903+194466583+194490285
2386+194218712+193363918+191729549+189389935+186619653+183513680+180116532
2372+176625143+173166744+169841928+166638111+163750281+161952890+161739375
2359+162968298+165518336+169482313+174907580+180300967+182707211+181016116
2345+177220181+174505259+173771720+174259522+175302406+176417570+177334417
2332+178133032+179229294+180723335+182254226+183651123+185268348+187352066
2318+189575138+191446109+192835561+194064604+195393335+196736717+197956743
2305+198996485+199833144+200550137+201239279+201865873+202462226+203076338
2291+203589720+203995729+204410584+204758417+204934536+205022715+205123274
2278+205267051+205467077+205654841+205754683+205859716+206068842+206295711
2264+206482604+206718250+206996003+207191555+207313202+207483225+207721397
2251+207920671+207982502+207933615+207940564+208105943+208301972+208421076
2237+208513182+208576635+208614851+208734108+208927251+209066606+209158747
2224+209283178+209427690+209562725+209651894+209711540+209810852+209923808
2210+210031300+210126497+210162032+210157951+210167291+210263564+210449126
2197+210624938+210779473+210907319+210999750+211167519+211388752+211495066
2183+211536662+211645247+211745942+211802463+211910296+212055713+212174304
2170+212322812+212537402+212694123+212769769+212900620+213065743+213172551
2156+213239505+213285234+213311377+213361477+213505169+213751504+213996660
2143+214132925+214171038+214189462+214256877+214383955+214448621+214396796
2129+214428386+214659591+214901469+215010856+215056192+215063535+215069665
2116+215186497+215349792+215432012+215442035+215432456+215477229+215590970
2102+215684716+215755614+215859349+215949868+216022525+216178153+216419433
2089+216619766+216681631+216618263+216530545+216520556+216591864+216668158
2075+216725686+216831027+217012063+217163098+217212857+217259405+217321868
2062+217283875+217216784+217294547+217500122+217649125+217609407+217513834
2048+217505296+217487179+217422137+217415170+217520391+217720689+217954832
2035+218111826+218152996+218219010+218371975+218468538+218500043+218639449
2021+218870193+219026846+219115537+219221526+219319695+219360079+219412467
2008+219582012+219795510+219926515+220027091+220221652+220487299+220655939
1994+220693096+220826457+221166059+221517068+221730856+221859846+222075906
1981+222400242+222651802+222799370+222922845+223048522+223183233+223306519
1967+223445447+223619466+223776307+223982957+224310316+224621419+224885956
1954+225207953+225502783+225650488+225682761+225739025+225995930+226489418
1940+226981114+227279922+227465826+227647887+227859626+228109666+228381051
1927+228590485+228792354+229168498+229517868+229743626+230218946+230820763
1913+231123840+231244651+231498909+231898788+232310006+232731213+233196441
1900+233632419+233926975+234168375+234466858+234665774+234887946+235408004
1886+235919440+236277466+236779834+237449323+238073833+238528201+238797776
1873+238814169+238631168+238850079+239819246+240877634+241654102+242285784
1859+242820767+243289000+243770109+244316345+244874072+245301358+245432500
1846+245463800+246233164+247555799+248432074+249003838+249648447+250163092
1832+250278148+250483108+251323268+252372162+253533585+254760613+255677921
1819+256399200+257085576+257618458+258040024+258747250+259804118+260765260
1805+261479708+262039007+262582356+263363212+264219970+264644200+265000980
1792+266365689+268223631+269418232+270225624+270956602+271550291+272404983
1778+273498188+273979604+273750738+274128197+275919373+277900106+279215962
1765+279801779+280374977+281623282+282855893+283823677+284663342+285049220
1751+285338397+286210079+287552675+288928467+290059666+290908398+291898756
1738+292665149+292747215+293791055+296179164+298036764+299554967+300874034
1724+301966368+302576586+302155943+301752990+303587709+306737361+309030973
1711+310374834+310981944+311382336+312189574+312658234+312993055+314632257
1697+316826113+319685683+322548361+324060417+325036124+325466467+325436892
1684+327642495+331471694+333778181+334744121+335694795+337450249+338940516
1670+340614757+343838826+346540753+347818325+349551341+352290561+354355359
1657+354633113+353882224+356562294+361428434+363356796+365530263+370058474
1643+374011130+376427756+377526408+377921165+380546319+385614055+389296675
1630+391715213+394284803+397107934+400307858+404209696+407446845+410307371
1616+415254040+421000365+425478270+429759805+434571507+439712087+444844539
1603+450024394+455462536+461115662+466910208+472987973+479243565+485436796
1589+491710829+498113442+504771338+512122099+520028435+527056499+533122037
1576+540612819+548204211+553989980+560594122+569159172+577731871+585630353
1562+591654671+597080450+608430825+621562130+631659761+641279955+651099798
1549+661290116+670409444+678109642+685430144+694916191+708379926+718942564
1535+726385943+734985622+744782106+753349751+761424181+769273007+776208690
1522+784499504+794671585+804534937+814167220+823228013+831259753+838065866
1508+843881724+852682760+864223563+873390567+880279600+884975904+888874157
1495+894289076+899941348+904336982+908707276+915274466+922060225+927446252
1481+932327520+936539829+938530108+937815865+937080106+939985575+946583911
1468+952942503+955383376+954330692+953114080+951533346+947913496+946107635
1454+949004840+952330782+953482369+951956277+949999877+947659818+942971438
1441+937862242+935160998+933517698+929746489+924351036+918278565+913748578
1427+912167912+911023497+910993853+914610971+920366039+925926307+932153826
1414+938426561+942681150+945056999+946644564+948628627+951839343+955561715
1400+959479229+963834975+967573604+972097511+978995492+983674515+983105552
1387+979927212+977282660+975475979+975542574+979910751+986661197+990643189
1373+991245553+991361258+991309075+990998160+990576389+989495359+990026346
1360+992457656+992236560+989422684+988396775+989895136+991266454+990786421
1346+987938052+983712219+980059856+976844496+972951503+969858063+968523493
1333+967354283+966016707+964651468+962869923+962130339+964251008+969219499
1319+974234983+976290628+976460634+977679909+980294818+982431744+984006536
1306+985756525+987061179+988385163+990671467+992827790+993339516+993263221
1292+994321507+997160176+1002566967+1009196927+1014906505+1020752211+1027654289
1279+1033492823+1036309772+1037220660+1038522445+1041599560+1045887140
1267+1049304813+1051285598+1051957494+1051335391+1051165521+1051774988
1256+1052129617+1053405447+1055316085+1056414191+1058562591+1062191526
1244+1065310032+1067473937+1068390972+1069118125+1071440015+1073741823
1233+1073314178+1070929450+1070043561+1071256826+1070810876+1067956975
1221+1067330842+1069999984+1072573706+1073365406+1071417953+1067772831
1209+1066377129+1067718188+1069046202+1069180144+1067787994+1064672902
1198+1062094057+1062522248+1064349147+1064546337+1062804544+1060251449
1186+1058159467+1057689338+1058305021+1058302357+1058053325+1058711628
1175+1059689180+1060178980+1057886870+1052177156+1047394654+1044878784
1163+1042225215+1039606549+1038982670+1039718156+1039018393+1037955668
1151+1039267084+1040097989+1036029457+1029542387+1027057185+1028871994
1140+1029169794+1027131362+1027355122+1029110439+1028587854+1026062763
1128+1022744743+1019576922+1018365433+1019062738+1018978110+1016717147
1117+1014014332+1012274452+1011331735+1010239776+1008722631+1008173408
1105+1008767438+1009489468+1010345236+1011573800+1013174889+1014950492
1094+1016551034+1016061029+1012204510+1008611776+1008742849+1013859558
1082+1022650759+1028055159+1027717128+1027716172+1030773615+1034182683
1070+1035482077+1036629771+1039041548+1040123603+1041143707+1043612447
1059+1042458606+1040617569+1047068234+1055653638+1056211058+1052213766
1047+1048428008+1044749623+1041441371+1040318471+1042710507+1046130981
1036+1046290605+1042830994+1037585807+1032025198+1031193678+1036069756
1024+1037183367+1031923358+1027804897+1026250801+1025619272+1025948629
1013+1026862112+1028852118+1030192358+1029321085+1027749503+1025774046
1001+1024219472+1024077060+1025421330+1029511446+1035444169+1038981168
989+1038490480+1036781950+1035988134+1037194432+1042337573+1049487933
978+1052547358+1050434270+1048560380+1049415327+1051944448+1055633762
966+1058390263+1059731186+1062781526+1067176273+1069703413+1070412260
955+1070317866+1068188522+1065181213+1064679460+1065556606+1065015032
943+1064420660+1065986436+1069181715+1070465263+1068067968+1065646219
932+1064711630+1063594741+1062780228+1061989076+1060781480+1059873802
920+1059996201+1062675657+1066247285+1066945409+1064245668+1059925918
908+1057845069+1060978466+1066881956+1071315088+1072445502+1069795212
897+1066168463+1065727363+1067573113+1068757007+1067905475+1064022795
885+1058238494+1053417605+1052250991+1054280135+1055305088+1054132464
874+1053935478+1055347026+1054399050+1050159966+1046870565+1044950502
862+1042295635+1039771501+1039227127+1040663674+1040244772+1035556254
851+1030820335+1030047419+1029655701+1025017113+1020093634+1020284540
839+1026097734+1033761663+1036092569+1031483556+1026579065+1024640491
827+1022184523+1020800569+1025601377+1032119934+1033454710+1029724961
816+1025143269+1022481162+1019144428+1014288773+1012077739+1013501582
804+1015689530+1016680127+1015853388+1014926381+1016447760+1018949833
793+1018854755+1013861607+1005921665+1000449030+999129349+1000251361+1001431294
779+998313676+990735876+985424914+985785212+987170191+985739791+984659785
766+985006422+982488298+977538181+974086014+972848639+972832997+971232660
752+964966413+956958578+953034780+954459716+957399064+956298157+951965771
739+950301434+949896193+946583160+942690644+940035436+936462647+931884917
725+928481246+926435027+922439374+915598495+912714199+914929331+915818430
712+915377467+914747304+913060222+913025865+916089729+920020904+922397641
698+921805455+917624701+913755067+914425665+916541690+915838989+914340355
685+916239176+920902012+924619467+925479879+923574910+920845457+918644805
671+916353242+915700676+921338536+927451443+928852335+928198198+927014782
658+926758714+927732304+928333438+929168510+932107448+936137867+936858667
644+932864313+928653506+929250337+933433071+937089258+938503129+934116783
631+925483635+921015805+925233442+935450193+944460441+946046708+938610296
617+927131921+920312967+922546541+929652573+934138299+930344481+919641003
604+916561634+926851948+939379319
##END=
