##TITLE=Sample description
##JCAMP-DX=4.24
##DATA TYPE=INFRARED SPECTRUM
##DATE=12/9/2023
##SAMPLING PROCEDURE=Instrument type and / or accessory
##ORIGIN=Default
##XUNITS=1/CM
##YUNITS=ABSORBANCE
##RESOLUTION=4
##FIRSTX=4397.6552
##LASTX=599.8556
##DELTAX=-1.9287962
##MAXY=1.9829054
##MINY=0.33767045
##XFACTOR=1
##YFACTOR=1.8467246e-009
##NPOINTS=1970
##FIRSTY=0.34159636
##XYDATA=(X++(Y..Y))
4398+184974183+184304152+183308360+183048830+184217378+185808320+185945219
4384+184126909+182848300+183833085+185496439+185927338+185226564+184697611
4371+185050870+185988888+186824542+186849653+186140391+185717787+186095898
4357+186670958+186808905+186711738+186800335+186915932+186895501+186516469
4344+185648055+185121893+185102092+185055437+185367835+185940781+186223259
4330+186239897+186138696+186576809+187640735+188162329+187848720+187722312
4317+188083640+188006872+187294237+186603517+186207105+186312744+186810841
4303+187524558+188483054+188724655+187566000+186511257+186953597+187825691
4290+188070343+188286930+188778330+189472923+189765520+188630184+187352689
4276+187741371+188486427+187911771+186935007+186577584+186339000+186007156
4263+186263362+187396697+188696156+189186394+188749782+187964752+187332694
4249+187285280+187648642+187346605+186312389+186107227+187186306+187916855
4236+187543487+187238529+187324689+187074212+186621140+186592140+187301128
4222+188364440+188900075+188398491+187361903+187000107+187408526+187957910
4209+188578478+188795113+188368378+187798241+187566920+188307409+189729113
4195+190441958+190129430+189727628+189453912+188884130+188306909+188088449
4182+188204981+188594228+188741261+188374414+188277102+188779944+188914712
4168+188466545+188321901+188196509+187524687+187115897+187469447+188128407
4155+188672207+188826421+188716263+188735306+188923943+188940484+188604379
4141+188490913+188936062+189340011+189260564+188702562+188342444+188835023
4128+189382502+189360732+189314723+189478281+189559551+189410259+189231564
4114+189460077+190483997+191478078+190854185+189096764+188098439+188295967
4101+188794581+189060615+189292807+189488561+189698886+190289599+190673876
4087+190080419+189489965+189916765+190455255+190179716+189351921+188663557
4074+188657893+188912759+188886196+189104365+189779947+189983866+189424687
4060+189181585+189484284+189471002+189253399+189362168+189608304+189700403
4047+189734874+189870739+190088585+190492889+190866579+190698664+190331865
4033+190255322+190197742+190011010+189799022+189633302+189741926+190094992
4020+190394690+190501975+190413603+190270976+190121474+190064927+190545547
4006+191315730+191382105+190712268+190209797+190062958+189733938+189050125
3993+188423683+188571538+189495597+190096719+189985496+189925753+190213557
3979+190383796+190095767+189531455+189166044+189369672+189825537+189998713
3966+190198484+190503895+190401919+190174294+190257888+190241056+189867302
3952+189964113+191060605+191815732+191150348+190534960+191359028+192381641
3939+192218518+191227536+190413297+190546144+191343503+191660178+191069530
3925+190335302+190160238+190158801+189924366+189774928+190168565+190841807
3912+191267607+191108357+190287453+189513445+189956302+191380927+192370925
3898+192525252+191677026+189772201+188810864+189836866+190177860+190210636
3885+191576116+191884334+191486485+192094563+191373552+189304072+188066066
3871+188242583+189783078+190405228+189927206+190916155+192052039+191070127
3858+188501936+186201650+188621534+193874351+195250465+193884389+191833241
3844+190362914+189523499+188759223+189269714+190925047+191491650+191203878
3831+191250872+191485904+191559380+190768234+189344852+190135321+191486921
3817+191146588+191996089+192979745+191852687+189853536+189328488+189939148
3804+189192220+189217314+191026425+191510111+191685063+192291898+192145317
3790+191744176+191785134+192167426+192411625+191773079+190913960+191208687
3777+191997832+192009371+191237816+191249338+192743066+193758981+193924718
3763+193368120+191939558+191580779+192310166+191236396+188164766+187039968
3750+190064459+191727376+191303384+193230803+195086649+193569167+191004332
3736+190481237+191857948+193252702+193470338+192660698+192594032+193714634
3723+194858588+196330965+198054303+198900834+198195413+197202704+199253367
3709+203274473+205823734+207143785+209787663+215368646+221142412+224737573
3696+226204866+225625337+223858572+223226255+224380553+224558296+222793048
3682+220210769+217545379+214840822+214096637+215872682+215449222+213573107
3669+213787693+214471344+214491307+214712590+214876406+214343241+214188817
3655+215025408+214643616+213392652+215247337+219484352+221754394+222066728
3642+221900411+222030870+222325790+222405657+222071247+221036950+220495587
3628+222573201+224218351+223493370+222085561+222005420+223919347+225677301
3615+226145333+226143558+226200347+226626034+227221750+227327744+227051268
3601+226980487+227221911+227578124+228347806+229150427+229018870+228782530
3588+230057508+231638428+231752846+231209401+231128889+231386838+231511213
3574+231687601+231794014+231363696+231324545+232679842+233926110+234211412
3561+234199470+234166275+234108049+234201778+234427080+234521874+234516080
3547+234693678+235168021+235730363+236112719+236121434+235655064+235335113
3534+235787734+236334293+236281167+236048313+236139702+236319124+236227105
3520+236180999+236559724+236858921+236348333+235474270+235438557+236107943
3507+236219375+235829111+235892453+236149869+235933120+235581442+235431198
3493+235312859+235212303+235072791+234789231+234592332+234845940+235381187
3480+235388223+234913752+234663597+234500927+234305497+234324087+234232053
3466+233786113+233537056+233873371+234383523+234689628+234752179+234627432
3453+234581488+234705992+234744061+234808048+235324301+235816024+235660341
3439+235412736+235386593+235368632+235646624+236070470+236154275+236015295
3426+235770676+235645042+236009243+236524043+236850836+237083868+237107817
3412+237111012+237426122+237841980+238256079+238831946+239407311+239758328
3399+240005141+240097450+239823283+239694115+240221260+240819510+240963525
3385+241077749+241607138+242466112+243235101+243420897+243129897+243052113
3372+243396480+243792489+244015886+244128448+244437022+245132567+245831856
3358+246233642+246721782+247535102+248101027+247958642+247538410+247451120
3345+247791711+248288082+248736184+249134000+249607423+250284716+250767805
3331+250644285+250576054+251105120+251561291+251577203+251691524+252038554
3318+252136447+251846884+251687054+251833635+251667382+251198123+251126358
3304+251155196+250477290+249724084+250215145+251418874+252226303+253381860
3291+255389290+257332282+258819376+260059851+261123680+262045866+262966132
3277+263985533+264692826+264917999+265153548+265325643+265306730+265545716
3264+265745504+265520170+265385967+265319253+264973401+264763010+264898246
3250+265099034+265222199+265210580+265088609+265126646+265548266+265918486
3237+265733078+265321528+265020572+264862259+264992008+265170606+265077990
3223+264934976+265039276+265209741+265020765+264855287+265217245+265127340
3210+264050924+263353232+263645700+263881863+263464665+262997326+262874452
3196+262623217+262168740+261912276+261705210+261251186+260692490+260249133
3183+259727329+259047696+258638825+258317922+257628138+257036070+256808848
3169+256663558+256607946+256584095+256549947+256496320+256221620+255984393
3156+256100618+256143335+255703318+255117931+254780503+254694778+254861628
3142+255144090+255307568+255088027+254204056+253163643+252677907+252543656
3129+252432869+252250107+251919231+251690378+251531678+250942885+249806517
3115+248511609+247667175+247455833+247158862+246159359+244817425+243730180
3102+242910115+242116370+241232125+240206268+239313663+238800832+238247575
3088+237502293+237073524+236980037+236943565+236961623+236848545+236457668
3075+236080137+235973159+235919742+235746469+235815798+236152161+236164087
3061+235727329+235224455+234925080+234956614+235217742+235407831+235452855
3047+235490537+235434700+235093205+234537318+234094493+234038704+234122105
3034+233788066+233061004+232698771+233055032+233448314+233293842+232752317
3020+232188909+231987105+232179679+232193638+231784783+231365778+231089997
3007+230891710+230813231+230671088+230520876+230629840+230592351+230149720
2993+230104098+230818395+231587836+232163186+232721768+232967452+232744700
2980+232540620+232752624+233080514+233050449+232615645+232180776+232130087
2966+232221379+232182115+232209340+232122034+231641382+231181999+230957633
2953+230766673+230704090+230791961+230888143+231010162+231110863+231094015
2939+231059270+231187083+231384514+231377074+231128808+230773306+230464991
2926+230384123+230376748+229908393+228857426+227908532+227633493+227748460
2912+227868284+228169208+228749544+229192918+229235264+229106241+228989418
2899+228878857+228730405+228518223+228463838+228755096+229132465+229362721
2885+229560088+229847763+230282164+230705365+230834775+230725360+230569855
2872+230540097+230649124+230675607+230595030+230475771+230404344+230485938
2858+230580877+230620512+230608102+230302223+229654753+229018289+228649053
2845+228625330+228898497+229128979+229160803+229235506+229433438+229639099
2831+229823508+230011402+230195907+230325075+230377475+230314682+230114620
2818+229966845+230015372+230150640+230291217+230447287+230622400+230861435
2804+231178884+231512084+231818947+232060581+232199690+232296437+232521706
2791+232810430+232766470+232410161+232216053+232362392+232628684+232753527
2777+232824696+233030116+233174647+233030793+232650535+232216634+232016685
2764+232234886+232634526+232895461+232983735+233021224+233140580+233291841
2750+233345289+233316935+233231178+233172581+233294471+233563168+233769007
2737+233741750+233577547+233567234+233775882+233986272+234015336+233977332
2723+234144246+234442734+234610729+234629433+234648525+234902778+235337227
2710+235508386+235422161+235500140+235681127+235790509+235995768+236177481
2696+236218391+236421438+236746811+236888551+236901445+236938820+236990849
2683+236976373+236915646+236970999+237118016+237159878+237097327+237015750
2669+236920681+236875576+236931026+237008020+237047413+237044475+236938820
2656+236804569+236831116+236885275+236800131+236777635+236862294+236868459
2642+236809055+236697461+236439174+236148675+236069115+236157567+236217842
2629+236254330+236298112+236209612+235887176+235591319+235585929+235592884
2615+235367195+235134422+235045485+234979191+234866596+234764734+234660499
2602+234538319+234474784+234446106+234403180+234398532+234400452+234310983
2588+234128980+233943394+233834931+233760228+233622991+233448976+233341255
2575+233328974+233314821+233163431+232897284+232739665+232798036+232832700
2561+232551787+231991317+231472563+231242032+231280457+231423810+231436107
2548+231192473+230869359+230641217+230508837+230479983+230508966+230481516
2534+230390740+230338727+230391256+230438137+230279114+229921400+229629756
2521+229593736+229674167+229645280+229489259+229262779+229014239+228862381
2507+228915862+229162724+229383878+229379585+229263489+229153154+229040463
2494+229067478+229317874+229544902+229524197+229475445+229703135+230048616
2480+230207946+230170231+230061155+230001380+230084490+230241012+230253471
2467+230086927+230011498+230161291+230325736+230298883+230106938+229953821
2453+229959518+230075695+230319378+230649157+230885174+231012050+231144995
2440+231342620+231585964+231753589+231782088+231816075+231936867+232058563
2426+232201239+232374205+232518317+232727013+232972794+233099250+233187315
2413+233300829+233371078+233480477+233702632+233916718+234028989+234130142
2399+234343647+234638148+234876570+234996781+235060817+235165503+235322542
2386+235278114+234562751+232891717+230368825+227347416+224205166+221074019
2372+217755027+214240346+211104277+208586743+206220308+204151102+203396653
2359+204608870+207465366+211291073+216060301+220927777+223325584+221917888
2345+218413777+216016842+215408329+215658725+216561997+217812542+218816451
2332+219617554+220944690+222731595+224194015+225280905+226591370+228494129
2318+230724505+232599910+233888718+235065642+236392874+237705421+238955788
2305+240167699+241285025+242208792+242861830+243315355+243734166+244201279
2291+244707768+245234865+245737869+246183276+246539827+246737614+246841316
2278+247024014+247276669+247437193+247493628+247523386+247543494+247695319
2264+248061360+248453851+248725936+248868418+248964423+249143118+249359141
2251+249517567+249602936+249583506+249597869+249797786+250031770+250187097
2237+250319961+250376993+250369553+250524025+250841152+251082172+251216133
2224+251266290+251214455+251220635+251394990+251601410+251699448+251701401
2210+251712326+251859682+252140207+252402901+252524290+252522983+252544059
2197+252665771+252870449+253123572+253330703+253439101+253481028+253499651
2183+253593283+253816632+254000927+254031702+254054473+254155771+254301061
2170+254467556+254621092+254742401+254857674+254992975+255122014+255250714
2156+255384045+255473821+255547103+255618949+255704658+255873170+256031741
2143+256111221+256234595+256437078+256698642+256936031+257001615+257019883
2129+257115775+257206147+257307171+257441003+257593603+257750593+257853004
2116+257950026+258074110+258143326+258183703+258279982+258397547+258462841
2102+258477236+258468295+258438004+258446170+258571288+258774690+258997571
2089+259167068+259179123+259137132+259233798+259416415+259527428+259561156
2075+259573615+259614153+259761590+259961781+260066903+260084736+260091175
2062+260103262+260164231+260286524+260388258+260422680+260445241+260544941
2048+260707402+260799840+260767967+260723023+260752362+260800614+260888711
2035+261071893+261212632+261243956+261234725+261187521+261209856+261421602
2021+261668609+261840656+262046043+262269796+262409518+262463064+262502521
2008+262608483+262721674+262827749+263055149+263362818+263615151+263772318
1994+263896581+264138214+264462974+264711788+264924858+265143785+265311845
1981+265463397+265690409+265947745+266103185+266219540+266432964+266676001
1967+266873691+267048578+267200290+267371417+267575481+267789018+268028618
1954+268230924+268394578+268599692+268879443+269222826+269512776+269746034
1940+270021573+270367812+270762772+271041700+271157409+271328439+271666755
1927+271949330+272102737+272366528+272619409+272805577+273282227+273930229
1913+274393291+274678933+274957828+275356887+275793096+276115112+276396332
1900+276765245+277166208+277585988+277990663+278214012+278478481+279097951
1886+279751796+280154857+280459283+280839170+281309333+281769232+282132916
1873+282306141+282388896+282857284+283817297+284765272+285503453+286054080
1859+286479831+287012382+287682139+288249258+288666327+289054186+289318235
1846+289554398+290405351+291599397+292319214+292840469+293579780+294275164
1832+294589498+294970128+295879823+296902516+297943671+299032111+299950521
1819+300729854+301431693+302006913+302454257+303044970+303954956+304927557
1805+305747590+306410891+307029136+307797947+308660036+309190877+309577768
1792+310772427+312440412+313543278+314310960+315135221+315971908+316919496
1778+317861790+318292221+318262785+318788075+320495759+322456680+323839636
1765+324437999+324952315+326069512+327223019+328211468+329174386+329910469
1751+330704682+331818458+332986780+334117145+335145067+335957386+336839518
1738+337551330+337787880+338935804+341201957+342950954+344418022+345733780
1724+346759185+347366455+347431556+347758091+349526615+352031545+354098976
1711+355539319+356288087+356828546+357728946+358290998+358650261+360256922
1697+362675192+365523311+367972049+369323569+370385284+370934071+371133439
1684+373336783+376796854+378976121+380109456+381196281+382868881+384377004
1670+386138814+389054875+391511811+393081225+395094981+397603462+399431245
1657+399890175+399586427+402242731+406649388+408564865+410787898+414918176
1643+418427564+420741550+422201130+423315067+426258110+430797518+433992926
1630+436226287+438761008+441796199+445410419+449748102+453385432+456218253
1616+460485026+465942037+470785709+475281899+479850194+484570121+489404401
1603+494584194+500243413+505951659+511372650+516859936+522741987+528754337
1589+534657045+540482517+546725187+553849376+561243520+567576562+573383250
1576+581059549+588811116+594460362+600619954+608748116+616590443+623369860
1562+628785171+634046654+644643533+656749115+666042178+675288569+684918592
1549+694353346+702324002+708652396+713925951+720438770+732370772+744493009
1535+753378750+761194417+769143448+776999201+784695770+791213043+796607955
1522+803419003+811510823+819357474+827940274+836657600+843988935+849905102
1508+855125854+862085048+870721813+878315809+884795255+889190454+893395936
1495+899778618+904378317+906109595+909170639+915709795+922359787+927088589
1481+930834398+934283655+937003414+939420296+941708397+942664215+944460819
1468+947740887+949560665+949267213+948621308+946469927+941343809+938609591
1454+941499637+945076255+946193646+943094388+938732239+936079033+933135667
1441+929509860+926867241+922892080+916244283+912560186+912278612+911470876
1427+908959103+906275558+905699627+908545907+913364307+918444013+923975129
1414+929053802+933163360+937801015+941445155+942010112+942763753+946696633
1400+951496959+954445812+956671427+960340225+964189897+966788492+968526290
1387+968768875+967628569+966926956+968147823+971308212+974428256+976361064
1373+977983378+980836888+983559487+983326326+981573165+980230683+979274220
1360+979319212+979811161+979906052+979592137+979123298+979276995+979733893
1346+978691446+976122352+973173305+969690222+966083071+962410012+958121259
1333+955909781+956660905+956475125+955982789+958697770+962061949+963595117
1319+964811789+965059151+964087712+964313385+965927114+969165158+974953578
1306+979951174+981225554+981316056+982782284+985089234+988411454+994802335
1292+1002349402+1004913397+1003045399+1004040206+1008716270+1013083131
1281+1017600462+1022591990+1026017234+1028221547+1029326609+1028857059
1269+1029425566+1032837513+1036639676+1039522556+1042963294+1045798535
1258+1046016397+1045321562+1045597844+1046024660+1047127204+1050268162
1246+1052521599+1051417313+1050689750+1053925471+1058057169+1058507482
1234+1056446926+1055302295+1056480364+1059954733+1063638184+1064261754
1223+1062074935+1059567228+1057335997+1056398190+1056094151+1054040050
1211+1051722061+1050653149+1050700530+1052566527+1055603364+1058023925
1200+1057875004+1054798404+1053167956+1056235067+1058826691+1055471227
1188+1049859292+1046187459+1044381431+1045642514+1048872747+1049284588
1177+1047189496+1045525933+1043271076+1039450517+1035818190+1033499750
1165+1032442457+1033440233+1035941226+1037317921+1035630409+1032139774
1153+1030733837+1030772826+1027520709+1023477898+1024455469+1026719557
1142+1025489201+1024215402+1023339370+1020322738+1017567347+1017964146
1130+1019466717+1018229970+1015932574+1015087914+1014144426+1012665416
1119+1010324835+1006897460+1005610879+1007238035+1006844527+1002978072
1107+1000327448+1000586688+1001118142+1000764205+999514677+997353614+998118229
1094+1002901707+1005167215+1004234119+1005997738+1011777507+1019001493
1082+1024720971+1027860639+1028486145+1027228096+1027202921+1028228713
1070+1025373653+1019671604+1019802451+1028272285+1034801952+1032491322
1059+1029037288+1029870715+1031473019+1033145877+1038394321+1042902228
1047+1037597494+1026861248+1021693881+1023733458+1028245367+1028600143
1036+1023503396+1020021798+1020119077+1020711017+1020922294+1019543986
1024+1019459939+1023476736+1027312852+1028289649+1026700579+1021723575
1013+1014957778+1011133539+1012313480+1013465793+1011722767+1012633463
1001+1018208604+1022593604+1022342304+1020721280+1020414208+1021071280
989+1024761832+1032089294+1037353166+1037421720+1035248844+1032866755
978+1030958864+1032719255+1038922935+1043122543+1042074803+1039857193
966+1038722244+1038414719+1040296080+1046968729+1055156795+1056245783
955+1050722155+1046710587+1047479527+1050376093+1051630527+1051368834
943+1051669839+1051238633+1049716826+1050453426+1052935763+1053750471
932+1055278733+1058557123+1057116263+1051740136+1050643466+1052722484
920+1051468050+1046176938+1041389135+1041065408+1044838586+1050626296
908+1054003643+1050414308+1044120706+1042473346+1047289422+1055218571
897+1063173541+1070523079+1073541971+1070370027+1064147110+1057748418
885+1053794560+1054807377+1064461542+1073741823+1064570376+1048113813
874+1041446779+1039724603+1039310891+1039292300+1034779359+1027683767
862+1023186770+1021909355+1021712472+1023449366+1027448411+1028615119
851+1027759809+1029225908+1028549728+1025093499+1025567696+1027581840
839+1025516958+1022194222+1020801970+1020922036+1021553998+1021519463
827+1018915897+1012942214+1008312950+1008752354+1010766820+1011223976
816+1012533731+1016556273+1019140473+1017640936+1016735468+1018187108
804+1019199989+1020012308+1020572488+1017350001+1011140317+1009190467
793+1012203549+1009809518+1000157612+993398593+991752136+990944271+990741772
779+990658307+988529778+986315266+985489068+983917685+980719662+976124159
766+973182988+973390264+974991921+976596355+978361587+996680339+1029367018
752+1021560388+980974771+961402101+960669052+959203856+953411499+948402800
739+946810825+944816047+940785888+936264942+931584941+926973558+924282460
725+926017869+928639380+927048115+923201477+918289283+913552799+913755426
712+918271983+922185368+924084093+925648052+925915103+921535654+915163042
698+912633323+915078544+920057742+925364606+929301616+931078920+931366498
685+930167707+927514824+923339876+918412447+915232564+915496387+919522479
671+922182205+920988062+925622232+933005015+933892149+930407904+922929585
658+915174080+914285332+918381527+923438704+932226069+939744798+934141835
644+923050555+922134824+927986568+929936935+928590127+927085039+923011114
631+912701232+896894447+880248618+868647959+866217844+870173898+884765238
617+918481647+945123249+939717105+931060329+926793652+914132280+901063263
604+893098804+886965226+884171621
##END=
