##TITLE=Sample description
##JCAMP-DX=4.24
##DATA TYPE=INFRARED SPECTRUM
##DATE=12/9/2023
##SAMPLING PROCEDURE=Instrument type and / or accessory
##ORIGIN=Default
##XUNITS=1/CM
##YUNITS=ABSORBANCE
##RESOLUTION=4
##FIRSTX=4397.6552
##LASTX=599.8556
##DELTAX=-1.9287962
##MAXY=1.8152083
##MINY=0.17768343
##XFACTOR=1
##YFACTOR=1.6905445e-009
##NPOINTS=1970
##FIRSTY=0.20474124
##XYDATA=(X++(Y..Y))
4398+121109643+120778151+120011147+119786300+120226536+120433278+119751765
4384+118925705+118681774+118779130+118793347+118449268+118465733+119707711
4371+121220758+121714198+121355839+120971301+120964682+120991266+120742646
4357+120045082+118953364+118847433+120217616+121388902+121640483+121393811
4344+120831663+120593656+121073919+121432842+121179251+121229229+121668213
4330+121282080+120294574+119909102+120073059+120021239+119518183+119229529
4317+119893131+120865052+120746807+119777706+119777098+120816520+121101640
4303+120620664+120716723+121453943+122089533+122318972+122399589+122498020
4290+122341502+121771800+121309184+121671677+122382181+122208907+121361436
4276+121093619+121436015+121794823+122161185+122116109+121425006+120897648
4263+121141657+122166624+123528821+124327628+124194301+123622633+122928727
4249+122581043+123207844+124070943+124405521+124260286+123358113+122127435
4236+121618746+122101521+122556591+122026713+121656948+122447583+123252824
4222+122946594+122014919+121962676+123328681+124606895+124477605+124214962
4209+124967105+125180264+124043795+122895127+122724594+123433758+123860014
4195+123151749+122616080+123444679+124384498+124343599+123812707+123200052
4182+122872077+123018493+123298078+123615643+123947347+124124332+124087470
4168+123988581+124093455+124250546+124051437+123792029+124045302+124475542
4155+124711399+124941005+125017497+124795735+124435596+124126518+124048405
4141+124118753+124092706+123583339+122563493+122104606+123132137+124554546
4128+124493938+123513934+123336306+123626943+123696348+124043495+124497561
4114+124287831+123906889+123909921+123703832+123517178+123904809+124185160
4101+124002006+123916092+124322233+124875118+124952411+124580311+124389267
4087+124731857+125191705+125229122+124850719+124633514+124929652+125201630
4074+125016501+124575956+124401422+124708093+124873998+124604859+124307205
4060+124267804+124457367+124804673+125312506+125434665+124820424+124088889
4047+123878639+124298734+124755568+124804399+124476635+123861874+123602466
4033+123834752+123963028+123884545+123733404+123958313+124537190+124463061
4020+123851861+123862473+124559597+125137496+125181507+124875144+124701773
4006+124718318+124373445+123817714+123681478+123520994+122933892+122651919
3993+123082768+123892857+124737480+125402678+125784448+125813007+125724307
3979+125585991+125227553+125211925+125572858+125461717+124964787+124796458
3966+124825730+124497561+124471735+125076615+125257372+124904998+124465027
3952+123767930+123085703+123304257+123620297+122945854+123030578+124277474
3939+124794166+124302903+123053962+121959626+122696106+124057563+123671818
3925+122720152+122862319+122283010+120830491+121363798+123970820+125595529
3912+125270515+123763840+120345125+115653141+113438863+114533173+117489669
3898+121763955+123714171+121042134+118437783+119833431+119877088+117960570
3885+118587222+118721386+118707098+121407491+121161507+117558069+114970438
3871+114494319+117180397+118801351+117254544+118275051+121940746+122385336
3858+116913373+107255181+105104261+115965762+123823716+124909582+122054778
3844+117998120+114109305+110870316+111286912+115468735+118504754+119867445
3831+121180238+121934981+121824202+119244830+113643992+112324721+115539118
3817+117282530+121350392+125767004+125145473+120427090+116887239+116355765
3804+114072946+113841946+118513304+121274914+123392965+126192899+126962415
3790+126371188+125474039+124487442+124376918+123872346+122708693+123982896
3777+126552686+126676960+123762280+120951857+121733651+124177192+126184190
3763+126062208+122653321+120569760+121742501+120256029+114087075+110183990
3750+113756702+115100812+112938918+117283905+123503612+122729583+117185448
3736+113645165+117095726+124346878+129052489+129502906+128797717+129742720
3723+132306533+136407687+140828319+143069463+141527364+138743357+142227801
3709+151934782+161292359+168054708+174229329+182918915+191196956+195176206
3696+195087356+190806107+182889316+177437618+179024636+180802962+178203979
3682+172541492+165219816+156399583+150277337+151912393+152745620+151473400
3669+155727061+161147697+163053268+163364787+162756345+160388000+158702631
3655+158986173+155757946+148560853+147278920+155351179+162630493+165285801
3642+165705614+165933801+165536747+164172663+162041355+157926804+153816889
3628+157411619+164073783+165433054+161946583+158162008+159007293+161324814
3615+161048711+160569454+160898002+161691441+164151579+166028821+165087564
3601+163454341+163115057+163265924+163919601+165175092+164503116+161259252
3588+160597061+164721731+168106766+168737032+168431225+168199053+168168890
3574+168487302+168044395+165075365+161591150+162685901+166683150+168858583
3561+169367280+169616764+169438219+168527936+167965753+168403212+168348422
3547+167800113+168783378+170874669+171940667+171528910+170762179+170578839
3534+170714141+170429082+169531898+168411621+167668690+168038595+169389546
3520+170352009+170553225+170731135+170677102+170013677+169611316+169834779
3507+169472842+168443212+168290741+169065492+169508628+169521268+169671325
3493+169843911+169593864+169101508+168828296+168617720+168308546+168316655
3480+168627910+168730069+168593040+168705371+169298405+169850504+169980323
3466+169797794+169299762+168816344+168900698+169470480+169967172+170080084
3453+169954620+169535724+168941650+168969768+169528672+169921513+170415967
3439+171165862+171682792+171713360+171635776+172006528+172550836+172688464
3426+172542991+172519915+172848269+173489412+174048440+174286658+174567274
3412+175029767+175172066+174975311+175068321+175640200+176390959+176906585
3399+176987043+177207773+177790900+178130396+178291135+178658062+179145499
3385+179648996+180273568+181175512+182152484+182803411+183083656+183288803
3372+183549657+183812150+184292747+185183691+186276061+187250795+188021175
3358+188634623+189093836+189544588+190227529+191126740+191798063+192020892
3345+192268577+192757424+193255139+193835216+194842228+196152120+196915801
3331+196893994+196893254+197312273+197800433+198245385+198875863+199380153
3318+199362736+199255852+199432898+199634184+199721500+199978105+200573237
3304+201219281+201518936+201595621+202088664+203157800+204363982+205555585
3291+206826800+208134313+209206128+209865235+210638259+211776676+212743794
3277+213709043+214832775+215359983+215281323+215216978+215369925+215743956
3264+216015687+215786636+215389987+215306656+215299886+215360053+215746830
3250+215948821+215631449+215261120+215069107+214841625+214598999+214396461
3237+214173474+214230098+214476919+214354822+214067948+214055326+214106150
3223+214099733+214245506+214306942+213970232+213485351+213033700+212458894
3210+211781119+211287317+211104172+210950818+210442738+209648048+208978276
3196+208673755+208743742+208779511+208352241+207724143+207136821+206389887
3183+205390791+204191096+202889595+201820917+201438407+201645440+201691716
3169+201325248+201043715+200900692+200640174+200373802+200057206+199686242
3156+199633744+199776326+199569504+199054548+198652047+198506063+198559196
3142+198592268+198518985+198480342+198099489+197168264+196442203+196235099
3129+196001023+195431859+194646689+193844577+193167612+192727773+192230569
3115+191100649+189761651+189039945+188541719+187601115+186366691+185162660
3102+184100170+183073643+181894275+180775002+180115949+179749463+179220809
3088+178595797+178223264+178087240+177975421+177832997+177632276+177311237
3075+176950357+176618248+176135464+175575467+175406107+175644960+175878330
3061+175881327+175727639+175727339+175958189+176103733+175983856+175812557
3047+175909956+176184614+176249012+176033623+175730372+175401682+174951847
3034+174236663+173454913+173163067+173348205+173340942+172814140+172117131
3020+171658182+171448857+171383384+171315019+171029679+170557297+170006449
3007+169473318+169156528+168966859+168667486+168347329+168093597+167958120
2993+168165400+168649946+169140574+169667182+170306703+170899138+171244063
2980+171260987+171082019+171007784+171086990+171009864+170663211+170320313
2966+170154461+170093853+170020711+169763876+169327051+168954096+168818548
2953+168906903+168966295+168829160+168713938+168744859+168713815+168578232
2939+168505865+168488219+168429197+168231437+167932382+167801858+167777724
2926+167535169+167110949+166648315+166078058+165414967+164865565+164562067
2912+164476955+164554169+164666165+164697103+164831153+165121042+165136079
2899+164762524+164442931+164437766+164708121+165166718+165602555+165809447
2885+165844493+165922589+166154496+166430846+166595834+166675217+166797085
2872+166959217+167097251+167228974+167264707+167081579+166746525+166514248
2858+166645301+166897287+166688209+165960932+165240900+164816239+164510185
2845+164350485+164487867+164774318+165096820+165391961+165467765+165462406
2831+165762326+166253694+166550563+166595323+166545081+166489885+166446941
2818+166502684+166560400+166415333+166290027+166478973+166842514+167101676
2804+167245351+167447413+167710294+167921558+168116779+168337968+168571286
2791+168818706+168864488+168614476+168445293+168507734+168580964+168621581
2777+168705247+168779288+168731743+168575605+168412908+168272636+168215166
2764+168348863+168602348+168825670+168931549+168924162+168979217+169158590
2750+169330242+169400757+169370471+169341348+169347060+169396386+169498368
2737+169503058+169462564+169671818+170076100+170294046+170295738+170425997
2723+170727010+170888455+170843096+170825502+170840751+170832078+170986206
2710+171247448+171464071+171713396+171901460+171913307+171905268+171965999
2696+172065479+172244834+172407760+172378091+172291991+172396619+172682752
2683+172963844+173088656+173124636+173192754+173206540+173157620+173159524
2669+173120035+172968533+172809733+172680742+172579218+172515807+172443229
2656+172364058+172316584+172237148+172137827+172128220+172133455+172008590
2642+171821531+171701937+171606812+171514137+171472603+171370039+171138467
2629+170913346+170786331+170714811+170603167+170386615+170112804+169900306
2615+169773519+169645833+169488919+169399929+169397602+169322785+169123597
2602+168921500+168814793+168802030+168754167+168597376+168407602+168309674
2588+168350626+168346888+168184985+168014832+167941390+167926617+167820421
2575+167589254+167450498+167464865+167470489+167385588+167178714+166847415
2561+166471040+166064290+165665931+165424046+165337929+165318114+165294897
2548+165213364+165143783+165086189+164951770+164785847+164663961+164558400
2534+164433641+164350485+164312337+164216189+164014480+163775962+163663772
2521+163694376+163688875+163601031+163542997+163518757+163450093+163389802
2507+163343844+163220160+163128437+163194810+163322072+163422468+163551688
2494+163706487+163761418+163759250+163878650+164098164+164314575+164549568
2480+164805997+164994837+165039737+164963739+164855992+164747222+164628034
2467+164564711+164667505+164920690+165160830+165263042+165228084+165154572
2453+165151821+165276739+165538369+165836137+166036560+166156524+166334928
2440+166645336+167007203+167241896+167286990+167343596+167507016+167592163
2426+167527359+167453494+167516888+167740122+168012328+168214161+168354786
2413+168540382+168830377+169138775+169305244+169339691+169388858+169556649
2399+169867322+170171243+170295526+170309524+170433155+170684295+170751884
2386+170301767+169110199+166906578+163544848+159333726+154796206+150181683
2372+145448659+140582062+135882965+131778356+128563122+126531364+125966201
2359+127115222+130255366+135349155+142154139+149009595+152319073+150325481
2345+145391692+141906710+141075660+141677041+142987322+144402547+145377324
2332+146188612+147696882+149886947+151861252+153303167+154956275+157453276
2318+160393077+162888156+164658514+166245972+168035087+169834127+171421903
2305+172812941+174137536+175425675+176470536+177142141+177710265+178409337
2291+179094640+179636550+180140523+180678555+181093256+181247349+181238658
2278+181211810+181265331+181413289+181558533+181660516+181741380+181856566
2264+182089549+182386665+182659771+182926037+183138623+183248750+183364202
2251+183570917+183750485+183782393+183828228+184009276+184139905+184185194
2237+184311822+184462566+184509212+184552667+184683702+184841586+185029456
2224+185218191+185304466+185362729+185449428+185432275+185333289+185380129
2210+185639643+185937235+186131752+186203008+186160205+186130800+186263474
2197+186491750+186675196+186782167+186854023+186927623+187022237+187170777
2183+187363284+187526298+187599105+187597095+187592283+187664631+187861034
2170+188110094+188276916+188310005+188306568+188373416+188468348+188586760
2156+188750162+188895829+189062686+189263002+189401300+189508590+189623106
2143+189672802+189685724+189752079+189867742+190032042+190230032+190371415
2129+190438087+190498043+190576650+190671652+190792515+190897495+190959513
2116+191051906+191200446+191313606+191334549+191359106+191480903+191571586
2102+191528571+191485363+191514997+191563759+191625865+191705248+191773806
2089+191801642+191801924+191822003+191875877+191952862+192064153+192194677
2075+192288268+192394094+192554587+192590709+192401921+192243139+192364760
2062+192621629+192771210+192808125+192821470+192853942+192895740+192957794
2048+193028503+193007613+192877371+192803577+192941223+193156418+193252248
2035+193287382+193365249+193468007+193555922+193626773+193660303+193691946
2021+193734397+193674811+193698346+194037419+194384971+194508637+194613264
2008+194826732+195064122+195220912+195255430+195270943+195429814+195517623
1994+195126686+194696860+194993201+195767688+196484794+196921107+197060287
1981+197204032+197468923+197684612+197800116+197895999+197869521+197536406
1967+197371595+197932896+198728186+199211533+199524110+199759614+199918291
1954+200138246+200439064+200657873+200598746+200079824+199314521+199434926
1940+200794003+202046425+202561716+202743399+202919264+203231841+203569468
1927+203504876+202879952+202492241+202606723+202667648+203372748+204856937
1913+205692403+205601526+205601455+206287552+207198222+207820767+208200544
1900+208388697+208287384+208207420+208493959+208459671+208100765+208802340
1886+210277750+211328075+211950496+212442182+212915551+213378132+213704671
1873+213093232+210906429+209273065+210922577+214005912+215911994+216752132
1859+217361631+217985621+218536980+219009574+219349581+219155646+217952531
1846+216230847+216697359+219883206+222287584+223078255+223714956+224149048
1832+222984364+221318810+221861125+223635414+225587825+228069506+229980577
1819+230920282+231593844+231958902+231583337+231417855+232668022+234409327
1805+235147199+234578564+233847725+234567087+236038337+235918778+234295938
1792+235026089+239183479+242414403+243392997+243698504+243917684+244505147
1778+245592352+245266413+242603860+240739805+243250944+247794352+251387901
1765+252601522+251977761+252450602+254006205+255246446+256289914+255588886
1751+253076355+252468636+255024957+257896377+259381271+259820458+260777668
1738+261571177+259650745+258390954+262563715+267787067+271822395+274303988
1724+275189801+274833787+271751174+266770007+266642357+272906392+279097373
1711+282285864+282049144+279953517+279017673+277983548+275083729+274846638
1697+278685669+285257080+292374703+295611039+295767107+293674776+288800175
1684+288367070+296381084+303161379+305286851+304977148+305669891+306360906
1670+306984120+311992612+317922034+319902457+321373406+325576507+328693002
1657+326713955+319914444+318916829+327480386+330850877+332310615+340197436
1643+348843743+352771235+352059630+348410955+349358752+358573659+365996560
1630+368789707+370370626+372227752+374730835+379592937+383691393+384762697
1616+388641886+397114796+403915223+408318235+412829241+418398753+424044527
1603+429364203+434935125+440797592+446522908+452394930+458821450+465467660
1589+472171270+479152428+486655399+494780315+502869833+508650856+511981259
1576+518864471+529206848+535769603+541091395+550461471+560912229+569103818
1562+572629725+570915815+577228876+596289414+613267670+627188805+639311517
1549+650399699+658800190+663285105+665537012+670597051+686584426+704027025
1535+714870872+725231194+738258830+748093743+753737507+758431148+763213427
1522+770934290+783010110+795231967+807608252+819341226+826740046+828329038
1508+826842011+836398812+858526450+873209714+878195147+879930529+886058523
1495+896254756+902860632+903795806+904576551+911784839+921547192+927897379
1481+931887770+935765408+937407851+936338134+936592341+940881718+947171544
1468+951556891+952664828+953339096+954723453+952544670+945746499+944843974
1454+951129146+954954954+954922588+951851646+949205981+947918301+944750894
1441+940201809+935387234+930261546+927495794+925551687+920625416+915065353
1427+911803808+910065887+910290972+912566431+917066719+924869380+932966796
1414+938669441+942122153+943793507+944185784+945109323+948968415+954529394
1400+958646643+962121991+965890964+968900770+971315426+972372592+972298692
1387+973315240+975628637+977168409+977716877+977928141+976109128+974355200
1373+977800720+984234397+989268980+991898002+991196093+987943009+985445568
1360+985592099+987505250+989743759+991222466+991081364+988682715+985159347
1346+982374979+980839930+979230418+975515248+971667579+970651665+969531247
1333+966604791+964884146+964770053+964145005+963112519+963327591+965832013
1319+969543446+972266960+973744890+975093496+976772677+979384283+983470505
1306+987846121+991237626+992964829+992818791+993312328+995567479+997103726
1292+998228304+1001133324+1005917929+1012116508+1018399776+1023434358
1281+1028020746+1032767767+1036851661+1039984305+1042234519+1043972792
1269+1045779042+1046239296+1044420706+1042788840+1043782754+1047660250
1258+1052579681+1055753435+1056470294+1056104037+1055773320+1055723325
1246+1056314666+1058183675+1060578798+1062655616+1065344012+1068895093
1234+1071564098+1071996287+1071513891+1072127586+1073411529+1073741823
1223+1072302464+1069758906+1067710013+1066424166+1065302197+1065575232
1211+1068155035+1070420199+1069767932+1067301094+1065353391+1064502271
1200+1063939347+1062715906+1060290250+1058193900+1058919432+1060259716
1188+1057693805+1053707503+1052941213+1053668438+1052572277+1049793268
1177+1047342649+1045687725+1043535597+1041079690+1039880436+1039958073
1165+1039865980+1039719731+1039790811+1038229460+1034754747+1031872222
1153+1030927599+1030379201+1029142715+1028034355+1027000459+1025478809
1142+1023844687+1022870730+1022073906+1019080390+1014107367+1010978109
1130+1010819097+1011315525+1010819590+1010165138+1010489156+1009580002
1119+1006235037+1003110221+1001536389+1001069648+1001232539+1000954920
1107+998302204+994206603+993078852+996324108+1001061186+1003477323+1002257267
1094+1000536764+1003072495+1009576264+1013343263+1011264260+1008444352
1082+1010288257+1015446947+1019007830+1020508819+1022112478+1024580515
1070+1028057696+1030367778+1028897181+1026533718+1027367210+1030651531
1059+1035415264+1041529719+1045974722+1045063453+1040116662+1036746100
1047+1036033261+1033964059+1031757141+1033758436+1037252400+1038208376
1036+1036879586+1033003076+1029586468+1030830570+1031837740+1027853695
1024+1025759178+1028718706+1031030269+1032777780+1033751667+1029258431
1013+1023993404+1024543353+1027013716+1027010473+1027576076+1029332824
1001+1029118105+1027898825+1028036118+1029308426+1030635877+1032310263
989+1035508415+1038574210+1038240602+1035643170+1035212110+1038316335
978+1041677871+1042057103+1040715408+1040255859+1042422795+1048365756
966+1053966576+1053686560+1051116629+1052464530+1055610923+1056391034
955+1054918392+1052038970+1051140534+1053791205+1055210114+1053977647
943+1053499412+1055123451+1057283335+1057832226+1056901988+1056349924
932+1056844800+1056732893+1055802302+1056911437+1060076941+1061236706
920+1059714986+1058948696+1058330770+1055007947+1050928917+1048224302
908+1046058565+1044989976+1045262095+1045864366+1048070015+1052595759
897+1056448011+1055462277+1051682374+1051908446+1055412493+1057038224
885+1055553171+1051689707+1047565125+1045528078+1044959372+1042214634
874+1037924552+1036712394+1036830930+1033694549+1029124804+1028223830
862+1030813505+1032044702+1030258549+1026777349+1023033338+1019861277
851+1016712344+1013716007+1012004671+1012788590+1015978914+1018518806
839+1017000399+1013293268+1013901956+1019014740+1021204452+1018562807
827+1015679577+1015048747+1015633248+1015715751+1014251148+1010278103
816+1005692139+1003925307+1004702527+1005658785+1007347134+1012482765
804+1018801854+1019332341+1012116226+1003098656+998638915+997500727+995166881
791+992991131+993522957+994014872+990283272+983458729+978999269+977579655
777+976655269+977718922+980371638+980560267+977028013+971424302+967363324
764+966997984+967123149+964186115+959925650+956945320+955591214+955553065
750+953732501+947126766+938906020+934903570+936238002+938186834+936542346
737+932310721+927720526+922427294+916940003+911800987+906594136+903822954
723+902684414+899546834+897077811+897175263+896262090+893072964+890992127
710+892738439+896240371+897167859+896417012+898681964+902444944+903855532
696+903813435+903290563+902027423+899958503+898351036+899385989+901393208
683+901822505+902440713+904841336+907804179+909338663+906900877+899120005
669+890621640+894943594+907144226+910339980+907052485+904757846+904295266
656+905024606+907661597+909717471+908167615+905044632+902786167+901600875
642+900033743+896764018+898147881+905514123+906527569+901185258+904652496
629+917495805+922003215+910252682+894885842+887921255+887076341+883689913
615+883552055+890023881+889042026+882922988+884715065+889377326+889977623
602+891981316+898567729
##END=
