##TITLE=Sample description
##JCAMP-DX=4.24
##DATA TYPE=INFRARED SPECTRUM
##DATE=12/9/2023
##SAMPLING PROCEDURE=Instrument type and / or accessory
##ORIGIN=Default
##XUNITS=1/CM
##YUNITS=ABSORBANCE
##RESOLUTION=4
##FIRSTX=4397.6552
##LASTX=599.8556
##DELTAX=-1.9287962
##MAXY=1.9212124
##MINY=0.27992591
##XFACTOR=1
##YFACTOR=1.7892685e-009
##NPOINTS=1970
##FIRSTY=0.29810116
##XYDATA=(X++(Y..Y))
4398+166605043+166968913+166736460+166659825+166882584+166884583+166191404
4384+164923171+164091147+164528188+165869241+167121367+167951059+168581911
4371+168706099+168350291+168246523+168314680+168090271+167957039+168334317
4357+168350857+167275786+166427188+166953190+167970097+168120469+167444912
4344+167398908+168337632+168760398+167865030+166706629+166609523+167182178
4330+167236627+166923358+166696652+166348988+166064467+166026025+166183875
4317+166708761+167298555+167392129+166950175+166765008+167607360+168758616
4303+169226704+168995500+168351223+167721604+167662691+168204816+168719757
4290+169206283+169704685+169266745+168227035+167862082+168141872+168502228
4276+168440467+168019100+167968332+168193590+168374992+168954043+169896731
4263+170487974+170525151+170480595+170268929+169299141+168271340+167988602
4249+167880054+167925625+168213927+168279302+168725237+169695341+170179585
4236+170165611+170043072+169519519+168973980+169369564+170297361+170632932
4222+170378260+170249658+170637646+171232237+171233270+170461507+170262183
4209+171222560+171581950+170680253+170009043+170227189+170921217+171729390
4195+171924567+171339819+171186966+171604769+171332507+170373147+170125236
4182+170993222+171501401+170951781+170215330+169622521+169150219+169038023
4168+169510874+170455428+171126421+171174007+171162048+171318716+171142427
4155+170399980+169491387+169139059+169688046+170438505+170775193+171050935
4141+171531732+171789652+171305175+170592775+170562943+170748026+170491039
4128+170288583+170441986+170450215+170184716+170168726+170396149+170650538
4114+171180970+171630486+171310621+170442153+169917318+170267363+170823229
4101+170794597+170661997+170717029+170496169+170396515+170576818+170268546
4087+169747975+169776523+170340817+171118792+171653388+171733954+171722345
4074+171807974+171515525+170885240+170742380+171008895+171125055+171219262
4060+171304908+171130285+170974650+171241315+171535179+171186699+170314400
4047+169708483+169947499+170852427+171653805+171700792+171346215+171144160
4033+170830141+170509744+170859823+171621208+171783289+171379295+171211917
4020+171384824+171461409+171038393+170524368+170467171+170427945+170510510
4006+171205121+171671477+171310888+170970952+171008212+170944436+170939506
3993+171313619+171790035+172104054+172256940+172163000+171824880+171449533
3979+171028616+170406925+169672772+169451662+170160081+171069740+171389055
3966+171216281+171043007+171084597+170962658+170531347+170220893+170170091
3952+170082480+169961190+170296295+170652603+170361054+170458176+171439756
3939+172206689+171945187+170437406+169065705+169638944+170536277+169508376
3925+168130330+168205132+168098983+167509438+168760848+171656086+173293569
3912+172910211+171700308+169406857+165759726+163257273+163917340+166972028
3898+170342249+170968121+168212744+166277283+168133861+168899544+167441298
3885+167522297+167532357+167632211+169430092+169056778+166971078+165523442
3871+164572959+165855999+166586904+165019644+166040699+169304988+169544536
3858+165150128+157901206+156447124+165001672+171420069+172402332+169809436
3844+166273752+163454082+161475665+162382326+165786126+167699002+168443915
3831+169317480+169349160+168753902+166996196+163344602+163084133+166175897
3817+167693655+170737350+174101409+173592947+169822261+166964099+166569665
3804+164894356+165063100+169025198+170815384+171761686+173604773+174191469
3790+173814757+173197763+172380862+172097674+171482479+170758053+172376398
3777+174627094+174405950+171866420+169752955+170113111+171252441+172529751
3763+172739869+170443169+169007559+169686563+168161710+162996488+159688360
3750+163243782+165422190+164104522+167324239+171998770+171257288+166722568
3736+163394453+165493345+171458744+175936667+176398675+175279981+175851137
3723+177986789+180836223+183816341+185409318+184114403+181721797+184263342
3709+191485198+197744862+201738990+206191195+214263481+223004178+228249416
3696+229741423+227551573+222713445+220731297+224810337+228577409+228283561
3682+224868584+219604641+213047665+209006850+211585622+213110959+212385200
3669+215986426+220840761+223293645+224537660+224774993+223349110+222333568
3655+223115991+221304951+216337138+216805592+225562612+233462690+237331064
3642+239048330+240160261+240666924+240498031+239782200+237332213+234511528
3628+238098779+244600157+246682226+244453300+241741113+243256322+246533720
3615+247443945+247742773+248762146+250245709+252926516+255327850+255596080
3601+254969526+255220950+255800518+256615403+258181015+258631380+257184477
3588+257592420+261231638+264004321+265009919+265568699+265677397+265528675
3574+265933336+266159443+264376635+261760787+262690567+266177981+268195124
3561+268780221+269393934+270176123+270566144+271067827+272038431+272051606
3547+271401266+272075757+273509735+274288510+274572197+274802518+274953873
3534+274668969+273751016+272610070+271948254+272050073+272636520+273218785
3520+273485883+273578175+273606174+273149729+272214086+271791237+272011897
3507+271537913+270482979+270678506+271846718+272004036+271355079+271416507
3493+271787039+270947669+269447700+268944201+268960041+268423230+267943933
3480+267923512+267751937+267374826+267185029+267040886+266704632+266324722
3466+265836980+265137005+264622464+264560319+264767988+264809229+264344739
3453+263754678+263434830+263318404+263267536+262982433+262768284+262833760
3439+262287505+261371866+261249277+261534314+261450317+261268948+261207553
3426+260875080+260097754+259360820+259179001+259491037+259971384+260413855
3412+260570506+260297611+260087277+260317032+260528399+260353759+259802357
3399+259298159+259409789+259710582+259759868+259978646+260447167+260691079
3385+260655469+260857874+261351446+261759688+262039311+262173310+261999636
3372+261575921+261366303+261619243+261852046+261750377+261743781+262144695
3358+262506250+262503135+262621027+263109952+263729777+264240505+264197732
3345+263729844+263520393+263610386+263843272+264312093+264841492+264923690
3331+264529839+264391443+264716854+264882116+264791990+264919160+265054208
3318+264844290+264700248+264681743+264365043+264026473+264164486+264456585
3304+264338843+263772267+263223380+263459348+264418942+265032705+265260461
3291+266215408+267769643+268911955+269761368+270825863+272003819+272948939
3277+273474674+273621114+273781580+274352103+274756114+274769639+275259930
3264+275969332+275742175+274715040+273920192+273677112+273548227+273076792
3250+272490612+272168415+271778795+271509531+271712087+271832644+271704808
3237+271426783+270830210+270277926+270160317+270172809+270007213+269579966
3223+268859738+268125135+267618588+267371794+267336533+267285049+267144937
3210+267006941+266679131+266118269+265666221+265441213+265581924+265991516
3196+265971995+265432852+264798153+264168733+263565514+262993859+262396786
3183+261688766+260981446+260630384+260433459+259746110+258681982+257801104
3169+257275670+257072614+257086389+257182528+257215524+257099614+257124265
3156+257535456+257622167+256699350+255623146+255171165+255020061+255075959
3142+255075159+254569961+254137518+254164567+253888059+253209387+252850297
3129+252530932+251760885+251003947+250409789+249494600+248320058+247375721
3115+246771902+246295903+245684073+244745099+243636616+242715514+242070771
3102+241590541+241007726+240002744+238798971+237903869+237329732+236676428
3088+235880547+235378764+235262537+235268300+235224644+234960927+234513577
3075+233927397+233328275+233109913+233105516+232864918+232488922+232132647
3061+231839499+231883038+232240662+232479611+232566006+232683815+232824177
3047+233121156+233495303+233367667+232596154+231782185+231303037+230980491
3034+230611191+230294841+230248087+230408186+230493782+230256815+229857450
3020+229800736+230007139+230053426+229924808+229619134+229201048+228885797
3007+228557554+228201829+228061201+228014164+227897388+227749931+227578556
2993+227607088+228082271+229004922+230059939+230606261+230550929+230439499
2980+230537038+230793059+231062739+231059791+230616654+230090070+229905120
2966+229731896+229175498+228598745+228282411+228042963+228013731+228287225
2953+228218935+227637369+227429050+227877034+228206426+228076425+227953019
2939+228040997+228033719+227728311+227214386+226809791+226715801+226696896
2926+226654273+226697795+226488711+225817468+225113696+224635098+224336320
2912+224195076+224109713+224101668+224165878+224177404+224245960+224256004
2899+223942702+223727604+223966753+224244711+224370182+224575785+224727756
2885+224676788+224739382+225024302+225268265+225397750+225408326+225352895
2872+225440156+225550820+225477399+225378495+225385208+225433894+225439807
2858+225319766+225064693+224734935+224287434+223776257+223481543+223285983
2845+222958607+222894930+223161762+223209815+223041488+223073218+223406790
2831+223836136+224059212+224095189+224151453+224193144+224210499+224228605
2818+224103017+223826259+223587759+223537275+223739880+223999716+224009643
2804+223932442+224068339+224408341+224915271+225369618+225475367+225382443
2791+225338554+225218097+224819898+224450465+224628436+225036511+225002150
2777+224742780+224669343+224640228+224514408+224288400+224073703+224033778
2764+224096488+224105482+224016339+223959458+224065158+224203054+224299460
2750+224486309+224724158+224839419+224810904+224723725+224653820+224632566
2737+224695993+224850079+225026068+225222877+225369917+225379978+225398516
2723+225479032+225517074+225540826+225649308+225808091+225937159+226092728
2710+226200193+226107402+225994173+226051504+226166548+226261371+226375815
2696+226417139+226379247+226431347+226512313+226496906+226480166+226502419
2683+226530285+226620261+226731308+226686686+226465825+226212802+225998587
2669+225874632+225899749+225910926+225752876+225554651+225380344+225217247
2656+225165130+225123040+224929679+224754606+224732353+224752291+224772361
2642+224780123+224723192+224614245+224439705+224191078+223938871+223679785
2629+223400028+223238647+223205384+223151468+223140575+223226271+223218642
2615+223017819+222767161+222637576+222603881+222510523+222366297+222289396
2602+222139274+221788496+221506407+221467582+221473078+221363514+221230548
2588+221147584+221010054+220786545+220566567+220413531+220301151+220130959
2575+219965030+219909565+219805714+219545712+219271801+219026856+218784576
2561+218629341+218533035+218385561+218196381+217967325+217692882+217501403
2548+217509015+217586199+217471705+217156920+216874032+216705605+216590495
2534+216564145+216619576+216590844+216443854+216314885+216227790+216133450
2521+216049270+216044939+216151139+216230255+216155153+216041108+216000417
2507+215936175+215807622+215691829+215595023+215524418+215530531+215671775
2494+215946468+216163997+216170610+216095724+216134000+216328210+216606052
2480+216839471+216914790+216794033+216579818+216471053+216468955+216415055
2467+216367169+216491690+216709403+216844351+216879912+216840004+216776461
2453+216811788+217030650+217381812+217635268+217682205+217687152+217785590
2440+217987229+218230692+218402617+218512548+218681158+218876634+219028505
2426+219166268+219294570+219453237+219632174+219745103+219838460+219963948
2413+220053391+220121915+220312927+220644401+220984970+221230964+221370460
2399+221520198+221718023+221809632+221827971+221995232+222258066+222306252
2386+221859634+220695569+218627642+215642293+212045615+208234721+204300239
2372+200115148+195860985+191931067+188347113+185319009+183380932+182736589
2359+183793855+186880589+191624510+197791149+203878522+206642660+204724021
2345+200300048+197180552+196500298+197222375+198458311+199588631+200371420
2332+201101192+202517332+204600833+206442986+207786937+209284791+211446543
2318+214005794+216255939+217944373+219465729+221105593+222739195+224247493
2305+225572589+226653657+227644614+228606790+229363695+230023096+230753801
2291+231395346+231918049+232488339+233016189+233331373+233517222+233672358
2278+233778641+233864886+233931627+233955479+234025252+234172159+234325146
2264+234503833+234768516+235075988+235317236+235477168+235636967+235816770
2251+235992043+236150410+236271300+236374535+236465244+236525006+236649961
2237+236857980+236992078+237076608+237258110+237471842+237614102+237734876
2224+237854917+237932634+238011235+238116835+238187823+238262826+238436566
2210+238625913+238716706+238801569+238948859+239027210+239041551+239196936
2197+239511687+239808117+239953075+239944114+239944414+240088073+240275238
2183+240390949+240525297+240769076+241002612+241084844+241075749+241102699
2170+241211580+241412503+241643008+241811368+241923614+242020719+242151120
2156+242351810+242556048+242690946+242822896+243004648+243132267+243184035
2143+243265184+243336972+243335256+243393652+243618660+243879546+244028585
2129+244127656+244274330+244401882+244444089+244490676+244599008+244691416
2116+244784441+244949753+245089082+245149777+245201711+245227028+245207624
2102+245207457+245286224+245408097+245508417+245609753+245722998+245831929
2089+245926470+246023975+246177045+246322603+246366458+246344855+246290940
2075+246190803+246146797+246318555+246601543+246692569+246592133+246577175
2062+246694335+246802883+246832831+246812327+246847288+246940363+247027441
2048+247123381+247209126+247184625+247043681+246988632+247156193+247464515
2035+247746737+247883017+247939299+247987468+247990583+247944878+247920361
2021+247937383+247903621+247977541+248392796+248835916+248981157+249031975
2008+249166857+249275372+249355371+249524814+249750205+249952844+250005094
1994+249735814+249527962+249934439+250629100+251081131+251284619+251440754
1981+251673790+251964590+252268465+252514609+252648958+252648708+252464841
1967+252428564+252941307+253584484+253901967+254095028+254280594+254436879
1954+254676078+254979853+255228013+255318922+255028805+254402117+254466510
1940+255650896+256776551+257283082+257490800+257638357+257900858+258233681
1927+258250854+257786797+257520948+257665590+257730449+258346227+259636429
1913+260369932+260335254+260391702+261068375+262013078+262702243+263168315
1900+263545843+263652759+263646197+263911113+263961997+263763323+264385363
1886+265532972+266354853+267031626+267679067+268271110+268850460+269240847
1873+268814866+267152366+265948826+267436187+270147974+271871419+272599027
1859+273058337+273644783+274383849+275079827+275530242+275506857+274685043
1846+273351118+273739889+276552147+278881659+279802178+280450202+280803113
1832+279807608+278576835+279326928+281030669+282793189+284968016+286717278
1819+287772245+288610416+289075156+288823481+288692197+289777545+291371372
1805+292187757+291911331+291453221+292204779+293667855+293852639+292676748
1792+293224735+296609664+299444441+300444443+300812877+301268955+302212460
1778+303488321+303390849+301226682+299718768+301950658+305932277+309085953
1765+310243921+309908133+310509087+312006675+313258884+314382674+314017705
1751+312061041+311661593+314000316+316681923+318059053+318425155+319309530
1738+320136308+318705511+317835194+321515237+326158738+329848375+332157850
1724+333106717+333013976+330566355+326493827+326563383+332025200+337422292
1711+340475864+340831772+339504078+338976277+338484055+336546878+336665337
1697+340073585+345848671+352089397+355105659+355582624+354180610+350537210
1684+350644709+357618572+363396823+365277036+365402756+366790047+368097355
1670+368904678+373189839+378440890+380538365+382239391+386272644+389360594
1657+388003851+382496729+382208144+390259760+393823276+395731505+402796543
1643+410351206+414202241+414392554+412130782+413747794+422365119+429473464
1630+432646593+434623145+436745039+439539074+444511634+449027416+450985779
1616+455026961+462860714+469388758+473759865+478129439+483534226+489166502
1603+494747445+500712045+506929086+512998720+519003494+525327468+531983631
1589+538715347+545618421+553075645+560958701+568534317+574269029+578316473
1576+585426716+595215468+601897982+607829903+617101314+626925644+634746439
1562+638546372+637897582+644477560+662121619+677983602+690822228+701217863
1549+710301727+717608313+722452588+725608395+730756211+744991954+760274837
1535+769746123+778045016+787811115+795805000+801623260+806355072+809636666
1522+814145885+822785230+832930890+843519337+853661266+860467634+862363437
1508+860714278+865971225+881271697+892947924+899468939+903707463+908068708
1495+913409070+917030516+918394388+921486902+928976173+937056870+942007210
1481+944038994+945058084+945719599+945895089+945731992+947437581+952205637
1468+955951871+956989883+958852640+962120842+961889588+955657391+952278991
1454+956428504+958974896+957668054+955703695+954944574+953427199+949638192
1441+944432212+938812561+932961989+927777330+922392064+916450749+913822542
1427+913558975+911487683+910284243+912228282+916389188+923372245+929925573
1414+934009394+939741708+946617832+949058091+949576830+953117128+956492463
1400+957078094+957539202+958526246+960790882+965990732+970564644+972569245
1387+973817789+975232296+975964634+975579943+976283366+979526918+984159792
1373+988991807+992606458+994490535+995063307+993599564+990989013+990634837
1360+992049210+992679146+992672883+992255280+991700097+991660522+990572476
1346+986316030+980710170+976420746+973374003+971222961+970217196+970221460
1333+970130518+969012624+968060092+968762515+970464240+971569742+972283558
1319+973370872+974429403+975941981+978516622+981151891+983034836+985049830
1306+988560413+992176730+993923493+995383238+996183533+994345427+993765393
1292+997070439+1000833396+1005006761+1012115339+1019921276+1025904898
1281+1029973595+1032645841+1035722165+1038928474+1040737331+1042774778
1269+1045687605+1047865430+1049190660+1050630151+1053156822+1056654813
1258+1058825109+1058551482+1058237414+1059879910+1060588263+1057316062
1246+1055459701+1060456146+1067124868+1069307023+1068447566+1067785318
1234+1068161880+1068754173+1069599505+1071172912+1072188937+1071402833
1223+1070200992+1069279774+1067151052+1064294122+1061831677+1059883041
1211+1058541422+1058184381+1059447983+1060921918+1061376232+1061196279
1200+1060122290+1058821512+1057822676+1055751983+1052072906+1048263445
1188+1046362046+1047794075+1051101920+1052757741+1051489208+1048962604
1177+1048179765+1049857905+1050324477+1047108508+1043902533+1043670479
1165+1042864521+1039933905+1037889596+1036765439+1034528918+1031623486
1153+1030174535+1031250056+1033352595+1032750708+1030068202+1030422911
1142+1033626222+1035411761+1033661999+1030126232+1027850602+1026308243
1130+1025068293+1025531000+1026238287+1025521806+1024312437+1024720112
1119+1028493996+1031723357+1028393526+1021102130+1014872531+1009582738
1107+1004805088+1003415499+1007655288+1013228236+1015145692+1016216815
1096+1018953021+1022015620+1025002068+1025952268+1026649627+1032295928
1084+1038343310+1039423228+1037168785+1031218942+1026140815+1027902436
1072+1032645841+1036660239+1040044036+1042222660+1043846235+1043513178
1061+1039719441+1036321453+1038005989+1043066527+1045768954+1046173632
1049+1046281963+1044662719+1043079186+1046512418+1054838826+1059592758
1038+1057126249+1054069646+1051847249+1047466349+1042031447+1036510867
1026+1032242096+1031396097+1031202019+1028426039+1025990444+1027942811
1015+1032291398+1032828792+1029592036+1028002773+1029188891+1031832754
1003+1035221215+1036187138+1033253857+1030792878+1031513289+1033383375
991+1035190501+1036528855+1035968476+1033818034+1032574952+1035920839
980+1043894338+1049575417+1050278373+1052157453+1056939433+1059996503
968+1059271627+1056912517+1056840296+1059424997+1060575337+1060563145
957+1062127357+1064419377+1064569815+1059817216+1055565568+1058522967
945+1061114464+1056720372+1053754644+1056405304+1059157100+1060941573
934+1064692804+1068959643+1070499337+1070783691+1072541648+1073741823
922+1072188204+1068824395+1065628946+1063630275+1061702359+1061137382
910+1063303148+1064431636+1063528806+1063893509+1065783782+1067405291
899+1067613893+1066580545+1064374938+1061178223+1061630604+1068147822
887+1072714338+1068200056+1058655350+1049363417+1043522306+1045489330
876+1053148960+1058357005+1058645023+1056687059+1053088598+1049750706
864+1048747007+1045356681+1038410934+1034990360+1034780093+1032560894
853+1031302622+1034378147+1036334045+1034188000+1032979230+1031969135
841+1027806430+1026221298+1030129430+1033249193+1030908538+1025700960
829+1025224327+1031805505+1037296304+1036078007+1032565358+1032514457
818+1034538579+1034471355+1032607132+1029937418+1028807864+1028988817
806+1025142113+1021875842+1025435061+1026551090+1019770571+1015002382
795+1018455602+1028509520+1035859545+1030811199+1019543448+1009084120
783+1001051126+1000829466+1005587994+1004921348+998822066+992986018+988908727
770+988475667+990861693+989429997+984365329+982572328+983290674+981860844
756+980284839+980452267+978251923+972887377+968320927+965071912+962358293
743+961214748+960507728+958523714+955708692+952354610+948673734+944799647
729+940642272+935304710+926839189+917146043+911312860+912549079+918935513
716+922431106+919073692+915912422+919918026+928212988+932507742+930719272
702+929335412+932897963+937575875+939160075+937828316+932699022+926014376
689+923226270+925764734+932533859+939892546+941481676+936957199+932683365
675+931039869+931338014+933641960+935071857+933241945+931349341+928415127
662+922974762+918777813+918438893+919747001+921702965+924677287+928401402
648+929376786+923806237+921669720+932782969+947191803+952141877+940445996
635+910496842+887493235+888066006+895602647+908752610+940679049+961393768
621+942938023+919874054+914568071+919472707+927743284+939042682+954744167
608+967076646+956108106+930375755+914983675+908259055
##END=
