##TITLE=Sample description
##JCAMP-DX=4.24
##DATA TYPE=INFRARED SPECTRUM
##DATE=12/9/2023
##SAMPLING PROCEDURE=Instrument type and / or accessory
##ORIGIN=Default
##XUNITS=1/CM
##YUNITS=ABSORBANCE
##RESOLUTION=4
##FIRSTX=4397.6552
##LASTX=599.8556
##DELTAX=-1.9287962
##MAXY=1.6855656
##MINY=0.14251208
##XFACTOR=1
##YFACTOR=1.5698053e-009
##NPOINTS=1970
##FIRSTY=0.18646118
##XYDATA=(X++(Y..Y))
4398+118779814+117599657+116502017+115744584+115273601+115874781+117091522
4384+117627840+117568456+117410788+117340544+117845329+118765908+119120628
4371+119128687+119299597+118887201+118113033+118246343+119066683+119545772
4357+119324268+118554959+118347931+119172675+119514172+118829099+118083796
4344+118044735+119152029+120581351+120686165+119566731+118970763+119226288
4330+119155019+118881696+119165166+119179709+118012319+116811601+117149036
4317+118597912+119491011+119109569+118225612+117891813+118235703+118734574
4303+119216596+119613453+119962458+120398404+120550339+120476821+120114213
4290+119168546+118763734+119567823+120808247+121746975+121940391+121547930
4276+120965307+120356135+120080638+120222492+120211747+119815858+119728244
4263+120478786+121196380+121149981+121140907+121129924+120221780+119042183
4249+118967061+120118788+120687950+119729041+119108373+119848531+120428780
4236+120039403+119805996+120058872+119840852+119223440+118973582+119107054
4222+119415584+120046580+120892321+121497221+121532020+121104143+121085955
4209+121782030+122424976+122805440+122898731+122449258+121898701+121730563
4195+121696608+121500705+121185321+120632068+119810514+119405636+119865551
4182+120651680+121308542+121968887+122480602+122371174+121755755+121042044
4168+120635277+120931505+121187562+120707163+120262778+120058749+119685595
4155+119623866+120031211+120187864+119878954+119506046+119439989+119903065
4141+120660223+121348172+121709338+121441463+120534459+119482553+119212789
4128+119739435+119975567+119718134+119469852+119293028+119237403+119391796
4114+119540228+119765188+119949568+119415717+118791366+119105336+119849679
4101+120219540+120127189+120034847+120058872+119925884+119769232+119461698
4087+118895612+118807636+119455813+119928248+119772051+119498500+119647758
4074+120491563+121138249+120510319+119489615+119015462+118672788+118323270
4060+118416532+118973677+119522174+119788625+119701333+119452785+119207028
4047+118784456+118672712+119311605+119931731+119719197+118746335+117898078
4033+117867627+118293426+118768139+119318022+119597524+119324524+118788281
4020+118314119+118100503+118350209+119189780+120133786+120556766+120816591
4006+121129288+120819267+119909367+119112180+118566426+118226580+118026339
3993+117832685+118068077+118801808+119251860+118992063+118352563+117833796
3979+117408927+116934527+116727831+116913369+117302973+117709285+118125515
3966+118382483+118114115+118118899+118724977+118644804+117983699+117498004
3952+116615575+115735661+116181280+116529450+115583166+115807755+117532546
3939+118198132+116926127+114234463+112697602+114699740+117250395+116612565
3925+114578751+114060487+113592361+112515890+113482117+116738396+118815287
3912+118346991+116298302+111838021+105173765+101034791+102323152+107258820
3898+113122660+115347632+112077694+109201963+111562923+112348008+109801653
3885+109486288+109093314+109177074+112541206+111902806+106849575+103138071
3871+102128995+105353759+108149555+107146620+108481018+112674678+113132143
3858+106610567+94691406+90783286+103212482+113570681+115835957+112477702
3844+107067738+102314390+98957938+99881289+104909213+108300569+110115632
3831+112562696+113848579+113184674+109287546+101683927+99863396+104540103
3817+107266053+112424203+118403964+118294138+112790133+108676590+108183737
3804+105056032+103925719+109171256+112797272+115711133+119594468+121223727
3790+120873611+119719985+118391206+118171268+117483271+116414223+119129684
3777+123489032+124412990+121746842+119170567+120200641+123087505+125865407
3763+126343205+123051586+121368315+123811877+123470086+116743997+111429432
3750+116274808+120185870+119610985+126217773+135664335+137254733+132581681
3736+129508424+136080082+149802726+161028859+165932860+168643575+173289821
3723+179663677+187180907+194626906+199229354+198794167+196770395+203886326
3709+221275271+239021585+251865265+261948945+275150486+290161936+301257293
3696+305949235+301513055+288030464+275363931+272943493+273729024+270299072
3682+263092205+253603829+241650021+232918717+235301338+237763126+237024278
3669+242492847+249637046+252408835+252610928+251357442+248043051+245361269
3655+245345226+241297075+231431473+228114367+237430418+247383218+252026369
3642+252986199+252931048+252249724+250662753+248308457+243494975+238205660
3628+242510826+251424781+253910565+250171447+245635104+246614583+250106007
3615+250579828+250076922+250493979+251947582+255608179+258748291+258791120
3601+258415375+259214935+259152248+259111772+260655876+260410498+256926213
3588+256817032+262590021+266714490+267109392+266923379+267566012+268574101
3574+269300343+268090219+263428785+258394188+259375546+264523254+267719808
3561+269046897+270632615+271706562+271064385+270068199+269868575+268810271
3547+266948458+267191804+269837326+272250892+272749127+272239976+272219074
3534+272130965+271051931+269469914+268386001+268279230+269149073+270504050
3520+271269647+271118757+270601195+269775986+268743426+268454289+268967541
3507+268622436+267194747+266738658+267552533+268014242+268080802+268464483
3493+268657273+267910699+266724173+266137108+265961006+265541120+265256824
3480+265448228+265603333+265429908+265429395+265835668+265886756+265199168
3466+264341628+263794412+263756082+264082505+264311859+264127119+263491036
3453+262856832+262399699+261839498+261584912+261690468+261690904+261900059
3439+262244195+262292834+262227583+262210801+262235481+262156562+261713667
3426+260792889+259666487+259062735+259326888+259869263+260024729+260060154
3412+260400645+260461947+259950423+259711348+260165785+260547378+260197262
3399+259734908+259721827+259675790+259590624+259795052+259974343+260019888
3385+260099301+260124000+260013718+259912643+260058047+260409834+260652250
3372+260727448+260763311+260746490+260909284+261381491+261750231+262100329
3358+262938182+264032290+264853835+265260128+265239966+265070147+265219614
3345+265626058+265903767+265955519+266279190+267524246+269121507+269674038
3331+269145086+268893956+269475648+270198453+270333871+269663255+268990474
3318+269090657+269368004+269332921+269318929+269506460+269900982+270428415
3304+270559049+269944381+269446241+269765753+270084222+269813329+269690897
3291+270275550+270763837+270165989+269140890+268906979+269181499+269183397
3277+269044410+269073646+269201319+269346153+269197199+268503041+268124505
3264+268734199+269291249+268778168+267937752+267897960+268184421+267962489
3250+267507729+267074498+266637925+266419885+266674490+267313705+267570645
3237+266977296+266516043+266839752+267064683+266999166+267365951+267766472
3223+267371419+266749992+266586192+266228330+265846547+266118408+266131014
3210+265538804+265293901+265235846+264591334+263693242+262916881+262136343
3196+261530047+261119673+260896393+260807849+260313467+259351568+258472765
3183+257707795+256651523+255528823+254768200+254325078+253933631+253071592
3169+251852393+251029823+250529974+249927684+249381189+249117434+249002748
3156+248842251+248574965+248076901+247228037+246255240+245590927+245286962
3142+244983036+244544489+243976694+242829750+241153399+239926188+239372917
3129+239062934+238854045+238258836+237031910+235829930+234984806+234065205
3115+232687806+231138254+229961733+228877287+227391732+225750958+224104641
3102+222402565+220758602+219078568+217433257+216195377+215421312+214750696
3088+213912084+213053708+212243782+211361182+210499883+209687659+208975011
3075+208602398+208430453+207973662+207042195+206178713+206069532+206291520
3061+205898764+205015879+204403622+204147556+203982598+203814165+203326523
3047+202551415+202126708+202107248+201899897+201241089+200380455+199386092
3034+198085657+196840582+196109670+195643272+194933205+193993215+193388893
3020+193211443+192858555+192131857+191320165+190606757+190004562+189238661
3007+188139711+187180964+186652980+186189221+185614325+184979001+184328793
2993+184074740+184360612+184660817+184770891+184928996+185115179+185081310
2980+184820612+184701445+184884951+185049568+184929603+184653869+184396911
2966+183984809+183366572+182856167+182510645+182113770+181609611+181111832
2953+180713475+180428268+180191756+179883330+179570481+179464717+179456098
2939+179284552+179041320+178790038+178345719+177789220+177324835+176830966
2926+176143263+175348183+174456622+173370962+172313114+171541518+170967458
2912+170520842+170326343+170352390+170297449+170034700+169826798+169836443
2899+169849143+169666814+169373291+169151664+169064922+169015657+168860818
2885+168545880+168318842+168539539+169053057+169367064+169280513+169000659
2872+168835435+168787840+168772937+168811154+168669281+168227316+167841850
2858+167626260+167267088+166642927+165868730+165073080+164442901+164181083
2845+164234126+164264976+164077939+163860810+163918695+164138538+164091038
2831+163818816+163731505+163865614+164002930+164082552+164027895+163777904
2818+163528483+163369657+163209729+163114217+163095137+162977318+162784794
2804+162727365+162780428+162856651+163010105+163185600+163346229+163582836
2791+163853938+164012688+164037273+164008360+163928035+163753148+163565047
2777+163535830+163641366+163618338+163346742+162909809+162463307+162276972
2764+162365535+162400809+162343779+162402594+162540214+162587809+162514186
2750+162471527+162539948+162541163+162445214+162420325+162375237+162161507
2737+161875900+161649413+161518228+161417343+161265485+161124238+161131509
2723+161245209+161255062+161096274+160885619+160771255+160831589+161016329
2710+161227705+161310459+161119720+160774388+160603601+160718800+160849871
2696+160756903+160543818+160468582+160587749+160717490+160708454+160573510
2683+160410621+160320425+160368285+160458254+160422164+160239987+159865323
2669+159378783+159086503+158950269+158726164+158450600+158216291+158018261
2656+157861485+157707652+157462759+157117407+156789143+156573903+156383316
2642+156086357+155760787+155471935+155133712+154818585+154612829+154397884
2629+154186441+154051678+153831731+153436355+152990337+152555966+152132057
2615+151790104+151599639+151518280+151390504+151091883+150689170+150280362
2602+149889087+149652120+149679372+149861512+149985748+149880924+149634398
2588+149448841+149302326+149168788+149136865+149174720+149231789+149295568
2575+149249406+149107040+149036692+148987522+148856394+148709576+148496880
2561+148146593+147854380+147731122+147589714+147364195+147178363+147026760
2548+146875803+146799741+146759265+146600392+146351189+146208879+146169866
2534+146065250+145931835+145855754+145753635+145546720+145246467+144984564
2521+144926167+145051940+145178103+145141425+144949423+144746438+144609103
2507+144467686+144313757+144306201+144474577+144648572+144751868+144832629
2494+144943822+145101358+145283383+145494959+145723810+145928313+146161446
2480+146471979+146740679+146838878+146802123+146761534+146798535+146831474
2467+146813818+146925609+147205530+147417542+147439602+147377655+147356980
2453+147363293+147370602+147467927+147675051+147862819+147926598+147950804
2440+148139778+148532220+148893367+149017612+148972941+148897515+148855293
2426+148898872+149002918+149075440+149114302+149211029+149405594+149581724
2413+149589053+149545112+149660929+149841303+149943270+149993940+150065750
2399+150277125+150577407+150757373+150870607+151075025+151206817+151005598
2386+150412942+149294296+147379506+144654163+141323692+137629558+133799143
2372+129831810+125791168+122003943+118558244+115501950+113370876+112966369
2359+114500610+117513837+121842269+127795869+133920066+136685505+134534051
2345+129825355+126618940+125803641+126094686+126824430+127655439+128349321
2332+128983630+130100890+131819663+133464832+134698032+136190744+138479106
2318+140920257+142743654+144060444+145369403+146824383+148240473+149502473
2305+150631741+151635473+152470630+153151432+153772422+154312433+154668720
2291+154883959+155161193+155634634+156175252+156519892+156549650+156425367
2278+156365375+156384122+156414251+156425196+156403772+156397621+156507808
2264+156728467+156893036+156929069+156928918+156933018+156932145+156971605
2251+157040804+157037842+156971083+156981676+157127156+157312352+157416170
2237+157458126+157531730+157610801+157670565+157725260+157753813+157799756
2224+157839691+157819444+157806876+157787882+157749969+157776538+157844674
2210+157919170+158012452+158098120+158202385+158322681+158380784+158418820
2197+158501774+158587119+158669561+158778932+158879361+158903699+158857367
2183+158853741+158947364+159031296+159046825+159078207+159185309+159307818
2170+159375441+159473061+159617212+159654213+159636291+159709952+159847420
2156+159978928+160054354+160079167+160099671+160119320+160106106+160067871
2143+160082053+160145860+160207751+160308825+160436896+160505982+160531212
2129+160581579+160667466+160765237+160857484+160991516+161212175+161397808
2116+161455863+161516937+161688274+161920723+162152698+162367776+162615773
2102+163011263+163540101+164036970+164497406+165102222+165963692+167128025
2089+168670097+170548256+172560960+174642673+176808621+178890790+180776941
2075+182516720+184168126+185786820+187288721+188567039+189867948+191500406
2062+193311492+194999234+196538763+197987677+199296104+200489332+201749272
2048+203103396+204391775+205513925+206557971+207770183+209079939+210190812
2035+211102629+211815373+212194460+212207293+211843812+211107945+210110715
2021+208883770+207355177+205867401+204915355+204272475+203468112+202521666
2008+201678327+201085320+200742133+200568859+200499204+200572523+200681306
1994+200467063+200404888+201407718+203120311+204843669+206431912+207912398
1981+209495363+211349601+213456583+215725789+218181843+220622330+222705922
1967+225115654+228613646+232478860+236007001+239373125+242589480+245587225
1954+248520137+251269277+253523713+255119569+255783104+255649395+256221424
1940+258118340+259649420+259885267+259365427+258708859+258153499+257503690
1927+256267215+254230553+252419808+251270967+249945396+249362205+249917546
1913+249609898+247886085+246159709+245233577+244413266+243079931+241470653
1900+239762084+237681093+235488699+233874010+232184749+230377422+230175007
1886+231145297+231796777+232210568+232581188+232903017+233211519+233239901
1873+231945219+228635593+226162016+228189907+232225130+234604827+235359280
1859+235699372+236162049+236696507+237126948+237082903+235991395+233444784
1846+230009593+229197161+232232723+234370479+233853810+232597591+230797896
1832+226730893+221993464+220369206+220477970+220760083+221975713+222629433
1819+221849673+220637480+219102128+216550866+214117593+213698050+214316667
1805+213771787+211375155+208698840+208219552+209142019+208104447+204742157
1792+204082818+208322430+211861828+212318544+211679233+211093137+211231270
1778+212103257+210955308+206359163+202527305+204698037+210036770+214363787
1765+215603869+214229793+214027074+215210354+216093884+216899539+215342583
1751+211154021+209585844+212540950+216000157+217444078+217375467+218105278
1738+218813294+215823162+213441756+218444953+225041537+229945880+232750266
1724+233477533+232638826+228132042+220785826+219653444+227261972+235123357
1711+239181209+238789820+235854477+234262722+232505762+228270611+227610284
1697+232392347+240662758+249950807+254290601+254346492+251543417+245219643
1684+244378069+254777313+264063198+267226717+267136787+268607268+270144575
1670+271293891+278210995+286859448+290461363+293106771+299249981+304195996
1657+302443782+294129022+293462507+305535254+310611238+313016109+323957975
1643+336010048+341999805+341911754+337396579+338216947+350074882+359879885
1630+363168154+364309705+365617601+367527806+372538520+377149227+377557930
1616+380213400+388077898+393499252+395046811+395997794+397916276+399982991
1603+402108369+405027119+408226159+410826497+413571233+417536079+422351365
1589+427420210+432705596+438420568+444958793+451802141+456008283+456957975
1576+462281140+472996727+479715231+484778609+495085037+507108709+515998345
1562+518353704+513718849+520264820+544642043+565801089+581900820+595283798
1549+607580053+617058937+622158272+624320784+629053448+648764491+672250191
1535+686425554+698558464+713974213+726283226+734418409+741905301+747828231
1522+755018279+768466451+783894426+799837191+816039515+827766607+831493613
1508+830095729+841722431+869010316+888077359+896443168+900662941+908277866
1495+919088984+924442221+923785501+926908261+938690941+950325844+957121388
1481+961708706+964790990+964011629+958834038+954048824+958135097+968794185
1468+974871727+973986203+972612697+971542945+965710230+957256863+957606334
1454+964528545+967019569+963733540+958363445+956690891+957947604+958192962
1441+956164938+949182356+938776600+934649852+934292560+929217183+923497237
1427+922246448+922359976+921805926+919283312+916415251+921282403+932259675
1414+940265686+943866025+946176011+947172785+947105731+950199178+956140562
1400+959838254+961183208+963048268+966893890+972603736+975403907+973220360
1387+971829311+974835428+978881605+982055471+983432167+981824693+981284008
1373+986137111+991470984+992314589+990682510+987932079+984591830+984780083
1360+988851547+991212867+989487536+987263817+987668647+988046139+986330300
1346+984773248+983274670+979024294+972469931+967362281+965357342+964466882
1333+963177136+962364210+963341316+966207630+969271992+970939763+972689091
1319+975266913+976524157+977058767+979849218+984717130+989385701+993103139
1306+996175323+999131624+1001208781+1001466821+1002300706+1004787857+1006771306
1292+1007717580+1008547972+1010879448+1015963558+1022739662+1029589123
1281+1036059725+1041575927+1044579462+1045359431+1046199011+1047991549
1269+1049965884+1051006551+1051240139+1052778130+1055539268+1056809119
1258+1057784098+1060640768+1064074725+1066499606+1067282840+1067581052
1246+1068736234+1070346898+1071947007+1072875512+1073252701+1073614018
1234+1073244727+1072799193+1073523423+1073741823+1071428041+1067500177
1223+1064773515+1065026771+1066451461+1065628890+1061790331+1058201762
1211+1057806956+1058392597+1056993043+1054621091+1053379186+1053276213
1200+1052779952+1051073681+1048732409+1046917165+1045429522+1043680422
1188+1043051496+1043682548+1042627377+1039181497+1036137410+1034186084
1177+1032445565+1031113293+1029544851+1026865195+1023892946+1022404923
1165+1022270208+1021588200+1020387151+1019750783+1019280113+1018366872
1153+1016707835+1014380687+1012823864+1012401643+1012327147+1012834571
1142+1012878616+1011057677+1008825908+1008301247+1008551389+1007291259
1130+1005267943+1003875907+1002403300+1000989318+1000245724+1000172519
1119+1002001887+1004177536+1002935632+1000672880+1001366126+1003160563
1107+1002274128+1000204945+1001969005+1007160340+1011544141+1013740294
1096+1014212786+1012132440+1008651021+1009893913+1017098541+1023242681
1084+1024992086+1025847006+1028913191+1033436795+1035958954+1035418345
1072+1034324673+1033925462+1033992060+1034294145+1035713368+1039363902
1061+1041877100+1041400736+1041085210+1041694088+1042412090+1042346555
1049+1040665723+1038642407+1037962602+1040339110+1044620469+1044984217
1038+1040410265+1036728519+1035867068+1036292554+1036792307+1033637730
1026+1027796433+1027441951+1032607315+1034257087+1030895652+1028313957
1015+1027641442+1027205021+1027777980+1029061499+1029411730+1030651736
1003+1034110905+1036548620+1035423964+1032851458+1032363854+1033511139
991+1033107676+1031106534+1031767962+1036935984+1041895402+1044309348
980+1045674121+1045374239+1045980915+1050051619+1053445329+1052680624
968+1050431846+1049987755+1050155884+1049466206+1049372574+1050187930
957+1050377018+1050976327+1055323906+1060096969+1057311303+1049961024
945+1047033276+1049081196+1052668018+1056463445+1058122786+1055942428
934+1052508623+1051033965+1050874569+1050488116+1051661828+1054189226
922+1054249598+1051843398+1050054581+1050154669+1050905401+1050931068
910+1051085300+1051535238+1050783519+1048490012+1045637519+1043479791
899+1042111372+1041816881+1043894645+1046343447+1045813393+1043885305
887+1042572929+1039922509+1035789534+1034233546+1034917604+1032554309
876+1029243905+1028767388+1026012780+1018515409+1011984511+1010131374
864+1009464934+1006650183+1005681734+1008408548+1010331017+1010658922
853+1012496339+1014810274+1013769455+1009616964+1005697378+1003549218
841+1002787627+1002678199+1002794309+1003074979+1003858897+1004968592
829+1004337995+1002136527+1001939009+1003215922+1003273028+1003284191
818+1004104559+1003139679+998625643+994454319+993839974+993438333+991999443
804+992865146+995589834+996428883+994512109+992005897+990670132+989484498
791+985241943+977549105+970819323+968425805+969134619+970076033+969280725
777+966789322+964380692+963226041+962244758+958955844+953973493+950613728
764+948882549+945536681+940803637+937977115+933498770+924706337+919874572
750+920821378+919390765+914590667+911505801+911228169+912090303+912466049
737+910284932+905160271+899196105+893856917+889503720+886347015+883062506
723+878041881+873552070+871761658+870230274+867712064+866271352+867028083
710+868972954+870890032+872000486+872304394+873605303+875677220+875755437
696+874742944+874991264+874843639+872576255+869781172+868237941+869655645
683+875610925+882980264+885798964+883670701+881951975+880989298+873776621
669+863967138+871185510+887048767+890872139+886603309+881194941+878433498
656+878677946+877645632+875109501+875870864+878836278+877287732+873327594
642+874933398+879742002+880049250+875254012+871466256+872483913+874555299
629+873748448+868973486+861807815+857141597+852949618+844539081+838633464
615+840890292+844241704+841619534+834425842+830289677+832339420+834558431
602+835499086+834526537
##END=
