##TITLE=Sample description
##JCAMP-DX=4.24
##DATA TYPE=INFRARED SPECTRUM
##DATE=12/9/2023
##SAMPLING PROCEDURE=Instrument type and / or accessory
##ORIGIN=Default
##XUNITS=1/CM
##YUNITS=ABSORBANCE
##RESOLUTION=4
##FIRSTX=4397.6552
##LASTX=599.8556
##DELTAX=-1.9287962
##MAXY=1.845795
##MINY=0.27233711
##XFACTOR=1
##YFACTOR=1.7190306e-009
##NPOINTS=1970
##FIRSTY=0.27748194
##XYDATA=(X++(Y..Y))
4398+161417688+161317239+160757229+159824636+159722297+161073849+161951225
4384+161478609+160885452+160936543+161307479+161289691+160974250+160772815
4371+160722625+161089782+161952890+162609205+162353801+161585664+161258243
4357+161362159+161291321+161166202+161528591+162407163+162851087+161928272
4344+160604337+160458362+160968841+160443539+159412733+159772834+160706953
4330+160773994+161273672+162786421+163562308+162956338+162044011+161743601
4317+162390347+163089779+162218835+160557562+160517827+161804730+162328559
4303+162258362+162751297+163029794+162158208+161018077+161034027+162350923
4290+163389998+163159715+163031545+163922183+164631324+164430998+163698661
4276+162776903+162278057+162549168+163213043+163778548+163803167+163129844
4263+162058852+161616575+162544175+163372696+162885726+162363891+162373738
4249+162291233+162238963+162134838+162266372+163207027+163754156+162978581
4236+162050426+161825222+161613628+161207307+161502950+162380551+163042259
4222+163587273+164306191+164896783+164984368+164731478+164275436+164115470
4209+164617974+164559983+163779069+163482368+163292289+162957916+163206680
4195+163428989+162940527+162561547+162709221+162896214+162999194+163252744
4182+163592890+163492458+162999316+162967243+163455548+163606152+163345443
4168+163569520+164298632+164472779+163889347+163177762+162383707+161794640
4155+162263251+163126515+163126342+162935014+163370824+163921958+164276736
4141+164464805+164307717+163875027+163672084+163880956+164022961+163674043
4128+162810918+162444021+163533043+164785221+164955243+164669742+164150715
4114+163534361+163736368+164046522+163358983+162952316+163514146+164056543
4101+164081421+163498179+162993196+163224450+163819810+164479645+164822305
4087+164484967+163768320+163210113+163277344+163836834+164152987+164016824
4074+163701105+163165488+162498077+162170171+162258172+162293885+162256213
4060+162673108+163325263+163574391+163632487+163727787+163217377+162076570
4047+161581555+162101136+162614857+162740791+162781896+162809011+162841569
4033+163007863+163249623+163371431+163343744+163072719+162767247+162980280
4020+163583511+164155708+164372175+163954464+163432872+163318190+163367391
4006+163468187+163540949+163463575+163329857+163153058+163113044+163579853
3993+164494641+165096398+164890126+164550084+164577788+164445283+163888394
3979+163684861+164196484+164422312+164032705+163742003+163612706+163552426
3966+163765962+164362275+165128211+165534444+165525013+165371358+165112920
3952+164977867+165325953+165744288+165372814+164632242+164605769+164937195
3939+164790284+164446133+164433044+164690494+165036656+165225938+164681427
3925+163728133+163337624+163445458+163863914+164497155+164713378+164087991
3912+163072043+162727771+162900947+162580062+162287644+162877907+163844584
3898+164769757+164737181+163016774+161442393+161964661+162716103+163520006
3885+165176944+165094110+163772013+163337069+162339411+161505828+162133625
3871+162686978+163349118+163904361+164127952+165258930+166047472+165013997
3858+162190108+158424819+158593175+163657920+166448626+166368721+164702092
3844+162535646+160884983+160099856+161261658+163768701+164683732+164296639
3831+164455200+164786140+164494398+162868354+159967161+159668658+161602498
3817+162255016+164053006+166313521+165955293+163417564+161928740+162408620
3804+161609432+161651474+164235596+165316574+165777748+166844562+167289716
3790+167407346+167328949+166843695+166577264+166530819+166806993+167872628
3777+168692186+168571280+168042684+168254504+169727517+171117990+172006270
3763+172114191+171347996+171864265+173801711+174330741+172962823+173393727
3750+178226298+182220310+185062680+190902461+196069076+197845065+198857685
3736+200816264+203359975+207162243+211405678+214287576+216033833+217188058
3723+218083759+219494949+221189595+222801284+224885901+229235576+237756253
3709+248126757+257904709+266944309+276872536+289308967+301025319+309341458
3696+314687438+316606126+315145959+313110041+312658143+311039553+305951300
3682+298832816+291876845+285272810+279664109+277506781+275945750+273176559
3669+271946537+271422483+270265327+269295252+268728775+268282945+268386063
3655+269229407+268825930+267260045+268679019+273300412+276827963+278581917
3642+279300281+279831529+280964153+282656978+284359460+285224423+285924947
3628+288696184+290814989+289814419+286673615+283765955+283405525+283823288
3615+283177912+283086409+284681021+287364691+290186725+292020046+292942914
3601+294035369+295216934+295985540+296664341+296861078+296139906+295518766
3588+296009984+296217782+295364435+294908965+295155042+294903833+294111719
3574+294022019+294659559+295218599+296047224+297133299+297411033+297118909
3561+296691837+296201278+296215875+296584349+296393021+295999028+296451342
3547+297574344+298174888+297634121+296655707+296432341+297108195+297422440
3534+296974182+296744367+297105941+297599656+297804194+297536308+296877444
3520+296076973+295420606+294812816+293988663+293636520+294313796+295142040
3507+295348832+295244014+295246580+295053276+294421804+293747787+293276541
3493+292931333+292343965+291562288+291351543+291629728+292092340+292587234
3480+292103540+290988928+290746631+291261704+291432540+290703185+289693859
3466+289294214+289109491+288701905+288573510+288765063+288676542+288215749
3453+287899493+288002993+288006027+287468399+286967004+286885747+286874894
3439+286729838+286331961+285726580+285427280+285493887+285440889+285502521
3426+285829526+285809190+285532427+285511519+285686377+285772956+285672993
3412+285390751+284767601+284104402+283848270+283911636+284319620+284658570
3399+284460186+284469756+284940881+285198764+285283402+285366757+285408625
3385+285520256+285423830+285286783+285779457+286457652+286559002+286277575
3372+285968393+285746154+285585026+285399957+285499643+285970959+286396124
3358+286830512+287466058+288026779+288233849+288137110+287863780+287485198
3345+287242744+287225113+287508603+288033783+288308692+288470010+288836057
3331+289186223+289431087+289642109+289783005+289707850+289671894+289887302
3318+289777613+289163495+288741832+288672173+288511358+288370878+288374346
3304+288279705+288031686+287673197+287440851+287612103+288290263+289483635
3291+291031923+292409255+292940694+292777660+292882963+293812523+294956364
3277+295596296+296156583+297108577+298111366+298583236+298256440+297938935
3264+298229429+298119722+297369667+296820441+296539967+296632199+297123417
3250+297236556+296698425+296168927+295630727+294692846+294090707+294178916
3237+294541462+294996377+294733587+293498694+292953697+293503895+293447793
3223+292721350+292298820+291981801+291466347+290707519+290082375+290145550
3210+290572830+290927002+291120410+290683646+289781132+289120188+288529422
3196+288035430+287836457+287196369+285813940+284780534+284644701+284378097
3183+283304764+282064011+281623520+281726656+281112764+279503744+278099090
3169+278146280+278780908+278051258+276245623+275664670+276602967+276849668
3156+275924894+275299247+275792095+276289017+274975779+272660133+272193117
3142+274058633+274880670+272768297+270308392+270353779+271803717+271011655
3129+268073621+266679178+268348911+269484586+266617997+262787990+262623430
3115+265713923+266382495+262274945+258592889+259295719+261486333+259434326
3102+254158854+251680867+253746102+255877632+252942511+247707694+246607940
3088+250725355+253645948+249989915+244681763+243642029+246094774+247046697
3075+244059982+241005775+241530471+244446573+244906915+241678439+239008188
3061+239548886+242191068+242853140+240256847+238061136+238209833+239066093
3047+238526332+237071332+236252988+236106284+235957518+235325855+234226778
3034+233190303+232926768+233302471+233096113+232121114+231657843+234249437
3020+245560075+265387542+277528002+270946764+256889281+246287575+239875058
3007+235581919+232494234+230399354+229159624+228418792+227411252+226258777
2993+226070189+227596304+229496545+229500290+228141023+227524304+228722323
2980+230638132+230318704+227936173+226590220+227198687+228777765+229305321
2966+227517942+225333101+225375056+228278382+230516637+228286911+224344441
2953+222783843+224592269+227899419+228228521+225284628+223070835+223599604
2939+226192950+227170861+224576493+221858323+221623030+223652741+225662360
2926+224496935+221364141+219587735+220162447+221959258+221965239+219464367
2912+217266646+217211133+218914551+220042096+218945029+217119821+216332041
2899+217017742+218388868+218491588+217128836+216087507+216250489+217263664
2885+217770190+216912249+215931997+215991878+216878771+217699734+217498090
2872+216540792+215913672+216003407+216537134+216806737+216239290+215417149
2858+215166547+215350454+215343104+214721115+213690378+212847260+212560424
2845+212801370+213116378+213127334+213031064+213163187+213391927+213414135
2831+213363547+213430813+213412558+213246542+213192260+213219028+213134685
2818+212987895+212778711+212544596+212454844+212492759+212581298+212661549
2804+212609279+212480901+212493504+212659105+212861701+213045332+213175132
2791+213321263+213373724+213057433+212642253+212543590+212579477+212474590
2777+212280315+212115270+212052129+212111958+212085832+211731816+211298971
2764+211265043+211588338+211794159+211689896+211457359+211233022+211121114
2750+211234721+211460913+211569042+211566996+211580432+211538911+211371074
2737+211180215+211130822+211284200+211523984+211752725+211877948+211867407
2723+211889268+211931310+211837796+211704598+211703020+211810438+211841090
2710+211717566+211632234+211713127+211822227+211862605+211850452+211760925
2696+211631316+211595290+211697767+211777256+211728349+211710163+211761272
2683+211723425+211606940+211482255+211359701+211313829+211298694+211147240
2669+210923458+210843137+210912016+210893830+210655866+210392990+210351538
2656+210481181+210482742+210212497+209861256+209635497+209535170+209414766
2642+209136425+208806889+208716461+208845828+208860182+208659839+208394935
2629+208177532+208031003+207873152+207661800+207501869+207460365+207445057
2615+207318464+207088371+206890386+206735847+206510002+206224483+206010167
2602+205873242+205667802+205390293+205215297+205192620+205217776+205152572
2588+204886419+204568204+204421969+204256161+203936299+203722052+203682957
2575+203726074+203742925+203590483+203440989+203429131+203240230+202790533
2561+202472266+202365316+202217763+201995021+201783548+201685423+201747488
2548+201858616+201840777+201558518+201139698+200859623+200768623+200683968
2534+200510532+200364938+200314852+200335327+200377732+200377576+200313829
2521+200144450+199950504+199900002+199893102+199793676+199730917+199781176
2507+199824362+199792376+199699382+199585896+199506424+199495416+199600008
2494+199716805+199660877+199571264+199660548+199828974+199982542+200179661
2480+200376727+200500112+200585686+200675109+200728229+200632911+200441861
2467+200446923+200713978+200935471+200945007+200882144+200826424+200792964
2453+200867217+201043306+201214280+201321751+201444962+201639810+201816956
2440+202028707+202375909+202699481+202853310+202861302+202798456+202804316
2426+202936976+203133800+203341442+203482563+203540606+203578174+203598684
2413+203650902+203831984+204078598+204274486+204467790+204727112+204992329
2399+205233587+205684029+207018140+210479586+217669152+229957268+248051706
2386+271551832+298558826+326626671+354495594+382312819+411032454+441981901
2372+475225306+508469440+539200722+567000887+589267386+601466114+605709237
2359+604584432+592639790+567775803+537188936+508892386+493020010+497869190
2345+518184789+528680394+519399017+505794629+495558832+490953233+494089719
2332+500632938+501471375+496036111+491796178+490825184+488114451+479780178
2318+465937931+451185749+444673008+448458131+451293202+442719231+423556176
2305+401716369+385472884+375584479+366888805+356857824+345316642+331502202
2291+316673982+303415946+292090537+281984800+273285537+266228771+260586246
2278+255911335+251736796+247864504+244390350+241425011+238857342+236580825
2264+234662293+233045420+231482412+229873202+228411268+227249223+226220203
2251+225191738+224301775+223534852+222745598+222055390+221591165+221181204
2237+220699625+220260503+219942930+219773290+219705417+219605020+219515615
2224+219516273+219540579+219553617+219607291+219789205+220065223+220273853
2210+220407536+220514555+220546351+220621714+220859313+221060367+221114440
2197+221280595+221676583+222055494+222331338+222627189+222860679+222943740
2183+223058214+223311728+223564012+223703174+223720112+223673597+223651077
2170+223649742+223616785+223564567+223517619+223425284+223286989+223170937
2156+223044865+222862274+222700991+222557530+222362769+222173140+222026420
2143+222084845+222438808+222828832+223213291+223691194+224188341+224627792
2129+224945089+225173916+225409088+225701385+226008296+226238771+226449897
2116+226748799+227038807+227252552+227515411+227785482+227997180+228233462
2102+228515756+228851221+229238627+229660654+230114599+230635827+231190393
2089+231723323+232345746+233102146+233981463+235030559+236237020+237513349
2075+238832325+240363502+242212202+244267763+246467652+248851639+251352978
2062+253962239+256792005+259890316+263380021+267159544+270915523+274592499
2048+278250179+281892360+285436867+288787410+291760620+294263901+296440212
2035+298352901+299984631+301196814+302012540+302585449+302774939+302491241
2021+301925822+301265987+300330741+298976710+297441961+295821396+294127808
2008+292464837+290779761+289018352+287359004+285878901+284452679+283081000
1994+281826082+280668667+279540879+278440363+277381420+276393817+275634903
1981+275077840+274550093+274030807+273558954+273225379+273079560+273051665
1967+273051509+273021898+273050642+273221911+273427611+273657392+274060193
1954+274607981+275195504+275823994+276470705+277104639+277844917+278767923
1940+279632036+280328052+281038909+281833225+282634198+283349025+283999065
1927+284658414+285348085+286010625+286440020+286773058+287340003+287816624
1913+287908959+288007501+288388388+288774962+289034371+289359174+289732850
1900+290063374+290377619+290708247+291002590+291104218+291175575+291540028
1886+292026183+292355234+292663654+293159622+293657394+293915919+294043794
1873+294156413+294127392+294037553+294302735+294845894+295266691+295357570
1859+295085487+294648602+294270489+293978920+293802745+293742864+293357712
1846+292539801+292162242+292172020+291695434+291033276+290758558+290524478
1832+289566001+288220413+287719885+287943060+288132897+288120432+288010448
1819+287922083+287566195+286829229+286110138+285706452+285701390+285770529
1805+285812397+286054868+285926958+285265944+284931207+284616303+284164630
1792+284747993+285954385+286640363+287171421+287571396+287606174+287838867
1778+288271574+288011887+286918513+286605447+288557993+290998637+292073062
1765+291982946+292026426+292958066+294034259+294801616+295397721+295771674
1751+296048437+296500786+297406386+298622175+299367965+299412867+299864315
1738+300704694+300958087+302039135+304621887+306617065+307889856+308819693
1724+309627375+310120882+309731014+309301584+311002938+314036584+316245904
1711+317540366+318048020+318308139+319166029+319737134+319756136+321025043
1697+323365429+326488809+329782367+331959510+333417943+333706980+333045481
1684+335278760+340355779+343678324+344892170+345798082+347738163+349539273
1670+351539235+355442594+359147031+361376601+364083657+368076577+371486984
1657+372722120+372230902+375308340+381787656+385239532+388652990+394671808
1643+400002046+403375526+405064398+405574375+408149118+413735038+417937177
1630+420116817+421746467+423462523+425607906+428632606+430899518+431775472
1616+433898976+437754173+440899224+443326016+445865704+448703272+451762818
1603+455234770+459236636+463480592+467573926+471700408+476309058+481256919
1589+486291740+491524928+497295935+503738427+510449811+516378894+521591625
1576+528372911+535582656+540939766+546987155+555208115+563253178+570277247
1562+575535642+580220851+591194117+605287678+616675534+627752786+638914432
1549+649603064+659060582+667294545+673743937+680756634+694637716+708871218
1535+719043702+728895387+739446504+748723166+757753646+766635863+773908680
1522+782142157+792774064+803950758+815805804+826782225+835217433+841590335
1508+847189813+857433932+871907929+882503567+888844293+893054337+898822952
1495+906532584+912199674+915535603+919989887+926912571+933001221+937948978
1481+943645888+949556594+953634880+953976205+952388440+954902817+960684468
1468+963579628+963552514+965489994+968425029+966426870+959797592+958926180
1454+963482057+964870381+963165073+959758758+956512634+954944564+954031682
1441+950983820+943844081+934431222+928291671+925389577+921938394+919407998
1427+919562988+920942158+922468134+923426993+924817188+929283469+935907754
1414+941705356+946293410+949555484+951040546+952473737+954638744+956981487
1400+959457793+962370359+966357246+971564428+976470299+978205980+976308305
1387+973573752+973246158+975352359+978024292+980539570+982655411+984640671
1373+987758850+991019676+992885660+994180851+994645474+993393764+992508760
1360+994206509+997953317+1000593558+999728179+997209295+994436740+991101505
1346+988214736+987664192+987589436+983270655+976387846+971962202+969104974
1333+965674388+963647935+964423510+964769620+964383843+966676310+969561207
1319+969253307+968403115+970608899+975411443+981130266+986516918+991002825
1306+993989037+995370426+995957030+996022355+996605562+998720917+1001378287
1292+1003243439+1004090649+1005298531+1009236945+1016440137+1023831467
1281+1029053074+1033347860+1037071229+1039069527+1040213125+1042348383
1269+1044253895+1043843639+1042909815+1043531717+1044988901+1046764318
1258+1049465169+1052883550+1056731605+1061087556+1064758845+1066296056
1246+1065510357+1064238883+1064615713+1066682595+1069055782+1070038634
1234+1070716984+1072677211+1073741823+1072903767+1071812109+1070930573
1223+1070295286+1070252083+1069422834+1066271784+1062465823+1061103644
1211+1063100902+1065433451+1064735891+1062519706+1061420074+1061506341
1200+1062549040+1063226974+1061727488+1058970814+1056576754+1054917076
1188+1053558087+1052413310+1052171151+1051857703+1049640824+1046514947
1177+1045009289+1045613786+1047329772+1049230430+1050157874+1048672743
1165+1044984533+1042558296+1042399283+1040215968+1034587573+1030302911
1153+1031028001+1034655256+1037368172+1037576143+1036545511+1035475628
1142+1031858499+1026640290+1024617374+1025123606+1025015147+1023810247
1130+1022943134+1025139972+1029321168+1029655975+1025998693+1023873005
1119+1024158645+1024179310+1022164439+1017864104+1013857107+1012912326
1107+1014798559+1017482281+1018665337+1018253209+1017694413+1016569815
1096+1016224676+1019987712+1025480673+1026522955+1024381387+1025977820
1084+1030907407+1033922468+1035954329+1038264341+1038148601+1037553606
1072+1038546583+1037814766+1035848437+1036779834+1042275915+1049047909
1061+1049677925+1045844710+1043798286+1040848966+1037173446+1036230607
1049+1035145815+1033095507+1032137273+1033184271+1038600118+1045457408
1038+1045290352+1038829587+1033310205+1030740975+1031058029+1033066451
1026+1034769609+1038052279+1040925317+1037920589+1032711811+1030649160
1015+1029705072+1028366471+1029735099+1033250081+1033323520+1030301802
1003+1029375952+1031072799+1032266951+1031236111+1030155410+1031866404
991+1034869468+1037091548+1040014031+1043958130+1047035395+1048739454
980+1049928197+1052971621+1057487277+1058829415+1057234855+1055871566
968+1054760491+1054160919+1054529289+1057089851+1061414248+1061784075
957+1057332426+1055272825+1058621167+1063303880+1064645186+1062316797
945+1059302569+1057453852+1058104672+1061872076+1065798562+1066946182
934+1065092611+1060876811+1056981323+1056986940+1059680509+1060868697
922+1060712944+1061159538+1060702473+1059289462+1059840700+1061294695
910+1061871660+1063709836+1064964736+1061341365+1056121353+1055823647
899+1059342304+1061352946+1060100958+1054904039+1051270197+1055243977
887+1058398910+1055027407+1054546002+1060232232+1062594739+1055992299
876+1047189414+1043885732+1045639166+1046959183+1045947205+1044619630
864+1042056641+1038028562+1036307443+1038384380+1040422206+1039006421
853+1035891224+1032934137+1030331759+1029978160+1031317524+1031050262
841+1029360003+1027466072+1025779835+1025331022+1024522300+1022308195
829+1020978261+1020541793+1019146743+1017301979+1017998498+1023098540
818+1027751711+1025211607+1018223043+1013443384+1011386141+1012053743
806+1016697968+1019374616+1013783391+1007172698+1007426854+1010497878
795+1011587316+1011561381+1011631976+1010814585+1007046210+1001269412+995176116
781+988979285+986138354+989080046+992218475+990540698+986288074+980647127
768+974157791+970874428+972677722+976117879+978051545+979807337+978577471
754+970701199+962713279+959729008+959250168+956603201+950532095+947278828
741+949729406+951975618+950707889+948920545+947972435+945628097+940168492
727+932205259+925445886+923500292+923209660+918696292+912118400+908847658
714+909441682+912228176+914731527+916655831+919798906+922273824+922620281
700+923035114+925175226+929251154+933524651+935600479+934429904+931423720
687+929680896+928572041+926399405+926468682+931175181+935773013+934081853
673+928771759+926138869+926826096+931187317+937154541+939190078+936776184
660+934249464+934731008+936007267+934907912+932814886+934109314+936137084
646+932856564+928707544+927457429+927315962+926798357+924476834+923837248
633+927433643+945733157+979114285+984165229+956339960+935343549+924001254
619+915960907+907329517+895820096+887429479+883836205+885907247+894626222
606+901522693+902541397+903241107+900733457
##END=
