##TITLE=Sample description
##JCAMP-DX=4.24
##DATA TYPE=INFRARED SPECTRUM
##DATE=12/9/2023
##SAMPLING PROCEDURE=Instrument type and / or accessory
##ORIGIN=Default
##XUNITS=1/CM
##YUNITS=ABSORBANCE
##RESOLUTION=4
##FIRSTX=4397.6552
##LASTX=599.8556
##DELTAX=-1.9287962
##MAXY=1.7783922
##MINY=0.15810584
##XFACTOR=1
##YFACTOR=1.6562568e-009
##NPOINTS=1970
##FIRSTY=0.18173249
##XYDATA=(X++(Y..Y))
4398+109724827+109868723+109957208+109527489+108880964+108808602+109012336
4384+109070231+109025957+109084941+109848498+110757931+110803545+110703284
4371+110679469+110158153+109976560+110569941+110779991+109905583+108819677
4357+108514952+108780819+109214667+109948768+111221082+112563283+112869168
4344+112325351+112184226+112490237+112108670+110935179+110675303+111845304
4330+112191873+110865921+110131792+110728079+111168369+111164050+111190699
4317+111054819+110791579+110847837+110904256+110612955+110866208+111802857
4303+112014536+111248864+110907504+111374425+111743423+111889335+112081535
4290+112013150+111493841+111066560+111690342+113115107+113896127+113709784
4276+113204815+112337056+111295234+110969727+111152229+111183772+111473606
4263+112150371+112618101+112801611+112966488+112953748+112616499+112517912
4249+113102530+113471456+112772443+112054815+112133375+112099340+111733248
4236+111676225+112055705+112688070+113099399+113222440+113480201+113603611
4222+113305922+113209844+113546634+113720274+113699320+113899123+114408527
4209+114797022+114447700+113798493+113511978+113330070+113425275+114141346
4195+114808817+115045579+115437565+116076515+116261806+115659347+114612307
4182+113726230+113449989+113776882+114405144+114791525+114444002+113749091
4168+113636684+114328437+114948718+114852551+114715411+115038912+115304995
4155+115143753+114796050+114638443+114703283+114956447+115351725+115462423
4141+115189709+115056141+115074837+114691326+114127293+114050910+114217370
4128+114017180+113644592+113894157+115032075+116136866+116102336+115160973
4114+114525190+114685083+114759055+114054095+113376260+113592716+114172701
4101+114080294+113656495+114033690+114793774+115042745+115099506+115278185
4087+115272876+114953568+114547925+114245521+114371532+114955700+115365625
4074+115299975+114808934+114289210+114467889+115080433+115279354+115056312
4060+114944355+114951454+114521924+113639860+113171797+113682613+114529589
4047+114942736+115111994+115355873+115378149+114824552+114216426+114340691
4033+114881566+115221279+115328945+115111823+114668429+114636913+115104581
4020+115477475+115446327+115197923+115359633+115911692+115915821+115688065
4006+115996109+116009443+115299075+114749203+114551875+114292305+114292350
3993+114878372+115572779+115987859+116199988+116353133+116399224+116065709
3979+115410403+114696338+113978773+113681668+114221914+114969285+115299660
3966+115403241+115532203+116084450+116663103+116262480+115386354+114780414
3952+114146538+113696981+114253853+114896492+114438604+114327492+115162593
3939+115323340+114130352+112237496+111511456+113000856+114446728+113960041
3925+113189772+113362945+112635609+111220722+112011567+114918993+116842456
3912+116906037+115619922+111904117+106334187+103130088+104350255+108513629
3898+113656423+115778340+112991328+110048130+111164599+111304078+109398438
3885+109690153+109465671+109124248+111789352+111809101+108353206+105649586
3871+104723698+106945031+108864175+108225063+109723072+113070312+113161405
3858+107733770+98117201+95459735+106270822+114965336+116686657+113744539
3844+109347443+105398141+102388699+103253184+107523819+110010793+111173101
3831+112755546+113217168+112570318+109971261+104382230+103249738+107236242
3817+109114613+112509634+116864444+116798506+112549815+109226120+108612163
3804+105883209+105349234+110349157+113427659+115622568+118694916+119953806
3790+119681218+118690687+117472247+117304752+116771255+115633238+117391581
3777+120540133+120684911+117694848+115049628+115390088+117116951+119468630
3763+120415868+117905493+116501393+118188949+117191958+111403827+108452028
3750+115325814+121053810+122977139+131192586+140870299+143603599+141718975
3736+140739358+145367529+154774624+162709522+164702567+162898996+161847278
3723+162390834+163611910+164401981+163540978+161340357+161973486+171965055
3709+187862561+201866023+211958231+220459465+231161050+241298495+246213334
3696+246412561+242223357+233177127+225234151+224876812+225586109+221565974
3682+213923764+204322750+192827063+183773960+183504683+183298096+180429546
3669+183158770+187962192+189422028+189242306+188435932+185900285+183857325
3655+184026286+180588089+172645130+171205052+180882053+190447205+195051058
3642+197074477+198987630+200825928+202084881+202037018+198764957+194375734
3628+197463412+203871394+204497433+199071715+192221356+190021562+189800527
3615+187185725+185657603+187345599+191126327+196715123+201170167+202335355
3601+202497803+203242403+203051615+202326322+202571667+201383304+196981917
3588+194352756+196416750+198063757+197620984+196802501+196280807+196161796
3574+196294950+195257465+191603540+187770019+188851697+192918813+195122727
3561+195714273+196149381+195985439+194749950+193792483+193776325+192957554
3547+191699447+192427295+194486863+195528037+195221207+194736923+194653450
3534+194482401+193748920+192839047+192506612+192484713+192318900+192429400
3520+192967954+193473256+193559446+193044428+192059502+191392311+191475406
3507+191252625+190344515+190321789+191498312+192211010+192021409+191712456
3493+191312256+190486360+189833743+190028868+190426405+190277560+190036893
3480+190241213+190669177+190913334+191068387+191588929+192100852+191882731
3466+191207820+190698417+190631534+190773361+190788799+190876825+190991049
3453+190920298+190642366+190014383+189634516+190115742+191052372+192118666
3439+192802015+192564534+192049965+192033627+192290002+192274924+191924459
3426+191581821+191543818+191905187+192512693+193170456+193811791+194234320
3412+194264514+194126538+194136434+194359791+194882870+195622721+195948030
3399+195730935+195668767+196016011+196557174+197120757+197673994+198373178
3385+198960477+199140109+199392922+199935362+200221463+200081796+200014553
3372+200459359+201330240+202100338+202474303+202764200+203291148+204049730
3358+204885307+205611015+206331863+207221548+208027489+208394509+208251746
3345+208045123+208355282+209006369+209571428+210241138+211187431+211940489
3331+212144053+212114795+212205501+212557712+213356294+214531414+215660091
3318+216304953+216378745+216228893+215971708+215461980+215150130+215528521
3304+216192132+216660204+217209878+218199464+219302411+220006201+220441723
3291+221050021+221925184+222938558+223995981+225145207+226253498+226934797
3277+227260556+227568196+227990330+228606869+229233250+229514601+229479477
3264+229401402+229329949+229164514+228767499+228265041+228194901+228618475
3250+228922030+228605537+227644490+226476693+225791832+225874153+226099256
3237+226030070+226206966+226730909+226960852+226843065+226671440+226271960
3223+225594764+225000501+224606833+224190241+223753622+223559955+223367080
3210+222595057+221607810+221244515+221208816+220923596+220522929+219715188
3196+218195001+216733295+216134677+216311304+216558449+216208812+215155546
3183+213813480+212655040+211820129+211214440+210880385+210727798+210342515
3169+209826634+209626507+209543861+209357914+209287450+209104111+208598018
3156+208360644+208485611+208187346+207307612+206515940+206109676+205919284
3142+205842253+205629548+205195304+204591289+203691096+202855681+202403623
3129+202104872+201922379+201769468+201233308+200219052+199072218+198163281
3115+197479751+196549400+195306858+194124630+193135584+192240070+190992867
3102+189444214+188235500+187299067+186338415+185514552+185015207+184682628
3088+184263732+183811045+183353139+182748098+182067322+181568606+181105212
3075+180442645+179998433+180026629+180123327+179990335+179681238+179286743
3061+178933255+178935360+179270422+179449154+179400229+179283504+178943619
3047+178525300+178346334+178229356+177958226+177694041+177533213+177196279
3034+176541845+175896174+175546627+175349073+174954884+174414980+174250229
3020+174733974+175446762+175666358+175154741+174282438+173447113+172715917
3007+172029779+171507671+171158448+170712094+170098254+169510739+169127400
2993+169115668+169519772+170180252+170861982+171390604+171756651+171928492
2980+171779521+171530073+171703947+172189060+172332776+172008636+171404063
2966+170617591+169930570+169579601+169439034+169266258+169113329+169071493
2953+168928119+168606156+168350158+168312947+168415908+168438724+168221773
2939+167918164+167625189+167272637+167003342+167011475+167269056+167331944
2926+166931043+166409205+165848915+165145754+164512121+164160504+164067225
2912+164062078+164149726+164305876+164313721+164231022+164324104+164522773
2899+164572724+164486768+164438778+164618590+164932581+165008029+164846031
2885+164724124+164778753+164962937+165110630+165146689+165100535+165063576
2872+165177963+165402723+165460753+165241949+164912302+164593705+164361369
2858+164252668+164114746+163684551+162938367+162222646+161749464+161477937
2845+161477560+161718928+161950616+162045875+162067306+162085318+162217716
2831+162611672+163135093+163389651+163224396+162929784+162720570+162508009
2818+162359705+162436574+162569998+162547398+162528144+162771510+163138224
2804+163319313+163345206+163423875+163666323+164060135+164353596+164328728
2791+164245939+164335098+164348521+164197176+164116617+164145102+164149168
2777+164146073+164220298+164266524+164135295+163816787+163457217+163399619
2764+163748717+164063104+164049987+163974035+164058030+164176303+164204247
2750+164250761+164424887+164576413+164583016+164550789+164547245+164537816
2737+164525112+164568063+164747983+165025177+165166465+165080112+164986653
2723+165066563+165184386+165179042+165220230+165401841+165564289+165714465
2710+165903616+165992523+165840530+165586188+165553691+165787754+166014332
2696+166086307+166142231+166255286+166329079+166395998+166588513+166835208
2683+166916396+166762333+166470258+166271085+166293271+166264373+166008933
2669+165800314+165844200+165981709+165991551+165884273+165783345+165641734
2656+165401301+165184278+165005222+164849792+164844592+164932474+164910485
2642+164748343+164627353+164624636+164538284+164332003+164159101+163920881
2629+163571784+163326331+163154418+162885537+162622450+162538041+162579733
2615+162456025+162110167+161948601+162130572+162261171+162048790+161678388
2602+161438819+161381167+161370101+161264027+161024584+160718204+160544060
2588+160609666+160668181+160501919+160272750+160167972+160079479+159874602
2575+159677876+159628537+159638109+159572612+159427654+159227293+158955929
2561+158651222+158366777+158095808+157856743+157726036+157737246+157748816
2548+157628420+157451235+157258756+157078512+156989335+156956370+156909370
2534+156764718+156583809+156576629+156648263+156551870+156351545+156252022
2521+156255170+156264869+156244428+156115953+155888403+155763922+155847989
2507+155977832+155958939+155847162+155832083+155924607+156012992+156078490
2494+156111508+156130923+156308126+156674695+157003388+157232053+157525369
2480+157824048+157893414+157737984+157541816+157459440+157502553+157524344
2467+157492603+157527259+157641141+157771291+157888160+157985506+158102898
2453+158230924+158356106+158566220+158816081+158972375+159119097+159382957
2440+159692774+159924696+160018138+160025929+160112317+160279462+160387226
2426+160433866+160516134+160707516+160949730+161101328+161145880+161165655
2413+161251774+161459710+161726108+161986424+162274090+162523934+162638140
2399+162768128+163244243+164500443+167437352+173843858+186129454+206309659
2386+234818520+270010235+309114878+350150560+393051549+438855907+488000989
2372+539560802+591320849+639930761+682290209+714433292+733415651+741296784
2359+736695198+711529024+667963920+616785864+569888528+544866412+552525933
2345+585597891+609884601+605570484+591206193+580635602+576427468+577668176
2332+580326937+578700767+571980449+563571380+554089017+541355825+524852937
2318+504327431+482676774+469450409+467730131+465599092+450500978+423130385
2305+393862313+372120607+357598582+344603365+330867273+315749725+298374768
2291+280413952+264251938+250075177+237557192+227475888+220338762+215439578
2278+211619282+208215542+205083941+202269192+199949667+198058791+196258675
2264+194512918+193022943+191723756+190332189+188780765+187320624+186133574
2251+185116098+184148140+183184267+182244218+181450369+180818193+180252577
2237+179716722+179238807+178853452+178558300+178329329+178165928+178081447
2224+178015338+177918873+177831801+177732332+177571323+177412564+177354444
2210+177437504+177676497+177978397+178184300+178261583+178232541+178190651
2197+178290931+178493091+178645300+178719237+178785328+178919525+179113516
2183+179292914+179461516+179624954+179705188+179702849+179692034+179747455
2170+179945621+180198685+180309401+180332343+180446712+180586721+180661413
2156+180771535+180959085+181091249+181101559+181135370+181285600+181446680
2143+181546617+181635327+181758980+181886844+182017965+182248969+182519451
2129+182641971+182720496+182983565+183376387+183703442+183885917+184009678
2116+184209589+184500261+184800343+185087956+185396495+185724162+186075670
2102+186473009+186914828+187388622+187939772+188650202+189451465+190247708
2089+191099210+192090559+193303880+194774494+196452216+198295715+200186519
2075+201979438+203767912+205729450+207799922+209841083+211934677+214247292
2062+216761257+219411885+222202954+225010074+227681449+230226453+232692753
2048+235063092+237285827+239282651+241043397+242690511+244226857+245524820
2035+246541325+247254850+247640979+247723246+247592377+247270846+246689126
2021+245848510+244760048+243649850+242772293+241797372+240415180+238905286
2008+237565145+236316808+234985952+233622186+232442981+231549932+230621579
1994+229280160+228064410+227769906+228026857+228136116+228011419+227843537
1981+227785093+227867343+228090106+228401254+228762623+229025368+228945062
1967+229040843+230049772+231471443+232593769+233561529+234581704+235656167
1954+236817593+237959101+238941903+239780845+240339840+240677277+241868160
1940+244228404+246376735+247739674+248737861+249603938+250404499+251138484
1927+251443190+251017997+250648189+250687272+250573047+251113436+252500361
1913+253105420+252627343+252238839+252503816+252979553+253313554+253539808
1900+253608112+253284422+252831501+252832058+252768612+252639795+253731981
1886+255492205+256772301+257835967+258861343+259728517+260460414+261009206
1873+260564400+258393846+256737033+258545696+261771909+263530927+263902318
1859+263886520+263911387+263851576+263545142+262861972+261485502+259027227
1846+255801518+254564986+256441647+257813043+257340346+256477383+255261795
1832+252279613+248747848+247642004+247871569+248229951+249355048+250032334
1819+249596327+248855883+247796517+245903985+244274558+244368953+245144359
1805+244828353+243023756+241003559+240699949+241473916+240683251+238163708
1792+237964409+241609571+244595459+245191881+244905546+244522350+244698438
1778+245593448+244960175+241536426+238749280+240913896+245570884+249149649
1765+250085812+249060256+249176424+250459452+251523119+252472561+251477793
1751+248418796+247405584+249895293+252803790+254195573+254390536+255159050
1738+255908149+253817110+252299586+256527837+261937254+266101230+268637454
1724+269461929+268899551+265361578+259747105+259313131+265785638+272332747
1711+275813608+275697962+273533454+272408825+271037500+267641624+267260300
1697+271541128+278757876+286459323+289971331+290110153+287821434+282606656
1684+282250649+291117427+298585098+300844415+300568894+301698202+302965504
1670+304049881+309746496+316584241+319298891+321538001+326929586+331293401
1657+330061691+323560574+323794565+334635314+339686637+343003358+353611808
1643+364811569+370859855+372048344+370034264+373048726+385100241+394918980
1630+399277469+401947279+404645374+407546475+412467055+416338777+416103202
1616+417339339+423257637+427725062+429191411+430414700+432777715+435412473
1603+438284460+442087338+446412467+450434365+454607807+459848711+465698885
1589+471506846+477493485+484085687+491479403+498974065+504053458+506378110
1576+512470337+522949627+529879392+535182519+544487031+555298559+563852442
1562+566977350+564150887+570626129+591919826+610759891+625446199+637388743
1549+648118435+656531607+660971033+662710312+667585403+685632446+705669673
1535+717077874+726680147+739569021+749931351+756021239+761409369+766879766
1522+774388139+786301821+799169966+812073091+824122590+831965216+834159305
1508+833578394+844084603+866187516+880456081+885498658+887293286+892764475
1495+901979954+908112306+910319424+914333332+923186776+931792194+937614910
1481+942824469+947326082+948045257+945361737+945174385+951164659+957911895
1468+960630180+960734831+961751912+963001472+959545946+950362424+949173755
1454+957479684+960747643+959228968+956915615+954666681+952907681+950187237
1441+944417495+936741132+930782527+928747359+926682968+921228621+916157398
1427+915005436+915838404+917918629+919990649+921883523+926765452+932962510
1414+937596916+940026868+940867682+943216518+948116872+952527220+954871450
1400+957376760+962325698+967904058+972189241+976631905+979656372+978782234
1387+976008025+974227288+973573394+975324045+980043022+984763079+988310445
1373+991482533+993095567+992783915+992154996+991756038+991287480+992308735
1360+994752579+995785925+994849313+992750159+991015702+991265528+990930771
1346+987875643+984696502+981224926+975515715+970893760+969104675+966962911
1333+965308491+966224374+967554403+967601546+967427079+968336700+969639378
1319+970357402+971365845+973228921+976312192+979965289+982594469+985403946
1306+989327526+991810163+991926403+992036525+993702605+996858643+999374677
1292+999827473+1001595973+1006300052+1011028889+1015820201+1022802796
1281+1030080129+1034572600+1037471758+1040750441+1043341474+1044899663
1269+1046173983+1046395234+1047104261+1051333735+1056577267+1058526642
1258+1057952712+1057519997+1058785752+1061510730+1063971776+1065802391
1246+1068411345+1071871549+1073380292+1072730788+1072809745+1073109450
1234+1073281110+1073741823+1072469159+1070928171+1071696002+1072855089
1223+1071961086+1068967281+1065729120+1064122564+1063919738+1064036481
1211+1064236140+1063854672+1062403366+1060920174+1059735032+1058652022
1200+1058130706+1057301625+1055072051+1052754021+1051590759+1050740013
1188+1049915034+1050795074+1053877696+1056219767+1055055785+1051307680
1177+1047162273+1043677957+1041345100+1039680459+1037834009+1036890991
1165+1037394601+1037349545+1036056943+1034329828+1032360517+1031131038
1153+1030689039+1028500203+1024162622+1021163779+1021586776+1022949409
1142+1022261543+1019361737+1015741820+1014065592+1015018830+1016155605
1130+1015848560+1014413304+1013024184+1011929082+1010984625+1010460934
1119+1009474011+1008283686+1007817719+1006441627+1003194469+999396845+996516185
1105+996707999+999876560+1002228419+1002578578+1002118513+1001452023+1003684188
1092+1009577295+1012664668+1011204221+1011726112+1015105848+1016843832
1080+1015569872+1013923009+1015913625+1021842864+1028038123+1031771760
1069+1032397944+1030878909+1031140466+1034816452+1038312068+1040515083
1057+1041990357+1042207434+1041195175+1038198995+1036050466+1038679501
1045+1042480723+1042243637+1041540296+1043735609+1042880113+1038356908
1034+1036569694+1036354560+1034532654+1032127389+1030041982+1029194763
1022+1029951869+1030739133+1029494107+1027277777+1028252609+1031663726
1011+1032952800+1031772768+1029138191+1026413572+1025665823+1026570046
999+1029123004+1033094231+1035852318+1036881418+1037859200+1039253503
988+1041163506+1042882344+1043201914+1042780715+1042153812+1042404502
976+1045264793+1048036915+1047394249+1045888026+1047559072+1051153438
964+1052480083+1052213559+1053336731+1055500735+1057897651+1059810102
953+1059240347+1057030854+1056495216+1057647537+1058226145+1057869437
941+1057034165+1055759486+1055049523+1056105038+1058763584+1060672076
930+1058446389+1054967112+1057024089+1062564086+1063215605+1058800363
918+1055999811+1055834052+1055016055+1052992834+1050576485+1049815348
907+1052752797+1056163050+1056082006+1054597160+1053534231+1052062700
895+1052166848+1055087454+1056672418+1052922298+1046397609+1041696986
883+1039857302+1039897176+1040051131+1040011329+1040567049+1041463355
872+1041764571+1038711962+1032044474+1025719300+1022418881+1023189015
860+1025947029+1025775225+1022477900+1018952271+1015735631+1014240851
849+1015320694+1017515863+1020413222+1022272627+1020444819+1015746643
837+1012265782+1013079461+1015292624+1014901727+1012984597+1011079704
826+1009780913+1011661047+1016954313+1021621396+1023492174+1022577946
814+1017554010+1009327325+1003349359+1002535105+1003551106+1004096461
802+1004951958+1005567849+1004456769+1001746473+1001710198+1006189282
791+1007439994+1001179309+994325766+991208451+988978086+986079720+984815693
777+983900745+980135582+976740300+975686368+973579728+971495472+971844192
764+970272687+964761696+960184870+958019138+957178469+957409797+955614665
750+951323796+948326104+946608346+942897596+937275619+932650498+930027652
737+929126955+929233839+928261239+924736185+919157969+914072494+912303490
723+912383022+909531368+902203077+893754781+889657812+891473817+894502746
710+897071394+901800736+907271709+910906741+913388731+915745196+917183043
696+917382702+917563864+917839529+917557674+917227884+918068913+920765821
683+923438042+923409755+921996884+921901373+922889735+925620687+931684951
669+936520888+932340789+926079313+922262112+918871292+918476221+921580436
656+923232049+921298941+919768966+920093861+919601336+917366508+912626802
642+905216243+900635818+903650928+907497999+907391404+908265254+907295677
629+903441409+902574252+902269078+898412507+890958331+884454659+886975515
615+893746143+892655864+890506111+897944740+905635210+901993845+891837147
602+881576805+875339585
##END=
