##TITLE=Sample description
##JCAMP-DX=4.24
##DATA TYPE=INFRARED SPECTRUM
##DATE=12/9/2023
##SAMPLING PROCEDURE=Instrument type and / or accessory
##ORIGIN=Default
##XUNITS=1/CM
##YUNITS=ABSORBANCE
##RESOLUTION=4
##FIRSTX=4397.6552
##LASTX=599.8556
##DELTAX=-1.9287962
##MAXY=1.8509141
##MINY=0.30060393
##XFACTOR=1
##YFACTOR=1.7237981e-009
##NPOINTS=1970
##FIRSTY=0.32103431
##XYDATA=(X++(Y..Y))
4398+186236608+185311936+183443454+181622032+181086859+182386541+183808109
4384+183796249+183054042+182288479+181824933+182138551+182778166+183146001
4371+183394441+183596892+184083086+185251028+186123937+185921521+185419299
4357+184975687+184083830+182934629+182395790+182707921+183440982+184230559
4344+184943496+185402616+184934661+183431681+182595821+183687900+185160106
4330+185150632+184498777+184490807+184178901+182861169+182205337+183229160
4317+184418626+184624501+184225027+183614060+183418818+183874048+184204678
4303+184121139+183738106+183093167+182527824+182608494+183503827+184305852
4290+184303224+183960820+183976830+184687726+185854907+186559908+185808746
4276+184123940+182939712+182309640+181986548+182392730+183314999+184283722
4263+184919101+184764540+184518694+184847630+184890108+184186767+183454242
4249+183531696+184038671+183752819+183242507+183792013+184745781+184896574
4236+184569471+184582714+184508165+183929770+183502495+183626110+184133397
4222+185082757+186333235+186458509+184752386+183156444+183029527+183808731
4209+184804045+185383028+185739816+186197553+185903609+185150459+185174715
4195+185525159+185588989+185914173+186219803+185743654+185026810+184685755
4182+184340913+183623171+183106669+183600367+184560878+184682297+183836099
4168+183388787+184146363+184941404+184838449+184370183+184115157+184274697
4155+184607852+184755273+184702940+184401977+183947058+183561934+183449730
4141+183719002+183794831+183262458+182787035+182836671+182990143+183150756
4128+183607369+183921972+183719469+183652890+184058432+184145793+183605934
4114+183476942+184317487+184846834+183577477+181625282+181402949+182667362
4101+183798237+184602769+185044185+184728095+184034194+183587798+183396446
4087+183366225+183519922+183600972+183606193+183700279+183531782+183133709
4074+182981447+182670647+181891858+181338514+181349285+181773845+182303935
4060+182363287+182018671+181815320+181895748+182255112+182558028+182402049
4047+182470962+183105355+183276410+182639354+181743157+181187047+181385418
4033+181868535+182053819+182095865+182061599+181786984+181728064+182238186
4020+182505453+182037999+181762745+182241350+182817342+183249163+183755724
4006+183754220+182833697+181760550+181434051+181708701+181957002+182180338
3993+182598380+182906396+182993445+183272053+183620854+183528065+182896144
3979+182386022+182674329+182911185+182556766+182723360+183357512+183124390
3966+182118150+181906190+182945555+183664318+183039053+182009335+181832488
3952+182834095+184247641+184682816+184018081+183409810+183160766+182816616
3939+182610188+182913865+183394268+183463717+182923841+182404452+182533236
3925+183001744+183115279+183036373+183379918+184101931+184632609+184046711
3912+182307566+181132276+180979426+180734427+180672724+181444563+182528948
3898+183154974+182456439+180733044+180221003+181524662+181843985+181390397
3885+181982554+182060993+181731176+182185732+181510070+179839786+178585089
3871+177962262+179158886+180483308+180469339+181316090+182842220+182637677
3858+179799313+175114268+174384648+179803653+182577322+181672273+179930016
3844+179118828+178788630+178129202+178667280+180497986+180994813+180543127
3831+180837607+181466087+181491588+180030637+177524649+177982438+180659723
3817+181519631+182331735+183396204+182891735+181239449+180619353+181134576
3804+180218842+180046283+182056447+182866148+183426286+184502598+184562503
3790+184049909+183803216+183725105+183798825+183885856+184245894+185341345
3777+186173954+185950669+185092404+184943115+186308996+187803177+188916676
3763+189263731+188668738+189345991+191407571+192025263+190659089+191153651
3750+196293356+200201064+202334133+207572245+212910753+215188892+216795156
3736+219465560+222249741+226061168+230725968+233619241+234661632+235629301
3723+237007889+238613478+240636850+243036356+245394802+249494277+258416277
3709+269211946+278434372+286507339+295402749+307063668+318918775+327728087
3696+333741323+337073419+336701538+334066386+332743105+331522173+327561527
3682+321406696+314580438+307277668+300855691+298225484+295898106+292465355
3669+292136281+292848508+292010384+291554272+291943027+291540614+291046190
3655+291745348+291050201+289132982+291270080+296516525+299665603+301200118
3642+302624296+304121745+305509063+306933657+308075372+308253688+308478995
3628+311089458+313699576+313626030+311025801+307949821+307436863+308032426
3615+307613969+307936819+309927792+312784344+315625855+317313652+317971628
3601+318646857+319590477+320343334+320943979+321454171+321496321+321589507
3588+322645193+323659766+323684282+323179070+322509476+321910767+321563781
3574+321567101+321981685+322674273+323606448+324588172+324724719+324112420
3561+323683486+323557832+323618826+323776846+323746625+323986904+324907115
3547+325948175+326309129+325860210+325072880+324546818+324405396+323924734
3534+322931737+322278775+322637067+323937424+325276472+325619308+324893630
3520+323894720+323252166+323274365+323742960+323733140+322949095+322101358
3507+321747595+321748149+321554342+321043390+320512003+320231095+320256371
3493+319939468+319103903+318769746+319067320+319058122+318698793+318529086
3480+318797650+319170706+318878181+318027643+317550439+317804169+318222557
3466+317878199+316642848+315520497+315254077+315414482+315460782+315174826
3453+314381583+313607116+313347093+313338483+313430563+313589067+313678726
3439+313497817+312889944+312255377+311947638+311779107+311723990+311649787
3426+310965498+309856943+309577280+310394070+310939288+310646451+310307799
3412+310209150+310100438+309981215+309804005+309651518+309793805+309959120
3399+309841487+309727934+309723301+309478043+308869098+308377752+308351577
3385+308477508+308364405+308199539+308657449+309427905+309265287+308219007
3372+307611376+308135606+309032581+309219092+308745760+308307283+308248882
3358+308489264+308658660+308584802+308737185+309164425+309052636+308619449
3345+308974214+309854834+310312675+310420868+310731720+311267118+311447681
3331+311092398+310610214+310042901+309395161+309186554+309725307+310390059
3318+310549669+310344970+309712928+308731826+308191621+308249850+308068871
3304+306991298+305725346+305718188+306728543+307402839+307766007+308359287
3291+309315874+310475777+310937559+310592476+310773109+311798816+312460180
3277+312358107+312272009+312430616+312527226+312586423+312637770+312721586
3264+312864391+312624250+312275398+312531617+312877219+312734414+312316061
3250+312224223+312718612+312641850+311351902+310425086+310679438+310860175
3237+310503197+310247012+310331658+310813565+311359509+311375760+310890188
3223+310392895+310114961+310089754+310335012+310553196+310367826+309985399
3210+309959638+309881009+308936559+307717218+307272689+307254951+306916541
3196+306745382+307146378+307105576+305672995+303945123+303491673+303797580
3183+303526908+302519803+301830777+301830051+301520306+300366627+298919731
3169+298430459+299029377+298827340+297345867+296888821+297880366+297743024
3156+295832271+294323965+294659990+295220941+293867992+291715853+291638572
3142+293856858+294490560+291755721+288930272+288940749+290537866+289945917
3129+287054096+285653586+287613698+289434602+286980014+282832113+282166185
3115+284898050+285207328+280967486+277442326+278385203+280900596+279015361
3102+273538526+270642452+272297141+274288339+271492886+266587063+265937265
3088+270325808+273178055+269353298+263857480+262394955+264285325+264830180
3075+261673651+258543729+258972024+262003469+262845829+259847008+257071851
3061+257293614+259530779+259979612+257605123+255747118+255875176+256416573
3047+255612006+254041063+253267979+253394879+253617714+253247216+252268534
3034+251279358+250885468+250937369+250645656+249835349+249289094+251648974
3020+263069943+283610211+296736922+290439701+275895795+264735766+257910079
3007+253243084+250000094+248217589+247237524+246056062+244410830+242961824
2993+242478846+243658527+245501992+245649966+244486329+244255075+245957499
2980+248174591+247693514+244832589+243135888+243797200+245752713+246487088
2966+244644522+242577565+242811222+245736877+247958257+245790904+241954219
2953+240403417+241959699+244735357+244612486+241611676+239511387+240098219
2939+242783871+243854668+241164970+238196145+237853049+240121783+242325131
2926+240980481+237690103+235954934+236561735+238265421+237975039+235156419
2912+233008913+233353357+235400311+236562375+235239889+233212696+232412347
2899+233213906+234859916+235144887+233504945+232015899+231917405+232841800
2885+233515162+233002447+232095756+231894100+232598755+233404221+233116380
2872+232128708+231671663+231852399+232375298+232703663+232130299+231200786
2858+230937668+231269734+231279415+230371427+229112979+228197643+227690270
2845+227728253+228158294+228315725+228090401+228051345+228372259+228738764
2831+229035076+229226168+229219287+229052295+228779064+228423330+228096158
2818+227957226+227959681+227815596+227417142+227029459+226951556+227168599
2804+227430593+227644057+227877715+228002003+227843759+227484050+227160767
2791+227103005+227169412+227011047+226767379+226692916+226633149+226456492
2777+226299856+226271416+226200602+225963020+225773587+225726942+225615308
2764+225430197+225378936+225466106+225634689+225828046+225820439+225614081
2750+225502516+225538771+225513650+225400150+225380043+225410851+225238845
2737+224967775+224992550+225214468+225198217+225000987+224965666+225088330
2723+225125310+225010478+224873569+224826370+224896182+225102040+225411837
2710+225548781+225297835+224978805+224947219+224991564+224869177+224737281
2696+224751043+224900712+225071456+225123478+225068102+224995610+224949795
2683+224909823+224825212+224696532+224550961+224373941+224154235+223920647
2669+223723918+223603001+223552587+223551515+223453712+223178216+222973621
2656+222901233+222723522+222444879+222271386+222239368+222171492+222018573
2642+221948692+221943038+221779089+221480633+221263798+221115529+220892072
2629+220637668+220461202+220309458+220097412+219838945+219584939+219383144
2615+219229741+219057701+218794479+218485789+218255451+218105471+217960989
2602+217806929+217724064+217750844+217732414+217521941+217205712+216932031
2588+216639056+216275957+216071345+216135296+216243593+216234257+216119598
2575+215969151+215828161+215600918+215327099+215194840+215132168+214953022
2561+214612606+214243491+214045380+213980944+213882278+213733577+213536433
2548+213273160+213071625+212961945+212823722+212750314+212825260+212871421
2534+212820921+212711552+212474904+212236232+212146538+212020400+211813211
2521+211746200+211806711+211754101+211591206+211517159+211442074+211305855
2507+211280355+211264276+211098408+210936585+210945610+211039263+211029633
2494+210960184+211038312+211221746+211321363+211372573+211460175+211557545
2480+211675472+211837312+212012793+212135923+212159557+212099202+211988346
2467+211907919+211952887+212040783+212093012+212207723+212350909+212428985
2453+212495737+212554501+212587886+212652338+212781520+212971627+213154006
2440+213254506+213339722+213484308+213673810+213842686+213890922+213901364
2426+213992632+214039726+214010768+214084884+214254159+214350647+214428827
2413+214580622+214679047+214713797+214873027+215153347+215374954+215533890
2399+215740940+216242694+217698113+221149173+228056947+240039299+257899395
2386+280984274+307487174+335276184+362935183+390343806+418368705+448152077
2372+479980397+512643869+543919537+572000381+594389388+607771299+613026596
2359+610275056+594559163+567908756+538533778+511980257+496827908+501257011
2345+520198847+529276826+520285982+508600167+500160904+496127783+498642398
2332+504039359+504335585+499337406+496079720+496162810+493784292+484971557
2318+470819017+456416102+450622017+454888363+457600174+448865445+430074367
2305+408606955+392214553+382125424+373764859+364350371+353204623+339637307
2291+325157733+312174466+300839094+290608577+281895166+274921954+269358122
2278+264722696+260551680+256685378+253282485+250423893+247924198+245671629
2264+243678461+241857332+240216941+238882612+237741018+236581323+235441389
2251+234365527+233318244+232402614+231692841+231115760+230560048+229986165
2237+229481333+229069982+228712519+228461037+228283862+228130061+228088551
2224+228143667+228188929+228234451+228305836+228389133+228512350+228674484
2210+228810391+228895504+229021175+229283394+229564544+229715665+229828024
2197+230057412+230386797+230708990+231005354+231243282+231368228+231464924
2183+231651141+231895846+232063478+232112163+232108601+232106406+232120375
2170+232178534+232267277+232273432+232174748+232002310+231730842+231477008
2156+231368954+231284256+231109467+230916645+230723979+230443193+230153502
2143+230180179+230518433+230814901+231102396+231521665+231940105+232308822
2129+232680876+233023954+233312192+233611184+233954055+234322824+234683900
2116+235024073+235329220+235554890+235733794+235893490+236048311+236207471
2102+236401226+236728727+237179652+237671172+238152456+238662993+239259524
2089+239897185+240538460+241222766+242052488+243070519+244261662+245562278
2075+246999025+248774892+250815518+252827963+254891947+257381769+260237578
2062+263140014+266142517+269365573+272855274+276513281+280193019+283952441
2048+287763575+291496908+295036227+298286513+301128992+303631228+305980804
2035+307993146+309491217+310530824+311185826+311505495+311516836+311273238
2021+310828052+310222255+309216118+307663139+305978661+304424713+302896525
2008+301332550+299689772+297942986+296195196+294519778+292900997+291397463
1994+290127397+289058191+288007588+286910409+285857092+284984839+284273528
1981+283549285+282848537+282313796+281895322+281536355+281345505+281338122
1967+281335944+281281450+281313209+281493687+281735937+282043469+282511113
1954+283077700+283605543+284095316+284599940+285127126+285868779+286953475
1940+288034265+288885234+289646078+290394162+291101307+291761150+292369783
1927+292929869+293521491+294097898+294450865+294750825+295334320+295925042
1913+296224898+296427557+296651412+296862681+297089440+297331379+297500152
1900+297577259+297675079+297914528+298255186+298428316+298520223+298902961
1886+299380062+299636661+299887729+300367699+300742035+300749538+300723052
1873+300768660+300616934+300439966+300727824+301282170+301649211+301699141
1859+301408689+300889508+300378625+300026730+299887694+299845509+299400739
1846+298464933+297988006+298018710+297649354+297105830+296872535+296583018
1832+295488778+293918544+293338610+293739605+293989048+293707103+293331453
1819+293304932+293219802+292577559+291659699+291020050+290932638+290956323
1805+290930114+291212992+291281179+290806222+290503600+290098075+289463595
1792+289844587+291015278+291834212+292482263+292814000+292684300+292818668
1778+293193557+292954627+291919757+291463818+293196082+295580374+296654662
1765+296574235+296646744+297590745+298633637+299325429+299903323+300369186
1751+300680902+300993621+301759271+302926884+303738799+303932640+304390274
1738+305090399+305278846+306425782+309075146+311010311+312165234+313080466
1724+314006002+314562216+314082107+313567006+315213311+318097524+320196898
1711+321440236+321872558+322144476+323166449+323768478+323525882+324571229
1697+327011744+330284194+333477981+335429224+336838742+337235449+336556520
1684+338700118+343863128+347321259+348612211+349461676+351239514+352973714
1670+355076165+359306446+363293199+365446928+367944911+371880765+375310405
1657+376740738+376700835+379886288+385836213+388930866+392219291+398216794
1643+403566661+406953632+408666947+409246847+411883209+417325225+421284799
1630+423419787+425242679+427077707+429112386+431993730+434150641+434856955
1616+436750247+440390844+443383216+445567235+447711940+450294568+453303123
1603+456608906+460142243+463833773+467627444+471650330+476017123+480518700
1589+485094515+489960850+495500339+501880028+508428594+513707542+517907292
1576+523962055+530944914+536077669+541934822+550300539+558593678+565782827
1562+571012675+574822148+584145386+598056194+610029902+621117180+631723347
1549+641830837+650739179+658560888+665320722+672729714+685418761+698272535
1535+708426635+719397664+731157406+740820022+749434247+758007464+765914026
1522+775097744+785816357+796123359+806961748+817934022+827747119+835806306
1508+841500116+849407854+862833886+874839128+883337864+889077731+894784196
1495+902038211+908456834+913706599+919392110+925590958+930995976+935894572
1481+941085278+946324947+951131082+954299419+954695401+954653424+957143350
1468+959692128+959935069+959557206+960252007+960646674+958864826+956546750
1454+957174608+959355343+960189629+958433160+957143004+956427527+953234294
1441+948222560+942719895+936592000+932391179+930790793+927678402+922223524
1427+917599612+915624890+916615674+919103941+921958591+926778419+933416471
1414+939590769+944556791+947905070+949101521+950060839+953348399+958097551
1400+962185512+965732888+968519766+970143387+971729043+972904885+972773352
1387+971728213+971572960+972624877+973828451+976358349+981415448+987161953
1373+989762597+988926858+988691316+990839548+992939993+992777064+992178804
1360+993163986+994551443+994275169+991843056+989814186+990361272+991230481
1346+988605772+983989812+980715530+977796773+973660819+970065173+969130543
1333+969740559+970665784+971351249+969108690+964855241+963926074+968005529
1319+973041743+975658431+977778309+981071332+984141400+986183824+988285169
1306+991258765+993724764+994734981+996486401+1000239720+1003068990+1002682552
1292+1001570539+1003282334+1007878376+1013651091+1019967296+1025868155
1281+1030377339+1034239785+1038137154+1041070434+1043297848+1046551107
1269+1049252233+1049473806+1049822139+1052310060+1053758927+1052019402
1258+1050987471+1053423249+1058092388+1062598737+1063876030+1061250421
1246+1057992321+1057616740+1060068977+1063627832+1067427901+1069901299
1234+1070307792+1068915702+1066034842+1063801066+1063757636+1065050835
1223+1066386703+1066626809+1065217361+1062983792+1061069028+1060567377
1211+1061866800+1062848732+1061192400+1059281094+1061318816+1064684244
1200+1063747263+1060005977+1058133535+1059301633+1060921797+1060839779
1188+1060502994+1059911027+1056785427+1052580526+1050304427+1049118418
1177+1047093836+1045473672+1046538867+1047863808+1045306801+1041870834
1165+1041523192+1042574348+1042879875+1041463442+1039355043+1039857593
1153+1042584998+1042144757+1036639395+1031915485+1031813758+1032889741
1142+1031397652+1027785616+1025089400+1024875158+1025513805+1026271260
1130+1026631903+1024795630+1022656665+1022682114+1021878395+1018472648
1119+1016567842+1017597630+1018265460+1017960486+1018710196+1019964668
1107+1019621659+1018410962+1018664830+1022479213+1028770937+1029606952
1096+1022620290+1017101235+1017772315+1021968296+1028921695+1036815325
1084+1040304680+1039689131+1039182225+1037106468+1031509199+1029450523
1072+1035921358+1044286142+1048174245+1047293901+1043227379+1041341452
1061+1043997696+1046607745+1048424032+1051399012+1050308714+1043537954
1049+1038540951+1039546257+1045008051+1051150607+1054417283+1052588963
1038+1048403978+1046816386+1044538143+1040139123+1040159731+1042742118
1026+1042358722+1041864817+1041821665+1038316404+1032527023+1030388404
1015+1034696346+1038562734+1036874245+1036734068+1041024031+1042477254
1003+1038329405+1033990689+1031904697+1029174526+1026373263+1028173507
991+1035010933+1041320083+1044911995+1048711164+1051336842+1051161188
980+1051949140+1056068290+1060465235+1060623462+1056881000+1053037779
968+1052686540+1056062204+1058377168+1058429795+1059264151+1059368506
957+1057048078+1056822840+1060916679+1063934535+1063932737+1064973174
945+1067713857+1069844523+1069301518+1066635730+1064720205+1064061849
934+1063599686+1063331987+1063980454+1066208836+1068898759+1069738716
922+1068450496+1066508208+1064401193+1062761113+1062445212+1062145149
910+1061462243+1063314560+1068232104+1071070157+1069101106+1067156260
899+1069710224+1073741823+1071274994+1063248102+1058890783+1059726314
887+1062678818+1065479043+1063960330+1058843135+1056117321+1057439081
876+1057485000+1054040596+1052650856+1053571310+1050725235+1045666545
864+1044800310+1046602213+1044876864+1039631733+1035353319+1032989116
853+1031904074+1034215927+1038129271+1038555058+1035465004+1030788327
841+1026201759+1023884997+1025472450+1029693880+1032761043+1033747747
829+1031228430+1026387786+1027242473+1032375227+1032041070+1027423797
818+1024720389+1024537820+1026522984+1030469453+1033859432+1033585371
806+1029907016+1025386283+1020582291+1015678786+1012003127+1010240712
795+1007384264+1002266516+1002333527+1009274408+1013975083+1012515842
783+1008158800+1003919113+1000440685+996570493+993349737+991845477+989862457
770+986833259+983927988+980765875+977719734+976081936+975985741+976529231
756+979799571+985948905+985406245+976734137+968523846+961511942+957721071
743+960447923+962944834+960201662+956073245+951199546+944264888+939476594
729+939774652+940913981+937433271+931322941+927667338+925018147+917841862
716+907183829+901603918+905299908+913930039+921485916+925114895+927885107
702+932550650+934777511+931756335+929025058+930390731+931363604+929548631
689+929318898+932046579+934003735+932955414+931253509+933597795+938621492
675+939562831+938837187+941733607+944287086+940452441+934423299+930312655
662+929719582+934399786+939754667+942147292+943547681+941771434+936437854
648+934533048+938474054+939571544+932368841+925560115+925249402+927573771
635+933335145+938866716+917635434+877365360+861107085+876870487+899273808
621+897932824+876171537+871018520+892018617+916505234+929699043+935736345
608+940782379+937184659+922394682+910090207+907192611
##END=
