##TITLE=Sample description
##JCAMP-DX=4.24
##DATA TYPE=INFRARED SPECTRUM
##DATE=12/9/2023
##SAMPLING PROCEDURE=Instrument type and / or accessory
##ORIGIN=Default
##XUNITS=1/CM
##YUNITS=ABSORBANCE
##RESOLUTION=4
##FIRSTX=4397.6552
##LASTX=599.8556
##DELTAX=-1.9287962
##MAXY=1.7599428
##MINY=0.13883175
##XFACTOR=1
##YFACTOR=1.6390744e-009
##NPOINTS=1970
##FIRSTY=0.15042305
##XYDATA=(X++(Y..Y))
4398+91773166+91778866+91885424+91461401+90640229+90040791+89720617+89870049
4382+90420922+90812489+91358871+92257327+92868774+93160829+93425665+93556406
4367+93541860+93323689+92735279+92111886+91682327+90976095+90170287+90242653
4351+91358398+92857747+93755630+93352463+92528436+92472189+92915103+93140474
4336+92960186+92685577+92652595+92560664+92397577+92920440+93517086+92979787
4321+92576528+93336589+93721847+93198303+92550164+91944626+92092613+93401419
4305+94533465+94315049+93267924+92735152+92789863+92767262+93291797+94415506
4290+94933914+94741044+94479718+94459171+94710716+94833347+94541247+94345213
4274+94659669+95059318+95093119+94793664+94507900+94184135+93605298+93490222
4259+94154298+94633059+94626759+94791782+94956606+94747163+94689179+94638968
4243+94291711+94305939+94654587+94594212+94115660+94202609+95224951+95928710
4228+95649519+95241424+95289844+95447613+95436676+95490923+95520415+95324127
4212+95450413+96412890+97291100+96842931+95840035+95514997+95408893+95169831
4197+95462777+95942547+95808743+95836153+96283685+96056169+95406630+95300817
4182+95750386+96252002+96431708+96539657+96765765+96883632+96963371+97157323
4166+97293291+97019664+96249075+95554362+95555634+96100207+96526948+96441545
4151+96229202+96556158+97172087+97259199+96918561+96972771+97356793+96978699
4135+95676138+94888767+95502542+96569213+96898824+96576395+96444091+96721827
4120+96643479+95957947+95593008+95998631+96674898+96903278+96074824+94961306
4104+94998616+95888927+96835676+97714695+97995250+97527889+97210288+97490788
4089+97611519+97078229+96587877+96587268+96700099+96805402+96935070+96791520
4074+96482410+96386189+96498892+96960862+97709232+98040788+97703277+97056201
4058+96241711+95661074+95938556+96628042+96956744+96912278+96874214+97162123
4043+97584991+98019278+98231485+97679140+96913869+96781556+97019982+97153259
4027+97363039+97798698+97862737+97227261+96582895+96475819+96587741+96725418
4012+96920724+96982181+97244135+97880765+98180147+98158483+98312015+98193247
3996+97698868+97214088+96664570+96669843+97662148+98641089+98850360+98521976
3981+98296769+98268595+97824354+97092839+96928397+97384594+97619347+97432423
3966+97406240+97693868+98073307+98036106+97523298+97329156+97435068+97272717
3950+97139086+97477279+97435823+96646188+96889032+98250867+98777230+97953967
3935+96287749+95571962+97135349+98344425+97191524+96010786+96294067+96058196
3919+95369465+96419635+98610661+99421578+98608206+97189406+94599767+91244276
3904+89979944+91446528+94328322+97339829+97792598+95137666+93478630+95096756
3888+95255725+93968010+94544474+94187581+93932591+95880463+95327072+92770180
3873+91093517+90377939+92288037+93735412+93073281+94564584+97218561+96786420
3858+92040347+84772929+84701309+94296757+99772453+99498590+96507620+93326098
3842+90849200+88963129+90067547+93494567+94822120+95074391+96217647+96929579
3827+96768492+94648650+90246871+89850249+93095227+94717534+97988623+101019039
3811+99633121+95400948+93006733+92991833+90994504+91075271+95471795+97571909
3796+98636744+100541169+101230055+100743949+99836028+99267310+99692814+99390350
3780+98386245+99717233+102057928+101935251+99378741+97500870+98543695+100489895
3765+102085301+102121284+99877520+98974091+100146638+98797085+93855879+91225175
3750+95223396+97176869+96162763+100387055+105027442+103523984+99006701+97142322
3734+100986065+107805242+112555051+113615385+113807101+115594431+118609839
3721+122689980+126966792+129533876+129266931+128474750+133464176+144130777
3707+154695994+162906097+170434887+179322431+186309585+188736955+187926856
3694+184240845+177958877+173390802+173603154+173730849+170382849+164413292
3680+157293315+149311337+143768257+144828482+145472394+144607029+147938756
3667+151641667+152339217+152000579+151462025+149919893+149107848+149719768
3653+146860403+140615100+139975842+147104738+152907354+154740250+154845435
3640+154933020+154672502+153544411+151321420+147408166+144623303+148720345
3626+153807328+153840293+150452819+147303253+147889772+149729105+149970676
3613+150130409+150278486+150417427+152002743+153336440+152760385+151903567
3599+151818427+151551855+151673068+152857207+152909008+151038611+150944854
3586+153857676+155951871+156292409+156050092+155729082+155585314+155751064
3572+155330105+153294439+151357649+152665837+155489220+156877319+157201803
3559+157350771+157151674+156479688+156180933+156371448+155995763+155563149
3545+156297937+157744202+158784272+158890166+158613485+158794891+159027716
3532+158552465+157654035+157022415+156784716+156818899+157082599+157437592
3518+157807113+158085340+157797058+156831954+156262845+156700168+156867755
3505+156231789+156163587+156942612+157395572+157204057+156810426+156426050
3491+156094930+156019164+156117367+155983108+155759701+155885305+156208207
3478+156270554+156036637+155919488+156063875+156207843+156278591+156133731
3464+155793429+155967981+156671913+157003596+156797353+156567273+156544690
3451+156443778+156121804+156103149+156510071+156874628+157201148+157589815
3437+158027157+158604866+159060754+159150811+159043171+158907985+158837019
3424+158927313+159396638+160142425+160506201+160486291+160768609+161310300
3410+161442140+161189332+161229443+161855990+162758820+163388185+163763089
3397+164291124+164764303+165116605+165539565+165710497+165602985+165696624
3383+166174531+166863244+167545975+168039500+168487115+169222575+169948181
3370+170156787+170136441+170519726+171367699+172345695+173191904+173751377
3356+174293449+175242989+176400809+177211908+177424551+177481007+178119519
3343+179150880+179886922+180546507+181638143+182837454+183411473+183344743
3329+183345380+183695446+184109877+184462016+184837356+185295552+185986611
3316+186818547+187224797+187198069+187194578+187247943+187374893+187640229
3302+187971239+188347579+188957726+189999942+191249819+192404074+193458400
3289+194618656+195793712+196431042+196655322+197133592+197894380+198654769
3275+199276152+199716712+199937938+199965357+200098143+200448954+200838003
3262+201304473+201747105+201846691+201804271+201710722+201251417+200834312
3248+200638651+200114107+199536688+199484905+199722331+199637310+199311172
3235+199418284+199653237+199402193+199094419+199157349+199209932+198798282
3221+198201736+197770885+197339035+196978260+196762925+196427442+196034938
3208+195741437+195447755+195033360+194355429+193576494+193007112+192564461
3194+192255088+192042063+191443316+190338062+189108313+188056533+187120284
3181+186181490+185598853+185516232+185587616+185588707+185264642+184680132
3167+184268337+183982237+183667027+183294524+182604356+181957317+182114940
3154+182699250+182800780+182310528+181612814+181057705+180856208+180873081
3140+180751114+180284462+179496382+178749321+178350945+178057917+177633394
3127+177118086+176646435+176351698+176069980+175452578+174315395+172782291
3113+171382445+170662804+170323938+169539040+168108412+166419248+164954527
3100+163920257+163089667+162347679+161694967+160968561+160164826+159513405
3086+159205504+159111319+158861529+158434406+158079267+157679545+156996014
3073+156326374+156081493+156092712+156188842+156542272+157023069+157174074
3059+156845973+156416777+156195479+156159696+156199534+156108676+155873214
3046+155751374+155849177+155925070+155746482+155431327+154985858+154260216
3032+153458044+152852152+152427747+152141438+151924185+151627194+151372949
3019+151350940+151443033+151328575+150794031+150083662+149504407+149108730
3005+148949916+148824094+148428244+147913619+147410502+146903649+146860321
2992+147506169+148332169+149071556+149635356+149802807+149756115+149852518
2978+150122645+150367698+150412554+150181292+149731823+149298327+149050101
2965+148925006+148748637+148405353+148017158+147761750+147609582+147457813
2951+147254243+147057391+147006935+147085010+147135121+147124966+147135393
2938+147122629+146975806+146743099+146426079+145933100+145456075+145204203
2924+144992460+144561619+143860978+143095335+142605046+142477960+142470333
2911+142370420+142302773+142439568+142561445+142426077+142208888+142155604
2897+142280235+142477251+142637183+142774042+142959667+143152264+143316396
2884+143529712+143846441+144191489+144444242+144542791+144469879+144271428
2870+144123323+144197689+144428878+144553664+144395432+144080312+143878833
2857+143832059+143645471+143069216+142324582+141795065+141597341+141611705
2843+141676016+141852112+142163004+142445104+142719422+143006705+143161637
2830+143234194+143415072+143570059+143461801+143291087+143351252+143579205
2816+143721764+143668035+143559686+143491520+143485820+143702564+144079112
2803+144288664+144344966+144486580+144667031+144732033+144809736+145083481
2789+145352508+145389082+145315498+145208658+145044107+145015988+145238604
2776+145477894+145581779+145619235+145590834+145464112+145333298+145297679
2762+145264669+145178557+145143101+145232350+145438247+145616171+145742339
2749+145903981+146006802+146067368+146195445+146381214+146563593+146602912
2735+146469308+146349822+146385214+146475626+146487809+146557411+146819056
2722+147107629+147256397+147244306+147133248+147188150+147532788+147860026
2708+147954520+147926837+147874590+147836043+147906409+148046187+148070124
2695+148042950+148241093+148609269+148770510+148696508+148685935+148784774
2681+148855340+148805848+148666061+148583340+148554294+148491301+148499238
2668+148631960+148660943+148476173+148291731+148213465+148085979+147845344
2654+147630891+147503278+147403811+147347128+147341973+147300617+147144257
2641+146895867+146660869+146506591+146413070+146270265+145982029+145684555
2627+145532078+145416319+145237132+145075999+144970378+144807036+144548218
2614+144351066+144299174+144256809+144086949+143822713+143543531+143284123
2600+143116535+143087616+143121299+143116963+143096262+143156000+143215975
2587+143032951+142658693+142462869+142519525+142538180+142356656+142131185
2573+142035018+141946761+141739191+141533020+141407925+141245420+140970638
2560+140692057+140453531+140184667+139932886+139806210+139755572+139694851
2546+139652259+139583675+139414724+139191344+139029039+138951945+138803668
2533+138597661+138484967+138447447+138437592+138356353+138154001+138012379
2519+138072717+138247841+138301097+138078935+137766052+137706614+137919930
2506+138086863+138021424+137875920+137848737+137930985+138041207+138196966
2492+138422628+138624762+138754384+138905444+139108351+139301630+139435416
2479+139483690+139474199+139494972+139584611+139685997+139759799+139799200
2465+139830356+139897722+139981388+140034326+140071836+140191577+140366446
2451+140484768+140610636+140772696+140932864+141234201+141687589+141997954
2438+142101993+142187305+142295881+142441750+142583945+142641084+142684894
2424+142795316+143015750+143313687+143536176+143640062+143722282+143833550
2411+144002901+144216226+144391104+144581738+144824036+145025816+145233550
2397+145503522+145724929+145849124+145993756+146170580+146190735+145857361
2384+144912903+143070188+140398556+137271282+133921955+130435196+126797950
2370+123042201+119533850+116503216+114006762+112354117+111897293+112930545
2357+115636624+119897326+125533036+131093617+133515741+131480930+127209791
2343+124488439+124117636+124788903+125863102+126944100+127627477+128238643
2330+129545467+131342943+132827710+133984275+135474960+137630275+140009653
2316+141914869+143203747+144383504+145831515+147353437+148663652+149715041
2303+150575087+151384659+152178176+152845206+153408534+153965915+154479223
2289+154892346+155256067+155599496+155895396+156112567+156204806+156226389
2276+156301573+156398340+156461469+156588546+156776261+156944976+157129018
2262+157289714+157379117+157477157+157640835+157823586+157952300+158088086
2249+158269237+158365349+158368877+158375459+158404060+158484444+158602321
2235+158692106+158766817+158888366+159041335+159147557+159218759+159295016
2222+159411583+159626809+159837106+159912691+159905163+159918527+159995275
2208+160095115+160186136+160291685+160415362+160494164+160540038+160727881
2195+161039818+161229152+161241607+161228479+161329155+161529198+161660475
2181+161659675+161680566+161835244+162020614+162109289+162161273+162342061
2168+162633979+162830622+162906461+162957753+162929971+162877223+163004100
2154+163290528+163547754+163679304+163692759+163696068+163793890+163936240
2141+164046116+164104518+164118555+164143937+164227104+164375054+164555151
2127+164681373+164686228+164658500+164769176+164970891+165088950+165121660
2114+165182098+165307339+165417761+165456853+165464089+165488145+165515055
2100+165503345+165493163+165544201+165620749+165703424+165820883+165907304
2087+165909667+165920122+165986634+166063909+166148657+166222096+166257752
2073+166330408+166428412+166369119+166153639+166040381+166110401+166209786
2060+166351173+166558325+166657837+166626091+166603545+166669183+166760586
2046+166751913+166671019+166646382+166755386+166961629+167168090+167320186
2033+167411189+167496465+167585031+167616850+167602904+167613123+167626778
2019+167556703+167569431+167892059+168288018+168468769+168559245+168682503
2006+168744687+168759087+168852981+169009750+169141136+169130063+168877382
1992+168755505+169133245+169658080+170036693+170335357+170591874+170783971
1979+170890775+170988869+171116928+171243823+171255096+171073908+171084945
1965+171609289+172260474+172688888+172973515+173165794+173342309+173636428
1952+173958911+174134862+174111480+173863599+173531952+173785378+174763664
1938+175577582+175910265+176074653+176273350+176603652+176984755+177084522
1925+176781603+176625670+176744092+176798040+177357694+178478003+179162207
1911+179222519+179310685+179855903+180611509+181200037+181590614+181820476
1898+181796930+181767001+182028719+182072993+181978935+182691777+183795104
1884+184557292+185169766+185695311+186093469+186473191+186745145+186298530
1871+184845301+184021202+185575943+187982076+189431960+190114764+190668545
1857+191241328+191756908+192234469+192619627+192624936+191920113+190868988
1844+191460735+193950179+195770875+196495444+197172593+197634335+196931931
1830+196008973+196715087+198169098+199716949+201680085+203226735+204111255
1817+204852425+205323349+205166944+205167089+206282398+207811739+208616492
1803+208440123+208090621+208781971+210042830+210151742+209259895+210178580
1790+213425649+215880365+216793249+217258573+217713206+218550106+219648197
1776+219523447+217732716+216736720+218976320+222499126+225158921+226118953
1763+226017113+226760119+228030069+229110323+230125483+229825018+228338206
1749+228260622+230311725+232547598+233752255+234213288+235221012+236108786
1736+235061734+234923512+238588794+242473321+245461854+247442500+248357185
1722+248302947+246210915+243147906+243971878+248946004+253452023+255879084
1709+256050380+255094476+255011183+254668917+253197578+253975113+257414352
1695+262684051+268049189+270405138+270797842+269732734+266910097+267731124
1682+274191152+279227225+280992646+281498735+283061677+284292753+285408517
1668+289957646+295012338+297155153+299193820+303290316+306491493+305927220
1655+302184899+303802933+311808648+315001152+317555126+325336470+332971918
1641+337006231+337762946+336428539+339082153+347850183+354565638+357755015
1628+360143783+362722922+365823132+370441718+374046417+375358569+378793190
1614+385159324+390026791+393326971+396922579+401339923+405883961+410604515
1601+415985199+421740295+427497828+433506678+439959397+446583467+453275648
1587+460228092+467837576+476327052+484987334+491800828+496925067+505073987
1574+515037147+521663290+528395618+538854903+549612926+558478160+563511632
1560+564732254+574069066+592844550+608312907+621208345+633092149+644294986
1547+653344444+660086700+665299597+671541618+686669019+703731464+715247912
1533+725562283+737385504+747577399+755712791+762602761+768046210+775388267
1520+787050246+799754878+812327650+823641618+831740936+836315776+838827057
1506+848049248+865499270+878240193+884504833+888036657+893982305+901956601
1493+906985128+909171526+912702187+920149483+928444808+935022403+939714556
1479+942552466+943698685+943799416+945041711+949254721+954178226+956919261
1466+958422291+961084851+962386057+958462438+950255190+949199955+956099961
1452+958457274+955623800+952176925+950527780+949057260+945723551+940594294
1439+933848911+927591471+925529658+924458496+920636045+916026295+913076235
1425+912122022+913252386+915172812+917978504+924143359+932180565+937684744
1412+939414401+941325299+945047529+947339895+949191737+953429765+957595065
1398+960575525+964967522+970954408+975823875+977371562+975030613+972163393
1385+973204372+975235493+975512884+977252576+980912695+984005887+987569566
1371+991587952+992935050+991700828+989898006+988208133+988099475+989776547
1358+990837527+990481225+990532499+990295691+987355378+984942281+986019989
1344+986654482+982813630+975162036+967381128+963275031+962573772+962569844
1331+962702722+963080334+963706100+964663076+964595874+964256008+965715329
1317+968681970+972068917+974953374+977201811+979524796+981722685+982847740
1304+983618602+985433715+987772846+990748361+994098433+995696231+996245849
1290+998021761+1002012218+1008205656+1015349015+1021711331+1025823756
1279+1028964440+1033417748+1037861238+1040065601+1041003740+1042949113
1267+1045616399+1047352383+1048076916+1048867269+1050290588+1052091883
1256+1054341629+1056337912+1057708138+1059575253+1061008827+1061774816
1244+1064229077+1067255067+1068468052+1069552523+1071984239+1073741823
1233+1072287376+1068011819+1064889462+1065986734+1068703986+1069143128
1221+1068109640+1066956802+1065431662+1065021612+1066666538+1068259317
1209+1067588968+1064714039+1061098139+1058151280+1056044448+1055159255
1198+1056514936+1057644136+1055266459+1050966101+1048067025+1047465623
1186+1047056664+1045410284+1044156934+1043613352+1042431205+1040647947
1175+1038610644+1036638726+1035085802+1033235633+1030685078+1028244053
1163+1026081146+1024194903+1023279237+1022545322+1021235316+1020587222
1151+1021037055+1021289499+1019262961+1014288253+1009203724+1007144385
1140+1007705276+1008616651+1008163618+1005207740+1002429686+1003561286
1128+1005133410+1002397830+998098054+995908019+995254980+995142467+994619759
1115+992396778+990707123+992394378+994277057+991771230+987177117+984953772
1101+986110101+989543231+993506996+996660553+996676626+993894208+993529397
1088+997761316+1003581069+1007318209+1009326201+1012045417+1014248034
1076+1015264576+1018096595+1023082212+1027129326+1028454460+1027713199
1065+1027390861+1028797307+1031533105+1034270940+1033803288+1030897884
1053+1027636251+1023943113+1024343489+1031075490+1037009210+1035585455
1042+1029956399+1026972011+1028308346+1030971996+1031316880+1028202088
1030+1024181666+1023022283+1025189553+1026212568+1023421350+1020846358
1018+1021387393+1021274517+1019246015+1020300158+1024519204+1025770227
1007+1022300587+1019721012+1022202693+1026771496+1029916325+1031111346
995+1029881706+1029238340+1032843475+1036811459+1035785971+1032822311
984+1033063264+1035770188+1038316526+1040395430+1042286546+1043981146
972+1046209291+1048215757+1047931747+1047030482+1047422858+1047983604
961+1049141605+1050797295+1050746093+1049659731+1049070766+1048283904
949+1048739192+1051858857+1054679676+1056240018+1057600207+1056499881
937+1051877621+1046644069+1044198099+1045319517+1048006368+1050629726
926+1052051009+1050704783+1048806321+1049187497+1049348884+1048052770
914+1046583558+1044814555+1043608334+1042900747+1042072139+1041552122
903+1041739837+1044876084+1049519508+1049386777+1046494028+1047626210
891+1049058548+1044912376+1040192878+1039006148+1037800000+1036502939
880+1036354353+1033011044+1027466646+1025099369+1024649899+1023748270
868+1022082107+1019690902+1017554541+1015035987+1013042977+1012915554
856+1011195280+1007335882+1005196758+1004752452+1004858201+1005954019
845+1007513633+1008096998+1005383746+1001054296+1000550498+1003066579
833+1003380117+1002040219+1001753446+1001717663+1002438632+1004075703
822+1004169088+1003363244+1003845805+1004681177+1003727110+1001952143
810+1000969493+999466171+996984200+994895914+993698275+992109860+989886733
797+989783093+992086804+992391469+988424358+984305242+983520417+983172405
783+980191217+976212179+973539801+971821054+968726845+963744355+960071000
770+960207368+962489115+962265107+956907188+950889319+949640042+949718008
756+943395476+933710361+930573313+932812004+932088490+928261238+925416127
743+924598210+924626429+922341846+918455392+916653370+915224814+912733606
729+911035660+907602239+899815077+891269999+885546685+882609790+880193566
716+876778982+875481704+877783088+879789626+880531322+881272146+881504809
702+881364659+882843761+887191175+890824966+890160072+887500785+885712145
689+885055106+884440468+883707353+885300496+888610712+891189269+894406319
675+897679007+897535075+889786969+875833351+874274683+886467443+893228681
662+892880378+887812723+881370186+879699295+884235225+890310695+893337339
648+892105590+890385461+893644621+898651693+898711404+893787753+886563082
635+882959620+884527452+878444200+864283376+862504845+871423463+867526609
621+851848353+841605911+843454480+853126795+859269031+855485344+848516900
608+850695516+861810277+869113133+868886798+868502204
##END=
