##TITLE=Sample description
##JCAMP-DX=4.24
##DATA TYPE=INFRARED SPECTRUM
##DATE=12/9/2023
##SAMPLING PROCEDURE=Instrument type and / or accessory
##ORIGIN=Default
##XUNITS=1/CM
##YUNITS=ABSORBANCE
##RESOLUTION=4
##FIRSTX=4397.6552
##LASTX=599.8556
##DELTAX=-1.9287962
##MAXY=1.7783355
##MINY=0.18146521
##XFACTOR=1
##YFACTOR=1.656204e-009
##NPOINTS=1970
##FIRSTY=0.18427576
##XYDATA=(X++(Y..Y))
4398+111263930+111044606+110786198+110296401+109566946+109893948+111274205
4384+112123125+111938125+111544030+111906869+112827199+113425403+113448184
4371+113094946+113188571+113978424+114424027+113955229+113142442+113174589
4357+114014323+114493746+114737102+114920671+114790752+114780441+114297617
4344+113179285+113295070+114489733+114569196+113909227+114348667+115488564
4330+115805328+115221834+114394795+113474546+112666149+112530823+113435417
4317+114709534+115118771+114446511+113428534+113067837+113833992+114914859
4303+115357565+115089728+114746495+114732432+114779308+114899456+115000917
4290+114761799+114518803+114826768+116056547+117503392+117704704+116813947
4276+116005281+115610494+115583826+115781701+115892240+116085941+116337745
4263+116171945+116031976+116397576+116672944+116616837+116571536+116382299
4249+116052849+116119203+116384368+116411216+116335019+116195220+116254089
4236+116737561+117173385+117011849+116120175+115368533+115920887+117235798
4222+117753163+117359383+116924883+116569440+116232568+116142398+116568045
4209+117472055+118137585+118092212+117426727+116747125+117023744+118078267
4195+118627778+118351574+118358079+118936283+118942212+118151513+117477336
4182+117142749+116830835+116802161+117231992+117674491+117717930+117312481
4168+117066534+117335271+117576044+117571591+117489545+117259461+117050213
4155+117241916+117534081+117511687+117492505+117679881+118015178+118654689
4141+119647662+120456770+120321389+119392340+118505516+118227116+118469275
4128+118509007+118075199+117857953+118283060+118703445+118505813+118091771
4114+117912242+118078825+118446728+118311159+117797663+117932171+118646358
4101+119018409+118780164+118500045+118406322+118287721+118505129+119288783
4087+120223770+120867878+120810566+120080157+119597665+120069855+120794110
4074+120733964+119994585+119358259+119136920+118870288+118279741+118097458
4060+118977930+120128535+120596784+120653133+120689437+120704345+120539175
4047+120163165+120254819+121057943+121556324+121007658+120055549+119673394
4033+119675068+119516097+119564546+120068271+120760766+121471930+121555433
4020+120809198+120214674+120187259+120390244+120383739+119969788+119918100
4006+120609011+120987477+120715762+120809225+121297151+121372520+121200710
3993+121261630+121459145+121568695+121619142+121815676+122241009+122509395
3979+122193675+121834831+122075740+122460171+122481638+122274964+122129651
3966+121969582+121464408+121092519+121447368+122028864+122270403+122141176
3952+121685730+121340391+121713450+121809540+120966676+121028234+122320283
3939+122788793+121575137+119690930+119288072+120876254+121822370+120802927
3925+120028297+120597773+120298662+119174141+119873734+122230221+123525941
3912+123038573+121667934+119139187+115841226+114860021+116947043+119645296
3898+121801857+121677336+118628300+117079013+119510950+120146727+118828082
3885+119393132+119002637+119001179+121462672+120858386+117745992+115599373
3871+114941293+117271319+118778517+117843719+119440574+122799122+122886196
3858+118002681+110328395+110387794+120496141+125987614+125496584+122292626
3844+118731957+115795800+113990831+115901598+120014612+121811331+122694773
3831+124137839+124353573+123184741+120120923+115433753+115721033+119511634
3817+121118791+124483115+127612972+126072808+121615516+119603216+120291716
3804+118416732+118575577+123070639+125087131+126258672+127956241+127996935
3790+127402240+127199389+127205912+127605477+127218383+126390300+127640944
3777+129526644+129401602+127362301+125845503+126908718+128738420+130265646
3763+130300969+128194531+127594492+128867286+127278889+121986155+119763375
3750+125019823+127246742+125919235+130977187+136567080+135080035+130399991
3736+129013418+134002048+141481599+145758093+146071285+146134643+148422940
3723+151955385+156258861+160566745+162914901+162360153+161794212+166978512
3709+176232847+183924336+188662502+193375152+202393113+212816019+220285512
3696+225070265+227355782+227902019+231942201+241860042+249918526+252532854
3682+252104229+250576886+247934307+248635835+256608198+262257580+265388292
3669+272697329+279745034+283492934+286481635+289775969+292345203+295745525
3655+300684076+302049145+299935960+303328184+313830086+322115983+326872287
3642+331325422+336142187+340089033+343255463+345480933+344813379+344180121
3628+352149641+362655034+367081285+366642007+366279889+370779989+377347641
3615+381985110+385084602+387277862+390600052+396319845+400551578+401634658
3601+402973690+406271624+409737300+412894338+415978283+417363344+417053985
3588+418983124+423755731+426976864+428151320+428950629+429908649+431603393
3574+434146355+435916640+435322574+434225926+436703893+441036034+443447998
3561+444033858+443901815+443544231+443519615+444806140+446608166+446691228
3547+445525302+445196041+445982898+447172505+448290243+449333195+450145461
3534+449559277+447459983+445728278+445890227+447299689+448624506+449539231
3520+449965733+449995820+449602031+448556847+447645901+447626863+447689771
3507+446263178+443824763+442947359+443803710+444156471+443354067+442367293
3493+441657739+440624899+439216373+438367327+438323313+438190263+437451307
3480+436514701+435620525+435015699+435360507+436321693+436228014+434513440
3466+432580307+431161488+430034681+429479447+429356762+428915324+427757676
3453+426036659+424181081+422788930+422063434+421200317+420070631+419686559
3439+420154665+420285807+419276792+417907781+416910102+415992822+415421645
3426+415206325+414381248+413292769+412792022+412336621+411833211+411831196
3412+412178882+412394599+412354076+412433934+412473990+411862938+410508826
3399+408924783+408581199+409709661+410143505+409362154+408827614+408653968
3385+408551976+408665341+408652241+408699962+409096449+409087596+408577312
3372+408377431+408202850+407443992+406903549+407172457+407500818+407837060
3358+408687798+409232523+408560362+407257318+406440375+406390422+407099148
3345+408529519+409238425+408222320+406834775+406438359+406632302+406073650
3331+405035051+404840784+404847694+403946213+402565218+401593487+401329618
3318+401108935+400130690+398768229+397992996+397711925+396953607+395574771
3304+394698878+394929062+395448955+396003685+397189692+398605884+399191996
3291+398639210+398096068+398897897+400572559+401611517+401176126+400275868
3277+400893327+402494212+402821422+401732907+400608296+400137528+400156782
3264+400348853+400442496+400082573+398970954+397643294+397184114+396641728
3250+394590624+392782695+392995244+393877939+393678274+392912326+392411075
3237+391499949+390185174+389280562+388829839+388914556+389333753+388981315
3223+387680647+386705533+386243726+385426566+384365403+383386007+382561325
3210+382445981+383580382+384905990+384516772+382886267+382100670+382643056
3196+383242088+383122965+382852042+382540344+381733261+380851898+380472648
3183+379942139+378814865+378169263+378173258+377685575+376552038+375181840
3169+374035132+373859471+374338517+374428201+374092822+373825930+373965134
3156+374353092+374299865+373669523+372710064+371710765+371140560+370905806
3142+370352515+369151536+367689962+366401279+365295166+364557973+364214964
3129+363561337+362505177+361788534+361365378+360663922+359568714+358416103
3115+357470680+356341354+354777393+353135516+351674878+350348190+348966260
3102+347514043+346248068+345409460+344740609+343581233+341978296+340892660
3088+340730315+340621126+339840279+338565882+337191186+336093170+335288930
3075+334398138+333438283+333078468+333468117+333586772+332810640+331613223
3061+330563433+329817459+329170634+328504986+327868598+327279679+326723437
3047+326162517+325776358+325575145+325130469+324393384+323781936+323370873
3034+322876460+322314532+321824006+321116360+320157261+319423631+319405493
3020+320751003+323223283+325037258+325060867+324121885+323553156+323499964
3007+323389299+323833796+325802126+328539787+330942250+333684482+338250801
2993+344868837+351966243+357903588+362639343+366694371+370297704+373816321
2980+376876477+378005946+376641758+373886642+370535734+366456665+361797063
2966+357238013+353653358+351364763+349822179+348696992+347990498+347462975
2953+347030751+346772568+346811148+347339606+348161948+348836089+349394238
2939+349939826+349763842+348432115+346653733+344785739+342583842+340232340
2926+337958897+335394881+332269837+329165811+326498904+323966522+321500216
2912+319418809+318118249+317377205+316132176+314244352+312781555+311920921
2899+310876240+309541995+308427928+307665831+307053699+306564829+306275444
2885+306085675+305910230+305543649+304551656+302957860+301117128+299238841
2872+297458066+295638044+293780307+292223328+290786406+289001186+286984919
2858+285086281+283317399+281530578+279529426+277172111+274687163+272481433
2845+270726425+269266381+267863505+266524491+265297762+264028476+262660275
2831+261384584+260460483+259922056+259395092+258659230+257986242+257499944
2818+256964810+256248203+255498846+254845741+254301771+253943882+253650484
2804+253187417+252678968+252283776+251953688+251604723+251027518+250248291
2791+249617193+249100719+248421270+247500715+246434945+245486265+244735090
2777+244016648+243237114+242434890+241778528+241202798+240378531+239421411
2764+238735484+238327750+237976285+237559175+237160672+236937273+236786588
2750+236531014+236072374+235381804+234696903+234267000+234001134+233634103
2737+233116747+232673636+232416443+232172961+231798265+231450686+231341694
2723+231369495+231286757+231095297+230932610+230733593+230467060+230333974
2710+230403324+230433321+230223884+229920967+229719377+229547027+229235383
2696+228798336+228441849+228208859+227905438+227505513+227150485+226765639
2683+226181381+225507474+224898527+224305361+223746204+223273493+222780555
2669+222159300+221394882+220647684+220141359+219738340+219197339+218707461
2656+218449170+218156888+217690618+217330281+217184581+217054949+216842688
2642+216565683+216303235+216169375+216091100+215908439+215607735+215250062
2629+214918372+214730385+214700640+214712012+214768605+214951805+215178336
2615+215341923+215444509+215574266+215809506+216065962+216170707+216087321
2602+216020166+216090704+216166748+216197374+216169555+216010971+215844829
2588+215797810+215748271+215620853+215439704+215146234+214755397+214352737
2575+213908564+213361572+212840509+212537700+212331989+211961017+211406305
2561+210835362+210356839+209914447+209468583+209121472+208951264+208826239
2548+208555424+208210544+207977715+207883137+207881427+207880887+207736770
2534+207502610+207454925+207681438+207943850+208038806+208013074+208028477
2521+208210292+208507127+208749205+208905378+209055595+209290601+209570971
2507+209658406+209629885+209856038+210224220+210360168+210365890+210472272
2494+210573185+210569352+210490303+210355057+210218786+210114005+210098782
2480+210164425+210114239+209887888+209611512+209410497+209309333+209185316
2467+209037349+208937012+208839105+208740406+208593752+208356208+208139412
2453+207916282+207636362+207497787+207550241+207635138+207712208+207698065
2440+207534316+207416579+207365511+207182616+206982789+206941348+206920511
2426+206835739+206768746+206750140+206731660+206672368+206637891+206638287
2413+206621678+206707026+206934708+207093418+207061568+206984552+207076288
2399+207344386+207581659+207660151+207676957+207702671+207632385+207363801
2386+206770042+205512092+203223372+199908182+195872120+191406551+186799276
2372+182267632+177909669+173811689+169983893+166688911+164491818+163767635
2359+164762381+167680958+172393805+178688483+184877011+187461181+185054346
2345+180294659+177222393+176395984+176676786+177720800+178960305+179788154
2332+180301623+181315479+183093825+184871541+186292142+188008713+190368781
2318+192775616+194699158+196264937+197824868+199426509+200893265+202170361
2305+203319858+204335909+205101533+205653960+206221448+206874751+207504571
2291+208005750+208367779+208699397+209097252+209399719+209365907+209201007
2278+209264167+209470095+209527101+209369668+209161222+209070584+209148644
2264+209313634+209453504+209560822+209639800+209680647+209729987+209778986
2251+209783574+209808874+209900304+210022431+210132683+210178209+210212434
2237+210294434+210385108+210555496+210851180+211051493+211003682+210913170
2224+210944372+211045285+211186540+211265194+211208403+211165415+211266597
2210+211494946+211764699+211987415+212105548+212104864+212085502+212204175
2197+212456042+212702493+212864010+212936995+213005158+213183410+213422375
2183+213621159+213829929+214012878+214026949+213983835+214055920+214138424
2170+214152388+214258267+214487587+214660657+214736611+214788938+214871550
2156+215023423+215155249+215190446+215276477+215503260+215759410+215995946
2143+216181683+216282578+216382194+216537774+216770207+217037675+217229891
2129+217366000+217510189+217641835+217743737+217868906+218048940+218198545
2116+218272843+218380756+218551990+218664365+218744062+218908854+219060312
2102+219088599+219127377+219265106+219412678+219559584+219763730+220024216
2089+220242937+220367170+220552962+220846882+221136447+221465942+221856311
2075+222180786+222453400+222743397+222913372+222921595+222966671+223154712
2062+223429594+223727454+224006259+224241553+224483865+224777461+225086532
2048+225374136+225599029+225740015+225874415+226129737+226541718+227005396
2035+227380920+227650926+227907741+228250515+228732368+229169613+229392347
2021+229522339+229630575+229866750+230506432+231384538+232097007+232605077
2008+233098555+233591528+234055728+234586274+235203660+235820471+236244526
1994+236342361+236542098+237283790+238206828+238940332+239487954+239901483
1981+240349092+240938875+241569559+242084972+242461989+242695772+242724797
1967+242877821+243480866+244124506+244473183+244708027+244881097+244955305
1954+245006481+245049056+245039339+244876994+244385784+243709448+243668151
1940+244429582+245003728+245081788+245080942+245176528+245316164+245441711
1927+245353466+244901556+244602544+244656743+244751285+245406262+246544513
1913+247147054+247181495+247343894+247958887+248711969+249303263+249883042
1900+250482739+250820997+251059351+251554249+251874405+252097373+253139678
1886+254555384+255563572+256442614+257412042+258330096+259103457+259673212
1873+259506225+258338067+257910341+259943919+262733368+264476662+265410983
1859+266205757+267128274+268088237+268958030+269660853+269997960+269697670
1846+269057683+270012661+272899351+275165075+276355185+277548733+278506159
1832+278211483+277793924+279174001+281267500+283406112+285935326+287968508
1819+289265110+290436218+291475392+291956633+292534396+294235151+296389687
1805+297669319+297783979+297808380+299055802+300849354+301313698+300629175
1792+301821607+305477826+308251440+309325595+309932041+310620433+311771855
1778+313136547+313059675+311096095+309885471+312063436+315658276+318412564
1765+319398583+319173402+319809394+321131547+322215743+323124278+322607408
1751+320696048+320189975+322051563+324201744+325275791+325462465+326105079
1738+326761729+325492479+324992776+328476735+332400296+335457214+337504467
1724+338574664+338800241+336874449+333778484+334997674+340967481+346307342
1711+349276590+349928418+349514836+350054918+350365069+349641264+351285264
1697+355686972+362386630+369558532+373681291+376027287+377146536+376882883
1684+381269978+391419874+399622673+404372139+407854191+412323269+415957409
1670+419072304+425461056+432133615+435964973+440148553+446772311+452621592
1657+454562031+453312251+458422360+469917550+475656310+481182808+492944387
1643+504735440+513050596+518480896+522160814+530394383+545223819+558309746
1630+568715666+579026108+589417416+600618218+613801351+624826277+632732348
1616+643462886+656634826+667123232+675681636+683692363+690914937+696616197
1603+700755114+704007486+706431829+707638027+707935438+707536251+706139025
1589+703740810+700568405+696857321+692864086+688873729+684386513+678333572
1576+673611925+673171351+672326912+670391943+671523860+674685900+676769718
1562+676028063+672006540+674142758+687052557+699388911+709860834+719776083
1549+730241169+739848427+747109293+753298128+763345456+784099138+804677698
1535+817822647+828945174+841219843+851681978+859931022+866703162+870408199
1522+872667858+876524697+880412125+884271410+888421269+890048966+886869579
1508+879370252+878709643+890700938+899728634+902352499+903022680+906395902
1495+912110046+915531924+915755054+917819295+925946913+935423460+941842119
1481+945628131+948031170+949413208+950162277+951738655+955299809+958955831
1468+960738495+961072902+962034953+963264687+961598338+956312316+953429188
1454+955303624+956623402+955052135+951224304+949391759+950073673+948301301
1441+943041839+936723877+930271892+926257208+924862213+922036956+917563415
1427+914109291+912073841+911432954+911892026+914300966+920571208+927310813
1414+931646805+935074802+938819139+941058501+940829685+942388787+947521353
1400+952201469+956465628+962764588+969537087+974088651+975423905+974251248
1387+971781415+969971471+970866654+973934188+975997421+976068175+977480731
1373+981243207+983564623+983521652+984125759+984845821+981992204+978028192
1360+977607124+978742496+978787266+978569894+978633666+977535434+975846268
1346+974719246+972743250+968704093+963573470+959146643+955575771+954035598
1333+955237405+955573827+954125714+953825352+954806116+956166130+958778190
1319+962066047+963604708+963892042+964581514+965867534+968588065+972286769
1306+974643166+975159819+975500129+976657742+978434072+980891310+984443251
1292+989697315+995742771+999344809+1000884550+1004472336+1009254084+1012434695
1279+1016207679+1021444828+1025300587+1027724354+1030448484+1032701881
1267+1033793706+1035054607+1036476017+1037691140+1039653964+1041774635
1256+1043428244+1044386192+1043130402+1040828708+1040798045+1042794195
1244+1045078039+1047073037+1048156081+1048494447+1047883287+1046196568
1233+1044072802+1041848628+1040971295+1040972015+1040020473+1040290245
1221+1042715452+1042693571+1038827447+1036351496+1037783919+1039682899
1209+1038879127+1036948477+1036562102+1037575976+1038219886+1035771934
1198+1031484095+1030243780+1030793400+1029166350+1026937353+1026614894
1186+1026956139+1026220746+1025185783+1025136406+1025533434+1025161526
1175+1024969491+1026643901+1029087031+1030304313+1030125737+1028818771
1163+1026783753+1025375227+1025775494+1028122821+1030688529+1031279463
1151+1030686081+1031220514+1033784493+1036432903+1036295642+1034908205
1140+1035254704+1036539717+1037499464+1038615042+1039765169+1039827214
1128+1038359306+1037273815+1038948225+1041470386+1041026646+1038378020
1117+1037345432+1038668737+1039235991+1038950601+1040865488+1042347719
1105+1039434577+1034657939+1032701449+1035801805+1040079135+1040174937
1094+1039026177+1040993896+1044263110+1044856348+1041868565+1039747823
1082+1043010415+1049653427+1053719288+1053534666+1052968419+1054384719
1070+1055202527+1052478829+1048265703+1047042806+1050808953+1057143758
1059+1061259499+1060577009+1055045112+1047126012+1041809904+1043087503
1047+1050114083+1057677974+1060815326+1055968078+1046505351+1042030299
1036+1044151329+1047167975+1047170710+1044070787+1041150879+1039519006
1024+1036804882+1033274461+1031576946+1032170040+1033564386+1033251429
1013+1029869138+1028318888+1032181772+1034914539+1032896796+1031554417
1001+1032153485+1032605863+1032853105+1033583460+1036846557+1042230756
989+1047041655+1049826893+1050126895+1050321450+1052098140+1053556763
978+1052918971+1051310204+1051892357+1054179440+1054586184+1053242653
966+1053216094+1055638422+1059166323+1060821444+1058805069+1057405540
955+1061639395+1069212788+1073741823+1072306377+1067893514+1064973821
943+1064588022+1063792168+1060992102+1059411334+1060804385+1062351468
932+1062208089+1062102498+1063004303+1063671678+1063254353+1061836398
920+1061285986+1062151947+1062601374+1063168052+1063054328+1059857954
908+1057222141+1059554857+1064181710+1066582013+1066658813+1065647026
897+1063021146+1059765247+1058739137+1059604018+1059613447+1058377019
885+1058228745+1059935978+1059514406+1053842729+1046476200+1044194372
874+1047848450+1049946303+1045947814+1038683924+1032961144+1031817422
862+1033634924+1035232247+1034089894+1029911028+1026643613+1024955311
851+1022115946+1021133382+1024991588+1030240181+1033825808+1035118451
839+1033882383+1030396300+1025671558+1022236364+1020444126+1019387570
827+1020838778+1023395560+1022375280+1019479557+1019333658+1020288223
816+1019225548+1017709992+1017052766+1015902351+1013945429+1012138292
804+1011304721+1010918418+1009351686+1008496234+1009684365+1007330992
793+1001600581+999971228+1000204363+996960341+993572723+992378042+992245388
779+993520612+994934752+993256599+989559047+987354810+984805730+978709602
766+972168222+969455753+968291374+964883963+961470578+961955058+965713935
752+967022484+963426564+958617537+953141135+946353880+940180448+937077214
739+937200727+936068594+932431215+930062510+929640075+927803499+921446813
725+912200521+905552327+903912897+903547756+901788987+900050085+899261140
712+900319352+903514934+908037851+911414960+911565321+911112727+910659413
698+907330817+903206799+901888316+902434193+901639562+897799063+894070129
685+894119073+895830409+896398526+896556157+896678159+896859614+899281150
671+902104320+902091868+906341199+913603721+914444130+912430489+911862083
658+912517942+913004653+912598125+913515189+915388977+915440009+913218210
644+907888930+901657844+900313810+904773099+911007855+912522188+903658025
631+890823659+885049918+887003385+891349166+895572945+899295330+901812020
617+903788160+903517237+895176278+883116821+884277385+906011975+927104454
604+922261741+907574748+904734159
##END=
