##TITLE=Sample description
##JCAMP-DX=4.24
##DATA TYPE=INFRARED SPECTRUM
##DATE=12/9/2023
##SAMPLING PROCEDURE=Instrument type and / or accessory
##ORIGIN=Default
##XUNITS=1/CM
##YUNITS=ABSORBANCE
##RESOLUTION=4
##FIRSTX=4397.6552
##LASTX=599.8556
##DELTAX=-1.9287962
##MAXY=1.8667202
##MINY=0.29666761
##XFACTOR=1
##YFACTOR=1.7385187e-009
##NPOINTS=1970
##FIRSTY=0.31781447
##XYDATA=(X++(Y..Y))
4398+182807626+182853807+182164427+181687012+182220208+183172227+182973152
4384+181356182+180286635+180634917+181920337+183576769+184406426+184053979
4371+183092532+182298035+182271584+182205174+181905766+182445150+183709811
4357+184676572+184714800+184646504+185404368+185703228+184768610+184018905
4344+184069304+184133708+184215974+184758170+185225299+185512417+185674686
4330+184808946+183456721+183048853+183326577+183806289+184520440+185190380
4317+185700623+185714388+184863938+183906486+183788478+184096183+183810214
4303+183314011+183462224+183963758+184221734+183909811+183739210+184421957
4290+184817962+184312520+184015974+184929576+186672389+187268155+185825522
4276+183952273+182918023+182689498+183193672+184062670+184391906+183770392
4263+183138251+183706246+185014860+185681715+185315485+184427545+183996895
4249+184760844+185568335+184727348+183232688+182781261+182921691+183085041
4236+183534496+184471721+185509537+185525925+184685829+184010831+183442493
4222+183204009+183755427+184642665+185142142+184792969+183934736+183831745
4209+184842202+185559198+185298309+184957398+185020551+185347850+185962078
4195+186542227+186361941+185585889+184979563+184468532+183958650+184259584
4182+185479606+186205551+185777763+184730999+183657373+183512623+184206340
4168+184748707+184991015+184631453+183618803+182909349+183052110+183652796
4155+184077704+184260870+184324965+184120028+183813660+183743582+183822968
4141+183746805+183620380+183661916+183702046+183683892+183375689+182565181
4128+182068516+182423037+183222197+184127485+184595694+184165987+183187192
4114+182282058+181822728+181764427+181820997+181822968+181949993+182386026
4101+182593123+182137514+181615529+181899680+183343256+184925085+185114045
4087+184477344+184398163+184484115+184149256+183999432+184182786+184087423
4074+183632945+182941593+182205277+182068276+182513480+182786901+182571575
4060+182168918+181958582+181899920+182029054+182497743+182683309+182151502
4047+181736314+181976427+182307566+182500452+182489035+181964650+181620346
4033+182011054+182433614+182585255+182522908+182293166+182551433+183151107
4020+182958719+181990192+181514354+182294212+183572261+184065584+183842562
4006+183637848+183213883+182516360+182101103+181589609+180632174+180236288
3993+181255367+182865790+183536931+183202963+182881184+182974215+183239099
3979+183309914+183109743+182674944+182185992+182123097+182241585+182081887
3966+182095618+182598712+183198969+183331068+182607866+181308629+180638705
3952+181508646+183255213+184536982+184486618+183195918+182022574+181970804
3939+182349770+182140599+181528325+181607146+182198369+182050105+181089755
3925+180512229+180905063+181105869+180792438+181197735+182015597+181639202
3912+180562987+180256396+179716446+177792575+177033374+179130314+181578158
3898+182864521+182430665+180124434+178557588+179612872+180349085+180474018
3885+181551588+181197975+180002672+180311954+179653962+177796381+176618152
3871+176305972+177585633+178531943+178040231+178671087+180453362+180755496
3858+177747765+171906024+170643900+177324229+181570958+181498223+179314732
3844+177040540+175653894+174491813+174436597+176156045+177226294+177719840
3831+179025797+180188272+180374250+178732320+175202381+174585942+177116532
3817+178519772+180838037+183097023+182264110+179307789+177556748+177652488
3804+176500007+176704858+179908955+181036974+180961342+182044071+183073367
3790+183493183+183255453+182496749+182167976+181939674+181777661+183389506
3777+185849024+186738387+185531822+184029688+184597409+186302234+187747884
3763+187894777+186438293+186248459+188131873+188643316+186128565+184541130
3750+189118211+194229515+197875285+204718192+211114797+213387429+213916014
3736+215227559+217743938+221999359+226956091+230125577+231738691+233080904
3723+234218694+235822740+238225825+240536427+242186586+245032338+252824863
3709+263865884+274121390+282918800+292174032+304249560+316471244+325536984
3696+331691504+334415118+332995147+330814295+331143017+330167205+324978074
3682+317199623+309217486+301418978+294877315+293060087+291940245+288657961
3669+287947925+289308377+289438042+288866344+288494149+288005729+287933422
3655+288601495+287335239+284172524+284603586+290169850+295448704+298441349
3642+300023933+301167226+302235298+303417881+304586202+304701707+303970037
3628+305924541+309255782+309909695+307206447+303259074+301821310+302101313
3615+302082731+303287633+306028663+309220160+312381247+314243833+314365613
3601+314461473+315718351+317256501+318634542+319895740+320049370+318913037
3588+318468021+319199314+319504860+319306968+318735202+317993760+317750236
3574+317958241+318413988+319255713+320398560+321311425+321584503+321395594
3561+320888214+320410697+320347956+320351281+320300711+320508991+320936899
3547+321450724+321458095+320645204+319675803+319319311+320069426+321351092
3534+321937876+321644844+321264935+321544698+322174577+321921419+320691454
3520+319806462+319553921+319217759+318580440+317770224+317384966+318059347
3507+319037662+319309402+319145521+318902683+318295466+317359356+316477072
3493+315868415+315480552+315564721+316503334+317541030+317757573+317374269
3480+316675581+315567293+314263410+313229520+313003652+313748213+314455953
3466+314299100+313903489+313663701+313432417+313290786+312827634+311892655
3453+311241897+311013355+310851976+310822526+310713535+310486330+310557985
3439+310618360+310192921+309703267+309817915+310269685+310222680+309702718
3426+309045548+308088216+306944168+306147700+306138649+306647640+307017058
3412+307506370+308138409+307812464+306812687+306664679+307269599+307235863
3399+306292827+305518198+305489125+305889296+306368836+306631389+306538786
3385+306303113+306293787+306549928+306694987+306522089+306157780+305960300
3372+306170396+306284976+305816955+305316844+305496393+306230532+306994944
3358+307467011+307446817+306975196+306649731+306814058+307040200+307346946
3345+308062468+308574647+308571870+308712438+309195030+309479799+309034509
3331+308293067+308234851+308645274+308486364+307814726+307686639+308234989
3318+308414983+307531020+306143003+305497936+305762957+305948128+305773551
3304+305527695+305157831+304964671+305399299+306335340+307193898+307610184
3291+308017246+308660222+309281496+309894404+310610235+310996281+310621720
3277+310189527+310140088+310528397+311654033+312540431+312499975+312162236
3264+311671004+311123991+311069650+311268604+310901689+309907775+309178504
3250+309816578+311238811+311488678+310359202+309509181+309711598+309957556
3237+309728980+309538048+309217349+308503747+308081084+308648120+309389835
3223+309032760+308074262+307957179+308498810+308488970+308145540+307852337
3210+306956408+305468897+304567517+304983493+305809138+305805778+305055457
3196+304376345+304005521+303695827+303351403+302989356+302263343+300916090
3183+299632847+299039584+299236995+299816544+299561363+297820144+295779003
3169+295171580+295840476+296284737+295691543+294861544+294817111+294541393
3156+293067424+291714857+292041693+292918422+292030105+290115337+290050676
3142+292089177+292702291+290191826+287347462+287197998+288773330+287949639
3129+284757765+283586838+285840648+287297098+284271573+280018861+279609707
3115+282759411+283489453+279321561+275800433+276931418+279357834+277009724
3102+271013359+268010634+270330253+273179468+270650455+265556790+264530202
3088+268305637+270645175+266764504+261532619+260272193+262039571+262665987
3075+260108775+257441594+257877593+260689678+261355710+258401618+255974893
3061+256627914+258797109+258647371+255824932+253888804+254037497+254629252
3047+253949643+252464634+251481553+251220749+251344483+251147260+250500564
3034+249876977+249399236+249131164+248949283+248496930+248029612+250271645
3020+261627108+282009775+295015311+288923428+274384868+262888272+255940060
3007+251372357+248009984+245830367+244768500+244042984+242539564+240904457
2993+240833453+242771277+244936821+244942701+243378357+242633933+243902914
2980+245756603+245188111+242834704+241632630+242077475+243477234+244032630
2966+242341313+240223939+240278966+243329056+245865492+243683868+239620682
2953+238156896+239894309+242709634+242749095+239848436+237569015+238044442
2939+240895440+242170129+239615814+236893023+236788643+239044562+241257692
2926+240002031+236424934+234296726+234873413+236641613+236297309+233534560
2912+231485241+231543217+233124617+234314829+233471767+231723811+230729417
2899+231181101+232545582+232789707+231481127+230268390+230286424+231495098
2885+232372461+231756999+230796495+230746302+231556879+232378856+232179593
2872+231202186+230601672+230761302+231197558+231126914+230389690+229754394
2858+229567628+229388576+228926572+228142137+227177159+226513852+226517778
2845+226894584+227050391+226897293+226738623+226636592+226485910+226416878
2831+226539669+226652808+226775136+227076945+227317264+227235769+226859237
2818+226373062+226005941+225808204+225726761+225716938+225689373+225610912
2804+225591302+225731766+225923041+225984787+225966857+226018764+226134423
2791+226318738+226487367+226325321+225915052+225648283+225480665+225295133
2777+225199256+225125184+224968125+224813055+224727309+224605427+224352320
2764+224144692+224141949+224203164+224180382+224093162+223999359+223928064
2750+224005924+224268682+224411358+224325749+224299402+224401879+224387205
2737+224202410+224046792+223936258+223810261+223765297+223784873+223821455
2723+223925509+223956691+223813381+223688653+223614341+223538058+223585285
2710+223658209+223665408+223804124+223929641+223743766+223554926+223617033
2696+223614530+223506241+223524738+223530104+223364577+223225707+223307681
2683+223543886+223685362+223536429+223269882+223152663+223134561+223015438
2669+222729984+222520778+222545960+222534921+222287008+221965897+221828210
2656+221850632+221719081+221336018+220999908+220953897+221117779+221247735
2642+221171726+220935418+220596308+220180280+219895614+219826307+219803850
2629+219711230+219553692+219380125+219142258+218796771+218480786+218296591
2615+218169686+217976526+217757618+217676071+217608513+217350658+217083683
2602+216942258+216739018+216429822+216218713+216145310+216064363+215979372
2588+215881814+215693197+215545327+215482106+215274409+214896848+214640227
2575+214651867+214723488+214594731+214312757+214109877+214034416+213913717
2561+213632959+213339739+213135779+212917574+212737322+212677495+212606577
2548+212397371+212104426+211913494+211863798+211769721+211596994+211529985
2534+211562693+211556230+211462478+211208943+210834159+210512706+210343150
2521+210317077+210374504+210475695+210556453+210539242+210383743+210155133
2507+210023308+210018611+210014326+209937185+209857301+209853530+209932334
2494+210070021+210190943+210302180+210440759+210567801+210682175+210753059
2480+210767407+210812663+210946082+211089409+211093403+210970218+210893626
2467+210955339+211091843+211206491+211267227+211310683+211338779+211268307
2453+211179029+211299266+211558013+211668152+211636422+211718757+212015234
2440+212406611+212744933+212932848+212930568+212771864+212585852+212558407
2426+212682638+212807434+213017239+213374332+213626685+213652621+213582389
2413+213523436+213580160+213802754+214076878+214234364+214240896+214267244
2399+214542567+215257438+216791765+220192759+227125886+239064224+256651674
2386+279414867+305687942+333144491+360180573+386941829+414570453+443962822
2372+475167481+506962866+537158389+564164403+585604942+598528023+603774478
2359+601002284+585825668+560724376+533072883+507382786+492449660+496858848
2345+515323198+523694158+514506913+502921759+494183267+489435723+491928018
2332+498050276+498688624+493929012+491286276+491851597+489727452+481168372
2318+467205675+452751850+446632882+450695280+453585414+445067133+426379657
2305+405161352+389291258+379639764+371237227+361482330+350060235+336504566
2291+322289706+309591293+298511325+288520994+280034203+273316247+267939373
2278+263350550+259197504+255369528+251957100+249054349+246595791+244470309
2264+242556792+240817219+239317108+237945222+236521582+235110029+233865321
2251+232801723+231867310+231004741+230263385+229745874+229334560+228901647
2237+228446740+227961028+227596770+227554942+227653717+227514486+227193839
2224+227057677+227170096+227312481+227362897+227413929+227527618+227656408
2210+227842968+228109258+228411529+228700361+228850305+228909824+229065373
2197+229301270+229554102+229818249+230068785+230349748+230637637+230795244
2183+230877030+231011015+231124446+231138091+231098784+231053065+231036094
2170+231094207+231168073+231217186+231280973+231214118+230916560+230578221
2156+230339205+230142480+229914383+229665939+229487881+229388010+229297892
2143+229375753+229711229+230103738+230485807+230848985+231139977+231431946
2129+231791044+232155559+232479018+232810312+233149765+233454573+233735982
2116+234028894+234250082+234366239+234567318+234879310+235133582+235278401
2102+235461533+235784769+236140131+236503583+236947896+237536342+238236042
2089+238918719+239588626+240296400+241071235+242044150+243332519+244769700
2075+246235852+247902365+249788179+251823732+254047594+256457005+258971739
2062+261633999+264608680+267938567+271544429+275189805+278817798+282551131
2048+286227774+289748833+293198597+296525347+299494405+302011830+304187676
2035+306026949+307529512+308693341+309468210+309826486+309862930+309659691
2021+309155739+308390093+307365459+306089862+304639515+303047469+301415721
2008+299737861+297956289+296130284+294382209+292825751+291387952+289889880
1994+288368598+287092744+286147856+285276784+284295812+283326292+282513212
1981+281851225+281357919+280975628+280563268+280165256+279895281+279764159
1967+279730698+279746211+279828752+280044094+280392273+280793781+281159359
1954+281510178+281934366+282444077+283067802+283731349+284331246+285152742
1940+286273236+287250042+287997226+288746725+289517034+290234373+290892195
1927+291412774+291848087+292371786+292684120+292694097+293101537+293896291
1913+294332187+294416425+294624670+295002385+295337073+295617488+295849047
1900+296048550+296219939+296344667+296478034+296401957+296204099+296497268
1886+297180049+297805299+298412036+299018019+299355140+299337929+299267440
1873+299110587+298368666+297491628+297881891+299200516+300057532+300101450
1859+299740844+299374031+299108256+298868743+298650144+298390368+297561055
1846+296080537+295480383+296138273+296259195+295627327+295194140+294766129
1832+293253967+291278138+290758964+291202369+291533388+291820111+292000586
1819+292054241+291736730+290884206+289858887+289197192+289260139+289546176
1805+289626368+289558759+289028477+288374392+288279424+287787026+286560987
1792+286730748+288683606+290204991+290837030+290931176+290745353+290902994
1778+291227225+290566250+288582844+287316160+289352810+292728999+294627756
1765+294745901+294408608+295093823+296274143+297054635+297620573+297705839
1751+297176997+297037904+298198922+299929753+300900559+300889759+301223555
1738+301873217+301488988+301997670+305134620+308024309+309958551+311261508
1724+312153836+312381315+310958465+308909815+309898964+313787984+317194583
1711+319135202+319390417+318783063+318994051+319035296+318033668+318775761
1697+321732030+326118041+330635192+333009135+334005552+333735629+331989610
1684+333468756+339449008+343761101+345105097+345580283+347397785+349291845
1670+351134787+355428504+359855348+362064176+364488381+368830645+372561098
1657+373164784+370903431+372702317+379920590+383614118+386786793+393711691
1643+400278760+404024333+405139718+404493314+406798208+413623578+418649719
1630+420810480+422178338+423361950+424689420+427605337+430285820+430930098
1616+432792342+437248671+440772696+442880693+445081875+448054224+451177632
1603+454150084+457476148+461287102+465129426+468966025+473200738+477814605
1589+482578194+487526407+492855042+498819523+505243933+510517884+514260371
1576+520081233+527654936+532811462+537680031+545520435+554176061+561439418
1562+565765191+567600282+576116026+591955503+605443596+617021344+627562459
1549+637432622+646026638+653050757+657939142+663473452+678014772+693938041
1535+704434174+714304749+725543626+734809966+742984749+751899876+759983461
1522+768107503+778226024+789985755+803475357+815882658+824416676+829353129
1508+832402893+841767082+858390445+870320366+876859287+881440412+887150740
1495+893973813+899275055+903326550+909476957+919416306+928692040+934079474
1481+937738683+941784625+944433669+943365562+941298056+945298124+953428336
1468+957461249+957621153+958882831+959880106+957445753+952262313+951006463
1454+955690649+958952429+957881512+954100317+951995235+952157333+951368510
1441+948226794+942263651+933547581+926495829+922643528+917779553+913171068
1427+912844060+914542800+915408078+916274796+919399507+926565427+935494816
1414+941881239+943670011+943460531+944902684+948544819+954489312+961007456
1400+963904104+963389011+962956543+964418513+968318881+971658556+971522035
1387+969034883+967937223+969188684+971226432+973564307+976142176+980197923
1373+986331461+990634949+991873451+992176597+989901942+984070109+980198266
1360+982777917+988263474+989534547+985821099+982999603+982142210+981698703
1346+981697537+979736999+974536211+970189044+968505115+965316155+961293939
1333+960515950+962514819+964848306+965324247+963927487+963038072+963673437
1319+965532218+967875579+970184930+972966999+975960467+979009957+983143118
1306+987602122+990778602+992464040+992912895+993487850+994227646+992946632
1292+991058777+992942655+999593412+1007149081+1012387240+1017384239+1024501269
1279+1032297274+1037841390+1039051915+1037901937+1039600128+1044817373
1267+1048711775+1049080679+1048034720+1046905518+1046193150+1047373162
1256+1050599150+1052843359+1052351168+1052504489+1055605269+1059014268
1244+1061201223+1063301642+1064736938+1064350001+1063413891+1063043273
1233+1062031805+1060339373+1060128796+1062110522+1064050490+1063528607
1221+1061387732+1059444336+1058035302+1058166750+1060073872+1061515956
1209+1061006074+1058778732+1055622960+1053678604+1055143042+1058477918
1198+1059552264+1057704797+1055201189+1052350688+1049558882+1049090073
1186+1050761179+1051259268+1048982625+1046177928+1045835766+1046992739
1175+1047054177+1047169579+1047084553+1043321667+1037230779+1034105588
1163+1035923913+1039010088+1039222859+1037594334+1035980757+1033765278
1151+1031668287+1031039985+1030880355+1030117726+1028675847+1026781478
1140+1025704184+1026302795+1028149919+1030168330+1030314314+1027263110
1128+1023012558+1020373251+1020141760+1022047374+1023935229+1022870619
1117+1019308298+1016798450+1016972274+1018115533+1019754137+1021656460
1105+1022063694+1019848763+1014878368+1011823873+1014744658+1019303910
1094+1020173851+1017786742+1017440192+1022038186+1026635700+1027245145
1082+1026119029+1028019774+1034552455+1038405922+1034969838+1032159656
1070+1035389826+1038951735+1038437053+1038017682+1040381957+1046044766
1059+1055035319+1060165207+1057685941+1055195841+1055007617+1051368979
1047+1045365585+1044064823+1048440857+1052164796+1048702998+1040904182
1036+1038794437+1043857194+1048638269+1048670771+1044107199+1038602854
1024+1036864686+1037224333+1035108965+1033386775+1036105691+1037649532
1013+1033256493+1029493812+1031646139+1034674166+1033918805+1032827316
1001+1033993134+1035521068+1035439333+1033709394+1032024779+1032194215
989+1035481366+1040409728+1043667394+1044591368+1045636366+1048875519
978+1051439125+1049740454+1046138912+1044677628+1046150569+1048293296
966+1049106872+1050411475+1054331865+1058916831+1061461307+1061738739
955+1062088717+1061709185+1057520483+1055195429+1057883969+1059426165
943+1060618177+1065863466+1072203399+1073741823+1070194862+1067494802
932+1068159172+1068663706+1067693722+1068311670+1070988348+1071246032
920+1066655786+1062085769+1062538396+1065581303+1066231204+1063722796
908+1060660415+1059027434+1058756173+1059691803+1062462284+1065707265
897+1067106082+1067928573+1066319110+1058542785+1051637977+1051235680
885+1052593492+1053085958+1052896981+1051281210+1051032371+1053589601
874+1053983327+1049062097+1043859251+1043514210+1046724221+1051233006
862+1055832371+1056522180+1052295764+1048963014+1048457657+1044458891
851+1035261807+1028349319+1027353073+1028574227+1029349268+1029956519
839+1031209489+1032889920+1032370232+1030346268+1031536359+1035239659
827+1036368038+1034676155+1033263898+1032135039+1031860693+1033094943
816+1031390375+1027108692+1026377330+1028735708+1030615471+1029969684
804+1025177090+1019035461+1016243723+1017601604+1018471340+1014075077
793+1007819622+1005088706+1005826308+1006216880+1002504872+997910101+998354499
779+1001792435+1001310597+996352134+993047497+992641360+991535678+989575757
766+987077566+982431710+976224460+971368919+969092001+967550766+965427924
752+963205793+961572400+961650158+963375228+963346566+959949841+956617502
739+955476575+954140910+949572264+942958465+937705976+935602745+937831801
725+940044057+936729341+931401974+926030311+920309355+918338737+920383273
712+921236414+919240768+920236808+926283743+930577632+930482252+930885303
698+934073577+937705496+939091148+938012756+936868811+935327164+930661835
685+927653007+931820590+938734106+943054325+943935649+941928963+941960642
671+946598201+950585172+947247348+940351797+937071297+936903370+934814813
658+933184780+939176585+949020828+952635948+947922483+942531483+942116364
644+942892364+940320255+935935581+932388963+931493377+933421824+936564637
631+941317598+946403189+953891455+967600204+971606924+952753544+931349518
617+921903046+914476631+903974669+901863141+912396302+922777307+921413735
604+916882390+918945645+917454397
##END=
