##TITLE=Sample description
##JCAMP-DX=4.24
##DATA TYPE=INFRARED SPECTRUM
##DATE=12/9/2023
##SAMPLING PROCEDURE=Instrument type and / or accessory
##ORIGIN=Default
##XUNITS=1/CM
##YUNITS=ABSORBANCE
##RESOLUTION=4
##FIRSTX=4397.6552
##LASTX=599.8556
##DELTAX=-1.9287962
##MAXY=1.7143456
##MINY=0.17912766
##XFACTOR=1
##YFACTOR=1.5966087e-009
##NPOINTS=1970
##FIRSTY=0.21921641
##XYDATA=(X++(Y..Y))
4398+137301270+137407862+137474854+137135385+136757305+136372738+135040227
4384+133702397+134290917+136160477+137666946+138029813+137492484+137012236
4371+136506853+135477096+134761441+135240047+135933639+135549455+134492660
4357+133700885+133750900+134822432+136132161+136678301+136466787+135971073
4344+135610091+135897697+136413113+136370069+136186535+136028042+134888818
4330+132886897+132129159+133224491+134295304+134905533+135832366+136680438
4317+137008661+137042475+136974754+136337842+135098306+134459219+134830048
4303+135471095+135824806+135770722+135335626+134694337+134425070+134699628
4290+135245749+135932379+136405749+136621705+136995492+137321112+136882973
4276+136051459+135665651+135408162+135517218+136320333+136518100+135848428
4263+135299815+134868742+134675745+135416917+136520750+136614230+135781837
4249+135271424+135514904+135495902+134756886+134719237+135500148+135359920
4236+134615715+134940177+136127159+136751574+136336069+135834457+136215449
4222+136899493+136955276+136772937+136653540+136092925+135215370+135091745
4209+136119533+137141367+137483720+137403587+136947819+136650106+136573594
4195+135987033+135468211+135895747+136695445+136984414+136704610+136374082
4182+136106430+135656570+135446736+135805151+136148578+135833439+135196788
4168+135510555+136581527+136731172+136244932+136307790+136354035+135839450
4155+135363009+135374563+135813915+136332009+136410350+136088949+136130901
4141+136587201+136365813+135278032+134643052+134977379+135528054+135710692
4128+135221661+134512996+134467488+134824000+134913420+134848303+135004304
4114+135236127+135406193+135541344+135088021+134206519+133715276+133461857
4101+133234309+133223753+133352773+133349488+133255131+133365634+133523165
4087+133510743+133645381+134200732+134745929+134760666+134535330+134479500
4074+134357499+133814001+133245928+133181577+133056982+132432800+132151008
4060+132868698+133876196+134215171+134021389+133660435+132974889+132285917
4047+132168554+132498243+132940627+133209390+132988375+132550489+132579188
4033+133112513+133497238+133443686+133255747+133284007+133492787+133352325
4020+132703037+132036016+131896590+132225093+132222462+131966560+132269472
4006+132884181+133133438+133025119+132998632+132874353+132129738+131361352
3993+131525193+132344360+132753267+132539280+132471354+132652844+132576043
3979+132378248+132164784+131815113+131901061+132543424+132852206+132560923
3966+132032516+131486069+131528030+132370548+132928364+132523339+131723892
3952+130819057+129990921+130082711+130360517+129971368+130565470+132001531
3939+132321149+131510838+129946290+128729024+129604338+130878994+129991182
3925+128611810+128968275+129019000+127717923+128075638+130949383+132896706
3912+132513306+130996039+127948243+123614489+121489176+122666871+125551489
3898+129224448+130561382+128183015+126363983+127839037+127678463+125620152
3885+125740436+125720622+126041080+128428127+127718184+124431248+122132911
3871+121117396+123213617+125128620+124226127+125221838+128286303+128445160
3858+123541682+114710632+112192586+122273112+130323232+131829169+128852257
3844+124311916+120428293+117846448+118928320+123102909+125497992+126301350
3831+127414647+127765167+127106434+124632571+119682222+118927620+122455600
3817+124104080+127798289+132107526+131552510+127020327+124020139+124380449
3804+122907448+122478951+126081464+128151021+130120818+133050234+133996050
3790+133448165+132535873+131919549+132519195+132238962+130811768+132310574
3777+135687593+136507731+134230206+132262696+133693596+136476586+138767578
3763+139078703+136649443+135827242+137831590+137070492+131805873+128694650
3750+133364234+136352859+135688498+141182326+148867386+149850263+146189848
3736+144845158+150844863+161325047+169590769+173108696+175434034+180069571
3723+186303665+193317700+200351073+205203976+205856932+204994431+211572148
3709+226604711+242082589+254047206+264234818+276887259+290634182+301094467
3696+306180994+303938440+294883911+285292230+281405275+279673069+275269364
3682+268173740+259569957+249553643+242016773+242762704+244220371+243949415
3669+248048733+252836864+254417335+254329903+253418441+251236310+249596986
3655+249769217+246692236+239287820+237211786+244781900+252283678+255463266
3642+256025038+256112545+256122811+255678168+254224645+250398094+246492435
3628+250145020+256447264+257538460+254511953+251341287+251905113+253939877
3615+254249919+254500044+255404337+256682978+259267997+261513108+261633392
3601+260976684+260660239+260139943+260139868+261264477+261208161+258989482
3588+259016977+263281321+266879942+267893936+267688274+267367517+267499523
3574+267951689+267267001+264220184+260952288+262068385+266110548+268480497
3561+269267027+269966349+270235513+269522676+268674941+268543327+268300463
3547+267934124+268709062+270058652+270591100+270272248+269902735+269899543
3534+269891704+269353469+268201757+267049728+266453592+266612813+267634366
3520+268570299+268551465+268324468+268230690+267684783+267098558+266955166
3507+266250505+264721180+264190487+265096479+265602701+265162314+264683717
3493+264453715+263932298+263053876+262440940+261994617+261414384+261150166
3480+261223748+261279410+261185072+260744087+260184480+259840540+259647963
3466+259692238+259807669+259598292+259304583+259154060+258827834+258341286
3453+258083863+257692063+256828106+256506584+257129432+257537154+257049653
3439+256212501+256090127+256826034+257516677+257681143+257332518+256681840
3426+256006727+255480476+255574236+256139760+256026326+255092522+254457579
3412+254610808+255001786+255251276+255418598+255531714+255607088+255330943
3399+254641719+254249826+254219008+254294531+254784570+255322020+255262644
3385+254915307+254764074+255089330+255993325+256617628+256327017+255852042
3372+255719849+255727222+255805563+256385685+257626079+258569142+258698702
3358+258780758+259270461+259905740+260510556+261021184+261183429+261160787
3345+261536627+262127201+262487941+262752606+263109967+263693821+264198924
3331+264254940+264448022+265127819+265722612+265929450+265998720+266003573
3318+265794644+265517174+265267236+265146504+265460130+265952782+266146965
3304+265746019+264738148+264176188+265004194+266515619+267337539+266980123
3291+266329575+266411201+266968400+267272936+267315999+267350494+267161052
3277+266589312+265976918+265512544+265166514+265041881+265223389+265644999
3264+265748987+265121174+264582660+264691949+264645956+264199820+264225896
3250+264937053+265607219+266017180+266264766+265806385+264783730+264243983
3237+264388010+264678566+264861306+265005240+265099447+264991091+264740350
3223+264761125+265265649+265624223+265418132+265315805+265446280+265053174
3210+264157485+263435988+263215169+263103901+262502090+261976212+262123356
3196+261875098+260528345+258939867+258002759+257795510+257549361+256632897
3183+255565612+254920458+254366059+253641668+253003272+252438438+251646962
3169+250827225+250442948+250385923+250354060+250057028+249124903+248064674
3156+247624678+247395814+246820192+246064928+245325063+244673302+244339758
3142+244250647+243940212+243298941+242561242+241986945+241633186+240958727
3129+239787901+238814487+238266491+237691129+236755757+235571398+234525037
3115+233653614+232732017+231667774+230357831+228759049+226895192+224942055
3102+223265380+221824475+220403618+219172781+218093643+216951283+215912146
3088+215145906+214532335+213805630+212813643+211790839+211237560+211166181
3075+210899612+210316523+209826185+209292374+208628350+208099448+207694209
3061+207252552+206950461+207042336+207149572+206805147+206227153+205805301
3047+205654293+205541924+205084345+204373543+203771228+203198704+202438027
3034+201541498+200683926+200054489+199606953+199011992+198163323+197358108
3020+196705041+196006932+195388284+195051997+194661336+193887126+193000695
3007+192365808+191971600+191584579+190958447+190024679+188960660+188185199
2993+187993163+188148483+188416714+188769408+189036575+189170242+189286252
2980+189437614+189643426+189914792+190189948+190209025+189810319+189223142
2966+188825089+188770323+188594862+187756982+186707990+186214535+186147375
2953+185919406+185373407+184865673+184871198+185265872+185342739+184943342
2939+184474564+184048661+183626959+183242103+182831730+182313114+181705946
2926+181152218+180724916+180200270+179322464+178348732+177770104+177403579
2912+176803746+176237643+176016358+175964933+175986343+175981340+175761529
2899+175450404+175326760+175404486+175440604+175330139+175293031+175426586
2885+175467969+175364447+175389198+175552376+175621067+175570893+175581645
2872+175667266+175634806+175427352+175207989+175081508+174993460+174904815
2858+174704006+174300466+173738656+172910855+171913512+171195150+170957009
2845+171007015+171038113+170993464+171000202+171103705+171256580+171374642
2831+171505547+171609946+171465042+171183913+171083919+171112646+171095529
2818+171051534+170920816+170663299+170440184+170349430+170325967+170321077
2804+170461221+170809211+171180852+171398348+171429072+171364712+171413486
2791+171696482+171902685+171720990+171455168+171393084+171340204+171182681
2777+171063387+171016796+171032606+171133459+171050563+170593115+170157637
2764+170122451+170253151+170174492+170003344+170103225+170414649+170577118
2750+170614880+170643719+170471189+170185020+170064773+170064195+170039593
2737+169981560+169932917+169905720+169905515+169895155+169802703+169670921
2723+169608893+169589219+169531859+169505745+169523216+169488834+169397575
2710+169287315+169228685+169215488+169185567+169261500+169480639+169553941
2696+169362969+169243469+169407375+169607624+169605888+169488815+169377061
2683+169254482+169153256+169082157+169043910+169109111+169053617+168683936
2669+168355545+168261151+168084533+167713528+167377073+167155582+166929555
2656+166668735+166396174+166132423+166025187+166097517+166022200+165608057
2642+165201287+165078092+164977743+164678284+164282527+163919828+163655069
2629+163460700+163237791+162929745+162553700+162213344+162001354+161842898
2615+161615303+161368538+161204054+160980080+160527336+160050867+159773154
2602+159611712+159424230+159160256+158962489+158979102+159090333+159173639
2588+159226576+159204177+159092685+158979046+158930477+158913957+158867404
2575+158810921+158778890+158691272+158582766+158632474+158636002+158299062
2561+157906926+157729450+157584583+157357884+157101767+156850952+156603441
2548+156313502+156029601+155874356+155802613+155714425+155631035+155537107
2534+155425522+155321235+155123123+154825671+154619962+154599122+154680048
2521+154743783+154700207+154530664+154322631+154152070+154011114+153930906
2507+153941835+153945578+153864240+153768092+153731114+153778134+153952521
2494+154200397+154343789+154337265+154379563+154671602+155139867+155590016
2480+155958857+156188010+156210148+156065449+155925463+155962683+156050516
2467+156049023+156095203+156240788+156450753+156670583+156754486+156735559
2453+156712394+156683219+156747542+156966308+157245402+157465848+157556416
2440+157611312+157767286+157972649+158089722+158057859+157945303+157901774
2426+157969774+158097749+158255868+158360212+158401911+158510342+158646530
2413+158661108+158627565+158728847+158958999+159167218+159297525+159450307
2399+159705434+159979843+160156685+160292163+160459037+160511451+160337110
2386+159932319+159014325+157094096+154050733+150271621+146167757+141949714
2372+137708422+133476762+129474554+125882363+122740565+120510499+119909061
2359+121152068+124127692+128848477+135152475+141340987+144228881+142304601
2345+137586141+134050686+132964445+133317438+134371181+135513429+136291139
2332+136896460+138112607+139948932+141574760+142869379+144582350+147083829
2318+149763532+151812575+153217818+154587698+156163138+157682001+159000605
2305+160173596+161199219+161997023+162600719+163209437+163859555+164409736
2291+164823282+165140044+165447996+165818348+166122474+166188663+166103733
2278+166066924+166108418+166160235+166161355+166119935+166095128+166120421
2264+166210372+166310571+166439553+166658226+166832062+166900809+166983444
2251+167095682+167149534+167100088+167041532+167104866+167244357+167320589
2237+167298507+167242248+167266700+167428516+167569482+167575100+167615083
2224+167755843+167843070+167850499+167835827+167794818+167721722+167651780
2210+167702440+167904854+168088882+168172077+168206142+168195223+168200188
2197+168280993+168349105+168390115+168495130+168655508+168819657+168926277
2183+168945279+168987259+169080011+169101682+169049846+168996760+168944103
2170+168926408+169038684+169249106+169412882+169523123+169665153+169806529
2156+169855919+169824075+169789151+169777354+169798111+169882724+169994496
2143+170044595+170050102+170123497+170304221+170501988+170615048+170659603
2129+170690757+170703114+170674499+170658353+170771693+170948255+171021817
2116+171061221+171178313+171323106+171466703+171662230+171943228+172255641
2102+172486241+172644043+172883379+173279621+173785526+174366357+175011211
2089+175684009+176462643+177488154+178640799+179730409+180805590+181966803
2075+183239079+184658349+186223121+187803274+189361140+191116174+193209941
2062+195508792+197923390+200498908+203183249+205869848+208550102+211263449
2048+213948220+216537812+219075681+221560370+224032852+226551289+228981473
2035+231199705+233167309+234787425+235910149+236409147+236303684+235701948
2021+234579710+232882409+230917121+229169664+227637819+225998924+224223077
2008+222524003+221033988+219762161+218705366+217832617+217072463+216307809
1994+215378204+214626729+214663259+215273003+215971690+216653429+217298657
1981+217927702+218592026+219379433+220335095+221470661+222623941+223556439
1967+224737531+226715345+229018563+231160171+233242122+235307330+237388591
1954+239599132+241831345+243903272+245737078+247153119+248224212+249914364
1940+252496210+254713434+256010890+256768636+257247980+257583445+257773689
1927+257439082+256334988+255276027+254635764+253789373+253406365+253788327
1913+253541040+252288793+251036714+250425458+249940888+249068551+248037963
1900+246984378+245687650+244470122+243837699+243090946+242193017+242552637
1886+243797865+244748320+245453205+246093095+246742392+247429339+247910231
1873+247412558+245421585+243917776+245482604+248390844+250052623+250411458
1859+250352418+250366492+250384579+250206039+249654813+248421848+246204605
1846+243375341+242346433+243951617+244972406+244279318+243208579+241881034
1832+239039301+235693772+234472324+234431408+234474788+235092708+235182268
1819+234206576+232991699+231579727+229423037+227377111+226786107+226957611
1805+226373607+224446509+222233392+221600670+222009586+221067083+218609926
1792+218229438+221271905+223734401+224103521+223720942+223312549+223439702
1778+224098799+223341108+220245312+217726258+219402075+223316151+226500069
1765+227444831+226590544+226631740+227614543+228388044+229079750+228052485
1751+225212824+224251151+226537084+229300774+230658204+230854459+231578215
1738+232276884+230398317+229128692+233047865+237876166+241469149+243592670
1724+244287008+243818846+240682321+235674808+235384570+241377667+247358053
1711+250488008+250415696+248612969+247818189+246796486+243977302+243750547
1697+247475780+253924178+260929814+264134190+264404679+262675796+258432581
1684+258481766+266485025+273275983+275843437+276521947+278303655+279700881
1670+280885109+286404426+292827439+295557847+298049555+303307305+307395274
1657+306298552+300583466+301192427+310853452+314980900+317651969+326514444
1643+335498173+339941132+340125030+337377542+338800863+347889831+355047575
1630+357693483+359153464+360752432+362676786+366805186+370372971+370598046
1616+372549913+378742177+383550057+385894136+388168403+391303920+394444290
1603+397647490+401622269+406043203+410226593+414494614+419550678+425107326
1589+430616936+436206512+442335386+449306807+456624594+462073129+465262628
1576+471578237+481109291+487620594+493783664+503879290+514432719+522760114
1562+526955823+526938128+535845625+556219767+573329633+587256011+599935424
1549+612390845+622593091+629016179+633038780+640082811+659195616+678910288
1535+690565123+701459282+715372780+726941154+735907860+744784222+752416905
1522+761218528+774267043+788247142+802935354+817435562+827654086+832321859
1508+834960785+848188195+871316657+887499345+895663935+899177177+904145100
1495+913633110+921511811+924249443+926683417+935949152+947460185+954385948
1481+957657354+959650138+959321018+956236870+954267606+958762979+967041954
1468+971606467+971428169+971608184+972751142+969098725+959695608+957143964
1454+963446208+966942427+966587847+964344267+962025948+959886449+957494437
1441+955764695+951830645+942020535+933798454+931140787+926802805+921870049
1427+921221592+922447127+923137397+921979954+920846255+925098672+932166372
1414+938062220+943160505+946958368+948421484+949457150+953559790+959235304
1400+963001882+965188718+965434512+964699967+967124981+972178991+976961821
1387+979416477+979467248+979643157+981541117+984808267+988654288+992876689
1373+995926866+996534034+996128608+995339857+993403594+991026290+990530446
1360+991740228+992141771+991701626+991951452+992008048+989990774+986440498
1346+983280342+981275015+978859184+974634169+970211369+967663383+966408280
1333+965144516+964794939+966260819+967494717+967188669+966835657+968214180
1319+971880857+975997535+978528422+980826060+984435843+987712400+989315811
1306+991246176+995233162+999845011+1002697850+1003065571+1003122017+1005040958
1292+1008106440+1011863312+1017149079+1023250850+1028342790+1032124300
1281+1036408897+1041732221+1045982771+1048932449+1051459604+1052201167
1269+1050981754+1049797283+1050172993+1051693004+1053540267+1056860428
1258+1061383876+1065708792+1069448789+1070725470+1069552647+1069167604
1246+1069889158+1069974275+1069665763+1069596997+1069851676+1070983210
1234+1072754839+1073741823+1073577114+1072859219+1071903221+1071059293
1223+1070060138+1068248340+1066065686+1064496173+1063472603+1062964365
1211+1063461254+1063538606+1062417152+1061526484+1060247340+1057864884
1200+1056343380+1056419089+1055890169+1052766150+1049019582+1048101886
1188+1048803057+1048011468+1045626847+1042955143+1041524281+1040907034
1177+1039078137+1036652526+1035785303+1036747349+1037040257+1034794362
1165+1031645256+1029557201+1028814443+1028290898+1026248612+1023414215
1153+1021636912+1020697339+1020633651+1020735194+1018867025+1016281557
1142+1014863463+1013556767+1011776701+1010768886+1011431529+1012702685
1130+1013064880+1012469435+1011945741+1011884964+1011065004+1009600841
1119+1009794371+1010818090+1009890911+1008846884+1009123962+1007939118
1107+1006452557+1008232548+1012196836+1016097585+1018821629+1020512844
1096+1022835494+1024926760+1025717527+1026036268+1026079871+1027581366
1084+1031603369+1037476220+1044155144+1047748277+1047452981+1047401015
1072+1048802982+1050308060+1051169758+1051523442+1052341162+1054532254
1061+1057348955+1058249628+1057338054+1057423321+1056712967+1052953781
1049+1050882152+1053673617+1057552639+1058361475+1055366177+1050649275
1038+1047997431+1049569035+1053462392+1055373270+1051872571+1045849048
1026+1045236280+1049853804+1050526154+1046141656+1044274607+1045612587
1015+1044922019+1041910220+1039764300+1040051085+1042522614+1043281575
1003+1039706883+1036294363+1035875572+1037725598+1041595959+1044349196
991+1045158629+1047294245+1049919060+1050732450+1050366074+1050634491
980+1052184218+1053516225+1054168864+1055311299+1056874764+1057954033
968+1058621530+1060495075+1063534574+1064818647+1065751126+1069349411
957+1070956630+1067625717+1064954087+1065823550+1067734950+1069377559
945+1069649785+1067346846+1065403863+1065810335+1066515387+1065993710
934+1064167875+1062758441+1063112647+1064624819+1066216955+1065945775
922+1063603489+1062195698+1063676585+1064849782+1062493085+1060253835
910+1060881536+1061394254+1059968320+1058106796+1057826880+1059467623
899+1060906474+1060244278+1058673048+1059204880+1062376311+1063390771
887+1058260902+1052044895+1051122197+1053678769+1054665604+1051923044
876+1045485508+1037664523+1032399661+1031414544+1032243688+1032211807
864+1032076441+1032203369+1031369969+1030637963+1030099560+1026271310
853+1020319315+1017663589+1017395471+1015922946+1014917296+1016287083
841+1018683874+1020767971+1021823423+1022045399+1023019914+1023120785
829+1019522052+1016055251+1016381757+1017488651+1017731459+1018701046
818+1020126309+1021396867+1021691043+1019713566+1017419886+1015725385
806+1013171575+1011980908+1013663238+1014786111+1012178842+1006936604
795+1002634610+1001501807+1001997203+1000089686+996012879+993882041+992887740
781+988700953+981944975+976769188+974518066+974371725+975172422+974872422
768+971041857+965205144+963994317+966360271+963244615+957376841+957230052
754+958828908+955499637+950086344+946240697+943098385+939447462+934659629
741+930081005+928238819+927172242+922845386+917172410+914808546+914263499
727+911474647+906916331+901560155+895498180+891318860+890286106+889781676
714+887777842+886744417+890298277+895651839+896878644+894622819+893513983
700+895018315+897145120+896991984+894038797+890715723+888626698+888459152
687+892265973+898275907+900079194+897889969+897769685+899553858+899793753
673+899647337+898049974+891870552+889100217+894406891+898824688+900812395
660+901577851+901663043+902109982+902292311+901602789+902877901+906954111
646+909153042+907047292+901648707+896366449+896671078+899657491+897304603
633+894068662+897883921+901100897+896746713+894317219+898562916+901038104
619+899289472+900564436+904369615+905151049+902992735+896358385+890619929
606+895926379+904621755+904145697+900853087
##END=
