##TITLE=Sample description
##JCAMP-DX=4.24
##DATA TYPE=INFRARED SPECTRUM
##DATE=12/9/2023
##SAMPLING PROCEDURE=Instrument type and / or accessory
##ORIGIN=Default
##XUNITS=1/CM
##YUNITS=ABSORBANCE
##RESOLUTION=4
##FIRSTX=4397.6552
##LASTX=599.8556
##DELTAX=-1.9287962
##MAXY=1.9598836
##MINY=0.34030071
##XFACTOR=1
##YFACTOR=1.8252838e-009
##NPOINTS=1970
##FIRSTY=0.34157085
##XYDATA=(X++(Y..Y))
4398+187133010+187153272+187750908+188036166+187514126+187175706+187425419
4384+187542651+187374102+187508134+188126767+188577961+188445006+188487980
4371+189124279+189651282+189595899+189482178+189759011+189320732+187611504
4357+186437148+187080125+188552082+189482488+189620113+189223028+188671648
4344+188446672+188722476+189082840+188838613+188268979+188247933+188609653
4330+188732566+188944693+189552778+189663968+188852655+188185105+188654292
4317+189760807+190477911+190801571+190742694+190124143+189576012+189614757
4303+190076483+190539890+190512819+189619411+188373524+188106586+189036715
4290+190230353+191050402+191013779+190455771+190555074+191055806+190742890
4276+189838673+189526932+190255302+191238413+191246038+190390624+189703514
4263+189176462+189042887+189997000+190876596+190412176+189531307+189591850
4249+190464375+190942297+190214564+188929002+188487621+188909230+189404900
4236+189991204+190531906+190485699+189959349+189853220+190384485+190643929
4222+190224573+189398924+189033792+189957374+191053390+191045569+190925349
4209+191450932+191741724+191470149+190997893+190413695+190011809+190210025
4195+190738530+191124578+191522675+191834057+191733087+191395059+191088461
4182+191320230+191954733+191794773+190840365+190632434+191609488+192169930
4168+191500845+190800673+190631634+190818078+191556195+192068226+191475145
4155+190725844+190868024+191600916+192426761+192873237+192432606+191692203
4141+191438866+191336949+191024702+190728717+190796623+191089457+191021535
4128+190741126+190870195+191315903+191911563+192788709+193302209+192922497
4114+192361516+192155382+191998556+191696367+191582597+191701640+191675925
4101+191602941+191904004+192481409+192314852+191305078+190928141+191313830
4087+191572947+192026607+192914708+193496637+193500539+193238499+192903377
4074+192585709+191884443+190990757+190902475+191234560+191191145+191105915
4060+191159045+191094339+190936958+190837573+190949808+191411468+191994393
4047+192411087+192589628+192706451+193219837+193751950+193384614+192591293
4033+192434827+192503451+192046281+191483636+191118961+191049504+191586319
4020+192185506+192299619+192239093+192387640+192651068+192569186+192317677
4006+192267372+192176820+192167807+192684572+193466725+193655961+193051190
3993+192457489+192465980+192829740+192898120+192474601+191974440+191982816
3979+192953274+194452155+195136342+194459731+193429515+192638970+191944937
3966+191778559+192235370+192904422+193352008+193363862+193566290+194018431
3952+194301207+194753675+194936151+194079480+193159719+193183769+193339093
3939+193121202+193025833+193183100+193862128+194917603+195230748+194599527
3925+193900857+193568968+193378116+193447475+193906229+194260094+193916874
3912+193186431+192938040+193026454+193088531+193670508+194687908+195448834
3898+195533786+194395123+192550213+192052208+192993815+193056921+193350245
3885+195134889+195819583+195351457+194869420+193653528+192938318+193576772
3871+194385620+195103867+194804535+193977792+194348018+195029936+194748238
3858+193129921+190978757+192823568+197289058+197736399+195808186+194302807
3844+194022252+194074532+194033077+195207530+196893900+196693464+195474305
3831+195178174+195445030+195068861+193769878+193165254+195560515+197542967
3817+196797241+196233485+195962253+194756695+193500147+193502629+193817880
3804+193052904+193933447+196326519+196459539+195394268+194595086+194035183
3790+194052915+194299215+194364705+194469478+194563949+194987648+195864908
3777+195853952+194830186+194073471+194363137+195229083+195716720+196007349
3763+195646593+194468254+194495880+195653026+195426629+193801684+193682672
3750+195783254+195986140+195170206+196941070+198342737+197296585+196073753
3736+196585424+198043095+198584008+197741444+196621672+196801241+198232918
3723+199561536+200436968+201174562+201876596+202098650+202576295+205146896
3709+208240109+210096366+211460871+214059295+219048473+224112219+227302939
3696+229093233+229646997+229136436+229029229+229451556+228427251+226018014
3682+223599813+221859742+220611978+220655507+221709888+220927017+219488499
3669+219804926+220093972+219385881+218811659+218756080+218674459+219040864
3655+220049986+220032074+219655317+221798318+224705266+225497215+225473345
3642+225486602+225073990+224856998+225715155+226620074+226502565+226846504
3628+229027580+230162374+229354130+228167709+228201082+229826289+231282555
3615+232038975+232571791+232638766+232622651+232888805+232968255+232936335
3601+233154193+233579818+233918173+234047976+234215496+234373008+234620549
3588+235502218+236275994+236257397+236203990+236617860+237135621+237312464
3574+237436831+237918933+238516144+239272058+240366539+240919503+240523463
3561+239706663+239194176+239374056+239941192+240458088+240719573+241048866
3547+241709117+241867363+241456318+241418716+241590841+241625961+241845109
3534+242200314+242403346+242572858+242698155+242564743+242332566+242208118
3520+242192444+242206730+242035553+241671433+241535033+241686912+241589502
3507+241263180+241182310+241432546+241862547+242115803+242017527+241798673
3493+241483455+241215243+241223096+241190572+240970706+240854177+240820264
3480+240535300+239948425+239411103+239256563+239482144+239885515+240231380
3466+240189925+239748233+239438027+239641109+240070048+240169369+240033524
3453+239955952+239572631+239033432+239197425+239887164+240383553+240886342
3439+241390861+241359039+241074941+241090093+241435174+241744352+241501807
3426+241029207+241133785+241636378+241759194+241637554+242044059+242831927
3412+243124858+242857594+242731692+243031302+243614047+244187077+244279278
3399+244090010+244341012+244895902+245372225+245970317+246371517+246157300
3385+245888794+245911489+245970938+246177856+246735767+247421032+247924523
3372+248356075+248998481+249610354+249902028+250304681+250957209+251325803
3358+251323158+251165483+251140077+251643813+252438669+252979974+253273886
3345+253600240+253874738+253827796+253676244+253972621+254756651+255383905
3331+255503210+255435957+255377733+255328310+255394910+255492369+255380264
3318+255044881+254703865+254484619+254439637+254588494+254628921+254415896
3304+254331940+254637297+255280127+256061023+256755513+257515183+258647985
3291+259989256+261244090+262429564+263536193+264534212+265551268+266665702
3277+267665663+268273944+268688842+269229658+269820158+270307812+270469732
3264+270021444+269368817+269130354+269283947+269794851+270275957+270144423
3250+269854005+269729459+269573989+269531880+269465150+269395284+269793120
3237+270354998+270666935+270833002+270600417+270157076+270135279+270098150
3223+269617061+269235438+268987587+268584836+268432011+268518546+268191768
3210+267299780+266714423+267282653+268040591+267847078+267281101+266863460
3196+266386452+265853360+265359273+264881465+264488658+264220642+263987894
3183+263597372+262793929+261814785+261259781+261282998+261394842+261101110
3169+260699894+260569715+260400791+260034238+259942266+260383255+260980450
3156+261263617+260974653+260295658+259675605+259418136+259621691+259827140
3142+259515318+258941112+258505968+258072767+257540653+257270662+257309293
3129+257135617+256502437+255911267+255716284+255404820+254782841+254031857
3115+252989983+252073194+251595059+250876535+249756273+248711182+247781151
3102+246877277+245994482+244950159+243801666+243043205+242807288+242607179
3088+242121713+241467029+240896497+240646670+240735557+240858536+240632367
3075+240033524+239510015+239362659+239399821+239427039+239362855+239054413
3061+238578629+238377099+238697689+238992711+238832293+238737251+238838302
3047+238727405+238586564+238621652+238684039+238573502+238109262+237379374
3034+236704134+236577694+237122102+237552380+237326718+236818802+236368457
3020+235983014+235747130+235758527+235949542+236081224+235848916+235255117
3007+234704162+234426921+234183331+233794035+233471518+233397717+233545955
2993+233927365+234404471+234744540+235165610+235958114+236817463+237200196
2980+237034325+236817398+236902546+236967578+236585417+236025482+235739620
2966+235568328+235342486+235222332+235158622+234946266+234696619+234709599
2953+234806519+234669826+234559550+234782436+235168680+235358258+235250219
2939+235139339+235193987+235137347+234934723+234810209+234550374+234123377
2926+233939464+233909633+233609060+233053550+232569929+232313963+232246775
2912+232212129+232079500+232051858+232285733+232477597+232338895+232084937
2899+232166803+232596804+232936857+232976974+232866192+232788848+232876739
2885+233061632+233228907+233526917+233919838+234034457+233835409+233616130
2872+233427074+233287066+233350743+233468448+233527178+233784663+234204426
2858+234429648+234353399+233969474+233419286+233144331+233005825+232581391
2845+232258450+232254515+232271675+232335271+232521306+232809421+233155972
2831+233372328+233450047+233568144+233784124+234018489+234032547+233798362
2818+233815799+234180931+234289231+234059912+234038980+234427574+234943964
2804+235212503+235189269+235180076+235252081+235359254+235645851+235987341
2791+236083363+235911254+235730476+235741203+235831201+235881293+235914683
2777+235981479+236009562+235874664+235718769+235636773+235549959+235530464
2764+235617212+235709806+235757711+235786871+235861260+236061859+236349615
2750+236586299+236721670+236721800+236656817+236799389+237148977+237352287
2737+237326669+237283581+237296006+237358867+237498369+237692487+237942918
2723+238221204+238355400+238341195+238355220+238356265+238369637+238610125
2710+238967077+239189114+239332682+239465147+239467090+239399070+239389877
2696+239339556+239373060+239809772+240333182+240400321+240259676+240299123
2683+240381773+240393251+240402509+240589557+241000798+241181020+240862944
2669+240483020+240396060+240467803+240544656+240541293+240436519+240424437
2656+240439083+240191786+239913517+239931428+240074963+240162331+240112630
2642+239830671+239576942+239651117+239835487+239822915+239658987+239460037
2629+239245885+239088031+238985331+238832489+238714784+238761383+238813876
2615+238645262+238360477+238299527+238455438+238445576+238176124+237932191
2602+237860023+237803710+237679163+237640288+237667995+237552707+237369953
2588+237272952+237144421+236944214+236785951+236725752+236771714+236780726
2575+236624848+236347737+236011048+235807281+235867840+235972874+235858239
2561+235480225+235055791+234780248+234577347+234462336+234517425+234564007
2548+234492035+234413255+234341969+234184393+233935855+233698682+233556127
2534+233446912+233297287+233195730+233147564+232993236+232732878+232577603
2521+232636627+232730559+232702329+232652073+232644644+232547071+232330078
2507+232173155+232102685+232022387+231966253+231976866+232054127+232157252
2494+232238873+232329638+232444534+232518939+232551545+232647942+232777338
2480+232842974+232893802+232991799+233114827+233161475+233129391+233162830
2467+233253970+233298952+233327329+233352017+233327770+233320145+233339706
2453+233334056+233445687+233705491+233902155+234023812+234223758+234478386
2440+234651114+234761815+234931572+235159553+235351809+235402767+235366406
2426+235418817+235519296+235662129+235971356+236288681+236440870+236504775
2413+236577678+236679871+236785870+236906007+237045052+237166268+237253016
2399+237356108+237596334+237932076+238220094+238447617+238569927+238501890
2386+238161625+237441925+236233739+234290407+231454630+228088602+224818073
2372+221735963+218485680+215385349+212835500+210481319+208725476+208569140
2359+209988604+212452587+215830192+220382397+225118336+227457887+226178627
2345+222902808+220653189+220272105+220899930+221887172+222771519+223378706
2332+223971655+225136035+226803056+228275633+229476407+230985150+233025728
2318+235136825+236772628+237891666+238927009+240154543+241465380+242732313
2305+243887565+244892457+245741928+246340445+246688695+247039164+247544958
2291+248146397+248756964+249295707+249757922+250131495+250291913+250220496
2278+250169522+250407838+250811519+251060954+251100793+251061477+251107684
2264+251354066+251645887+251796688+251968943+252336834+252740401+252960104
2251+252994441+252962537+252926861+252950650+253120358+253400326+253641434
2237+253793019+253916912+254004280+254071060+254164747+254269129+254435653
2224+254712045+255025549+255218556+255167876+254982559+254931062+255099659
2210+255351560+255570659+255715990+255824160+255884294+255860145+255932264
2197+256198713+256492950+256662691+256681353+256668324+256773490+256973648
2183+257166166+257341523+257459130+257493287+257524620+257613262+257798089
2170+258014543+258198260+258385259+258549546+258609076+258484056+258362270
2156+258556077+258930532+259185372+259324204+259444995+259541768+259610442
2143+259714872+259906035+260122031+260307316+260463619+260521451+260511654
2129+260562302+260670946+260752012+260787491+260908494+261170241+261438175
2116+261594805+261632162+261703709+261942597+262179100+262198922+262108892
2102+262073413+262064400+262073380+262138200+262273767+262486139+262656680
2089+262648434+262561164+262577018+262722120+262922622+263091351+263200075
2075+263265108+263284897+263315886+263429836+263586139+263690113+263715763
2062+263715469+263795882+264014165+264243746+264318721+264216511+264063049
2048+264031831+264151071+264274229+264285511+264240660+264262473+264381272
2035+264544857+264724264+264905009+265065149+265192879+265229682+265213730
2021+265313801+265576119+265883402+266045289+266020602+266003915+266134633
2008+266331461+266466718+266584227+266781284+267024743+267230388+267407084
1994+267668929+268007006+268252914+268406507+268531543+268582354+268675470
1981+268921101+269194619+269449655+269714764+269934875+270106869+270294391
1967+270516608+270740393+270963181+271185268+271385166+271618126+271933361
1954+272225150+272387380+272504073+272709489+272994698+273307223+273637887
1940+273964617+274279248+274502053+274618239+274837158+275212071+275566443
1927+275819323+276110508+276528557+276861148+277087741+277407434+277712660
1913+277928999+278277004+278791744+279211720+279496668+279855220+280339624
1900+280786442+281084060+281358297+281713616+282123371+282657672+283247683
1886+283681570+284031435+284437108+284879975+285314058+285725315+286103395
1873+286490814+287069493+287838845+288436758+288860587+289408146+290039564
1859+290546271+290943781+291375578+291928786+292630019+293382978+293990329
1846+294599573+295527432+296248879+296491408+296849666+297558606+298310879
1832+298954444+299714620+300627262+301547806+302525922+303299519+303871928
1819+304581717+305378303+306135312+306905643+307810872+308787583+309555009
1805+310160302+310926159+311880534+312823284+313628295+314126545+314687232
1792+315987717+317348451+318175047+318948579+319745491+320499038+321511898
1778+322603490+323297180+323801536+324828895+326393723+327831457+328792004
1765+329276409+330039327+331387554+332545501+333494749+334372613+335097914
1751+336112896+337507265+338762197+339812349+340741253+341634694+342729159
1738+343579038+344177637+345773454+347698923+348759264+349694993+350678006
1724+351700826+352650989+353370672+354599317+356748049+358566704+359731899
1711+360670959+361459414+362518808+363942337+364915064+366063573+368155224
1697+370020413+372009004+373905215+375209162+376476339+377461769+378593983
1684+381286486+383903849+385189803+385992855+387283218+389337282+391154403
1670+393086272+395669642+397695754+399264991+401316443+403481241+405091557
1657+406266713+407859591+411738809+415276391+416885988+419333546+422880238
1643+425451297+427317596+429125148+431304804+434632218+437949150+440131418
1630+442468112+445809045+449411284+452948343+456692271+459844752+462973265
1616+467872364+473244895+477695021+481967373+486433630+491316957+496642889
1603+502099834+507368032+512591559+518281301+524540971+530903014+537118306
1589+543290819+549267109+555232851+561994788+569709532+576996756+583632514
1576+591300104+598544485+604537658+611327743+618648275+625865096+633738347
1562+641042161+648697930+660422251+670799553+679052190+688277816+697482542
1549+705813747+713609410+721563711+729221374+737243924+747958030+757466905
1535+764693653+772332441+780780943+788580917+796373053+804241406+811613860
1522+819846709+828590477+836252908+843082701+849441087+855626205+861212235
1508+866169003+874796389+885258725+891517186+895489406+899622876+905689000
1495+912256639+916796990+920373562+924114519+928459201+933349549+938223634
1481+942208393+945109268+948452617+952069289+954130865+955777134+959100499
1468+961830000+962121021+961718711+961800022+960938975+958696818+958502325
1454+959600251+958822213+957094567+954537028+952318904+950192215+945742252
1441+941697734+940649640+938571606+932578760+926201957+921002432+918044672
1427+917287142+918639320+923878815+930304666+933718289+935287950+937650865
1414+940025537+942713958+946776240+951113151+956773177+964026375+968136007
1400+968782054+970076432+972454500+975033592+978981255+982488533+982171453
1387+977874316+974526003+976619646+982912656+988229543+990436695+992179688
1373+993891398+994659836+995958068+996960968+996248697+995160306+993907203
1360+992749257+993538593+995457075+997325006+999295409+998280491+993472173
1346+988689587+984068839+979229890+976938816+976884020+974888604+970835727
1333+968340427+967497406+966971791+968233515+970855058+972659051+974226883
1319+976569096+979039251+981479428+983825037+984835970+986269264+989990366
1306+992815089+994209458+995560134+995151685+994546653+996109456+998390931
1292+1000529376+1003979573+1010134453+1017880480+1023787378+1026231540
1281+1027729424+1030662366+1035879198+1042950965+1047064059+1045598241
1269+1043753103+1045720763+1049233788+1051155600+1052415495+1054014284
1258+1054923530+1054912362+1055996638+1059579741+1063187531+1064677774
1246+1064989826+1065097848+1065208157+1066164295+1067910032+1069034278
1234+1070349164+1072249489+1073229335+1073576981+1073631188+1073356233
1223+1073074551+1071446830+1067673218+1064878080+1066140653+1069627554
1211+1070877914+1068652019+1066087556+1065536078+1067467687+1071443956
1200+1073266301+1069638657+1065757218+1066976360+1068885763+1066157895
1188+1062666945+1062074975+1060179875+1055960195+1054948021+1056762986
1177+1056603891+1053237683+1049718322+1050550829+1054586008+1058175315
1165+1059747392+1056675470+1049588421+1042707686+1039703426+1041470518
1153+1042971146+1040591511+1038584143+1039646998+1040166539+1037898518
1142+1036901104+1039650198+1041138613+1038522294+1034343238+1030333465
1130+1028642393+1029361456+1029100216+1027635966+1027668360+1028206057
1119+1025651064+1021332963+1020181090+1024147497+1029549484+1028578324
1107+1020832558+1014748866+1012201580+1010272518+1010449508+1013093845
1096+1016088766+1019278180+1020589539+1018078500+1015911318+1016654350
1084+1017554779+1017881133+1019730125+1025275989+1033967640+1038796531
1072+1034158149+1027127658+1027284402+1032606122+1037029569+1040997609
1061+1044016106+1043482981+1042403602+1044054313+1049542900+1059612657
1049+1065682634+1057895200+1047117744+1046835800+1048277061+1039906278
1038+1031084661+1029856245+1034536294+1045667404+1055645924+1054067773
1026+1045784048+1037785467+1034451456+1037593521+1039342457+1034972891
1015+1030304859+1028654867+1030701617+1035667659+1037972580+1036682185
1003+1034152728+1030094626+1029299150+1035755893+1043550707+1044371066
991+1038191630+1032497185+1032154373+1034863693+1035841123+1035083069
980+1037275722+1043163288+1048078584+1049769068+1049101861+1047963116
968+1051077489+1059087108+1064759738+1064212571+1061404698+1059270237
957+1057682289+1058734042+1058871585+1052626642+1050556185+1059098014
945+1068010740+1071705196+1072134283+1071070579+1069462255+1067149431
934+1065119270+1063896210+1063710925+1064755297+1065476254+1065716334
922+1066859912+1068562675+1069952733+1070235133+1067871107+1063959887
910+1063504741+1067994739+1072295402+1073704400+1073711846+1073545566
899+1073741823+1073371189+1072914998+1072029264+1067038404+1058910575
887+1053447393+1053117447+1056463801+1061820070+1065282480+1063805886
876+1060818149+1060441898+1063299407+1064237193+1057695025+1048918536
864+1046346106+1049807013+1050920027+1044771808+1038446926+1039796362
853+1044210665+1043311477+1041004597+1040978342+1038362219+1034099044
841+1032506982+1032908638+1032095463+1029352705+1026703208+1023954506
829+1024425065+1031781257+1038134875+1036922134+1033894166+1032964544
818+1029855853+1023376121+1019386986+1020641330+1024016812+1027533690
806+1033568596+1035930271+1025967687+1018425688+1026474297+1036225211
795+1030305708+1017849915+1016030901+1021921406+1022875650+1018222443
783+1013260647+1008641662+1003493209+999522231+998122507+997534390+996211405
770+994458746+992147882+988617093+983716165+979668774+979310418+980555096
756+980900194+982718751+984887304+981906490+975224885+970424535+966305629
743+962046698+961560596+962701496+960731028+956216083+952644932+953462548
729+955690598+951435195+939955851+929398751+926061475+927625323+929286418
716+929463212+926030845+921041226+922461000+929812294+934346898+936427805
702+940396237+941195958+937311907+936658219+940190902+938964511+930974485
689+925068828+924188645+925146155+929316199+935862808+937849865+935390878
675+933942955+933611377+932972971+930222832+927229479+932015396+939738630
662+942577917+938909846+931961581+926645412+927075152+929571235+928882736
648+931638035+942446252+958158010+973880609+974130812+958429765+948423163
635+949383154+947659885+930380295+904573766+888887283+888101408+887889020
621+880603624+876629510+879859155+887464505+901873393+921997103+932083645
608+922586460+908922432+907739211+924172318+943697984
##END=
