##TITLE=Sample description
##JCAMP-DX=4.24
##DATA TYPE=INFRARED SPECTRUM
##DATE=12/9/2023
##SAMPLING PROCEDURE=Instrument type and / or accessory
##ORIGIN=Default
##XUNITS=1/CM
##YUNITS=ABSORBANCE
##RESOLUTION=4
##FIRSTX=4397.6552
##LASTX=599.8556
##DELTAX=-1.9287962
##MAXY=1.6946336
##MINY=0.13255753
##XFACTOR=1
##YFACTOR=1.5782505e-009
##NPOINTS=1970
##FIRSTY=0.13681726
##XYDATA=(X++(Y..Y))
4398+86689191+85816771+85935565+86625366+87015425+87824889+88596926+87734203
4382+86189449+85879246+87084245+88588731+88971105+88597965+88758566+89496830
4367+90187953+90833464+91182802+90550028+89808780+90110504+90485278+89894943
4351+89313267+89924259+91005942+91138351+90616884+90598151+90748584+90237030
4336+89646611+89594664+89558503+89285424+89279986+89732709+90477422+91347293
4321+91848867+91982267+92482065+92960895+92247414+90869955+90643584+91647459
4305+92281866+92291138+92352754+92274757+92090184+92356766+92999992+93350822
4290+93127425+92975869+93626629+94993957+96145640+95979723+94754585+93692767
4274+92953492+92460784+92884730+93845334+94153412+93892947+93787240+93979300
4259+94333397+94400857+93741344+93088469+93518618+94565225+95344834+95911083
4243+96309309+96453133+96129938+95212312+94497510+94698700+95454026+96055794
4228+96294694+96469646+96932085+97396015+97253655+96817143+96763826+97133936
4212+97460029+97694321+98300782+98792980+98615431+98263620+98238118+98538955
4197+98786144+98803876+98728353+98576919+98334120+98243670+98487243+98767752
4182+98999099+99232542+99360116+99387771+99162098+98887481+99167669+100140254
4166+101103785+100855094+99545114+98664613+98445068+98296930+98309761+98583849
4151+99210949+100068026+100502329+100404288+100257556+100444008+101000240
4137+101270476+100854698+100539736+100710789+100670804+100118850+99726223
4124+100301998+101662490+102776331+102713337+101637904+100916937+101155044
4110+101547671+101662868+102049339+102796035+103081766+102642638+102240475
4097+102566058+103465698+104442881+105009035+104817598+104286736+103968622
4083+103833173+103806718+103984125+104082345+103900784+104023647+104342951
4070+104221335+104201762+104567038+104541857+104003272+103489585+103313018
4056+103765826+104489579+104734909+104764263+104696321+104355074+104456637
4043+105211623+105666669+105239391+104630655+104704120+105192825+105335959
4029+104941179+104669658+105114517+105771319+106016555+105922063+105611700
4016+105545600+106102161+106457750+106280191+106414790+106775137+106462914
4002+105684589+105449862+105494285+105114441+105048652+105838128+106864993
3989+107480970+107584327+107731531+108021632+107797187+107069894+106372879
3975+105919212+105790731+106065821+106561758+107016823+107238369+107173666
3962+107373884+107743757+107604910+107332502+106830456+105527831+104720388
3948+105796660+106500010+105407139+105953900+108554127+109391321+107666252
3935+105014294+103868031+105542012+106982918+105733666+104469846+104915148
3921+104260121+102581268+103596605+107199432+109323039+108991168+107365811
3908+103074590+96618898+93252195+94876863+99412347+104964358+106640283
3894+102684493+100476072+104170435+104512484+101040366+101112670+100967449
3881+101393500+105820633+105854169+101203658+97095726+94935193+97821386
3867+100573301+99895123+102382995+107020713+106832155+98857740+85618592
3854+83990167+100412086+111448421+112380937+107545702+101361238+96117428
3840+92179199+93964326+100928276+105119030+106902381+108977110+109544302
3827+108443821+104054257+96105032+95517398+101072005+103520591+109409552
3813+116266558+115976466+109905131+105662477+105087674+101511548+101288632
3800+108153078+111947833+114693592+118597115+120025001+119645525+118635835
3786+117560751+117647359+116827784+115551604+118424438+122571902+122526309
3773+118443982+114928546+116076612+119086896+121714966+122052162+118641330
3759+117355709+119557747+117017106+107855649+102662645+108978328+112412415
3746+111331100+119508727+128888170+127519936+119817881+115605752+121570699
3732+133420019+141558737+142976879+142805618+145344343+149710389+155611889
3719+162007315+165047727+162301533+158547188+164546360+178623287+190059651
3705+195220998+198213069+206511623+218483665+228180949+234281335+235727368
3692+233996257+238667058+254486425+269151485+276511774+279470044+279905546
3678+277613567+279778349+292700571+302216256+308223908+321533197+335820103
3665+345768080+353468926+359408088+362545144+365779146+371140295+371949664
3651+368287770+373589136+392307462+411008679+423152690+430536790+437042484
3638+443597048+448688055+451694364+451674650+452616994+465146787+480718729
3624+487415785+487124569+487592720+495086493+503878066+509239178+514157405
3611+518956781+523757856+531115558+538510799+542657725+545655612+549880147
3597+554605728+559830126+565545825+568497448+567382361+568057962+574048638
3584+580436614+585409489+589947711+593205392+595454940+598319928+599511831
3570+596680229+594559087+599222164+606339634+609868930+611493258+614430190
3557+617296877+618358185+619815283+622140629+622970958+623135430+624489427
3543+627254220+631291510+633744543+632815342+632850767+636487206+639806408
3530+638837703+635265391+633529011+635017040+638597057+641632785+641964373
3516+641412759+641933329+642592426+642782013+642260310+640581901+639603075
3503+642018983+645400122+645661767+645457225+647103306+646731157+643963947
3489+642886097+643963569+645283123+646392998+646051062+643276525+641505513
3476+643345410+645633669+645615995+645138553+645332294+644922681+643467924
3462+641951759+642054786+643798379+644947834+645186743+646181205+646614233
3449+644711115+643765674+644933784+644898435+644170150+643422378+642086812
3435+642610554+644383077+643842566+642051916+641508836+641121430+640110276
3422+639747493+639500275+638881739+638979478+638804393+637369124+635695020
3408+634753960+634862576+635279063+635587009+635447953+634635752+634928214
3395+635859908+634826018+632822706+632093515+632321397+631857854+630692839
3381+630569230+631413156+631275422+629440019+627402717+627090617+628605044
3368+630502422+631129833+630297804+629461395+628944865+628138064+626902805
3354+625565954+624947041+624518318+623946876+625065589+627141941+626994237
3341+625265033+625250530+626814961+626901936+625613049+624680864+623854084
3327+623872628+624019690+622030502+619327003+617359947+616154561+616698017
3314+618444405+619134584+618263241+617443599+617163902+616506693+615251116
3300+613852026+611941733+609650377+609406860+612179849+616169931+618125847
3287+615813947+613283002+614575062+616232586+614987129+613510883+614053321
3273+615606798+617529631+617722654+613787257+609593237+609251150+610333607
3260+610545324+610768372+611010718+611017969+609823611+606246503+603039013
3246+602809167+604211127+604497622+602389848+600200839+599574410+599082165
3233+598066403+596810976+595848540+594987696+593587549+592993599+593728077
3219+593887904+593018147+593024983+593934697+592450180+587902780+584623006
3206+584872075+585777294+585329349+584777243+584565563+584184313+583722847
3192+583131502+582506697+582147993+581556687+579524332+576735519+575756844
3179+575898959+574443786+572616880+571870581+570323901+568266961+567453777
3165+566865832+566210663+566091094+565932778+565910647+565140442+562561609
3152+560398621+559718300+559170651+558949681+558892238+557955068+557217493
3138+557273387+556290746+553952938+552040605+550956864+550039105+548814836
3125+547145151+546051176+545395289+543632812+541188126+538894693+536837148
3111+535680254+535014926+533815846+532524126+531620946+530335948+527772298
3098+524782153+523188303+522188781+519953282+517941850+517749204+517896530
3084+516926013+515139139+513259889+511624647+510464316+509913948+509400100
3071+508657200+507560429+505624983+504143110+504083628+503669370+502031598
3057+500197214+498355240+496240932+494372219+493085447+492023572+490873627
3044+490074833+490028984+490109426+490004059+489524804+488052562+485974586
3030+483818358+481826980+480343823+479176203+478154399+477301712+476741411
3017+476371566+475737659+475162667+474988603+474606295+473600994+472640182
3003+472841514+474193698+475734864+477016161+478381449+480975237+485500468
2990+490895003+495833019+499455636+501160443+501705826+502312465+502731029
2976+501717571+499163740+496139945+492590029+488140482+483809823+480231619
2963+476745188+473137338+470223783+468480114+467605258+467043069+466678323
2949+466997863+467426057+466613629+464946437+464162560+464657600+464929631
2936+464025279+462473916+460957034+459698284+458267546+456147990+453338330
2922+449698227+445338300+441526889+438938464+436449251+433385764+430406307
2909+428004448+426344507+425371572+424541356+423574237+422508586+421198247
2895+419936363+419318318+419377384+419522255+419114493+418143371+417229352
2882+416693259+415756844+414038706+412446706+411099167+409218180+406976752
2868+405141349+403528162+401620474+399810035+398261466+396399778+393975220
2855+391267945+388488611+385439929+382290788+379737561+377935694+376450007
2841+374991435+373406536+371503229+369563138+368106606+367008664+365849731
2828+364621269+363525556+362594580+361647628+360587642+359639671+358736302
2814+357467581+356011352+354721105+353538189+352483226+351557839+350561376
2801+349372947+347956334+346483185+345158268+343910433+342737488+341488670
2787+339979416+338578967+337384911+336101047+334841579+333867096+333057198
2774+331926816+330400378+328970736+327719464+326406330+325276590+324547436
2760+323892758+323184338+322622376+322154074+321595851+321004809+320505878
2747+319887456+318881249+317693613+316723435+316110148+315818196+315497032
2733+314702014+313812788+313420585+313283418+312952925+312367737+311602177
2720+310816128+310338461+310079592+309573221+308914974+308416157+307960375
2706+307315365+306434070+305613257+305166596+304786138+303997276+303022340
2693+302276569+301633221+300867585+300087069+299274717+298204251+297055363
2679+296101556+295237143+294451605+293769168+293078121+292500636+292052672
2666+291465047+290806781+290322221+289877580+289295734+288753599+288412607
2652+288094842+287708436+287437161+287279203+287077720+286913682+286926353
2639+286982700+286814017+286448232+286277434+286415734+286582831+286676831
2625+286663896+286491248+286265217+286022663+285863365+285952927+286150898
2612+286247976+286127011+285747913+285424936+285388661+285303328+284871169
2598+284253539+283786654+283588249+283380459+282971827+282475446+281888030
2585+281293759+280859144+280335326+279543858+278760491+278230932+277853402
2571+277368275+276793793+276320582+276040904+275963917+275843386+275419120
2558+274819637+274366366+274255126+274340874+274328675+274280353+274380453
2544+274530517+274684113+274869337+274997478+275052655+275077316+275266450
2531+275818272+276369414+276426554+276178940+276112339+276295826+276508073
2517+276581830+276502181+276281116+275802712+275213350+274879591+274754037
2504+274622856+274471942+274292892+274091579+273854350+273547234+273339426
2490+273268670+273056726+272739074+272532417+272273888+271850339+271476566
2477+271256880+271059815+270810048+270526367+270157938+269749665+269503108
2463+269429842+269306913+268983029+268537916+268157590+267829137+267455950
2450+267146549+266947351+266750646+266500501+266182490+265874846+265665035
2436+265434113+265040173+264652710+264455192+264193850+263681834+263209434
2423+262992693+262914026+262793892+262582514+262348590+262097557+261886160
2409+261941790+262237141+262401292+262251058+261993247+261904779+262002802
2396+262101145+262105224+261994229+261718573+261250082+260364859+258636788
2382+255781185+251788195+247000715+241862198+236536662+231121412+225746157
2369+220566947+216089774+212872974+210881445+209993296+210736196+213620067
2355+218485949+225176226+231934822+234898757+232438322+227136277+223331117
2342+222210365+222638842+223634569+224456363+224950120+225495314+226658571
2328+228493031+230327527+231777658+233375568+235586368+238093633+240268064
2315+241839557+243175237+244628011+246189628+247768466+249128580+250135221
2301+250977919+251814556+252630232+253345959+253887509+254274972+254584145
2288+254892922+255206817+255348931+255221206+254920700+254503496+254071789
2274+253706627+253344354+253040449+252899637+252907549+252947563+252877601
2261+252782732+252758505+252727385+252733258+252801464+252807676+252648265
2247+252387621+252249057+252238727+252193805+252091854+252014226+252045780
2234+252123370+252212631+252390529+252578718+252682198+252727234+252750461
2220+252741850+252645357+252502827+252475956+252614370+252799443+252958402
2207+253152067+253411182+253638516+253740636+253745961+253807973+254018935
2193+254260507+254434194+254509784+254458761+254399544+254434383+254508462
2180+254537712+254444259+254270081+254141619+254022806+253894722+253860109
2166+253874083+253906071+254050130+254263245+254431702+254573344+254737023
2153+254869488+254951970+255038511+255189935+255488855+255895013+256201392
2139+256300207+256416471+256777667+257184410+257373600+257426077+257550271
2126+257775471+258030922+258288243+258453376+258529683+258665981+258814591
2112+258910291+259044286+259153903+259165818+259222845+259394681+259570521
2099+259690561+259873331+260258472+260739104+261025014+261053244+261076659
2085+261249364+261517864+261811402+262062321+262215199+262289070+262464702
2072+262840401+263097703+262979041+262857641+263145609+263616743+263975429
2058+264251670+264469883+264616001+264735229+264904875+265108625+265232913
2045+265189539+265095048+265287977+265779221+266248562+266567083+266784182
2031+266954470+267080326+267193587+267354566+267519794+267487862+267176234
2018+267051020+267537279+268264072+268743591+268990884+269174032+269365186
2004+269570144+269738638+269885964+270178672+270440014+270114544+269673982
1991+270144908+271211919+272186232+272924431+273443245+273870873+274230559
1977+274561656+274950894+275376614+275596603+275346741+275266185+276136320
1964+277300239+277942530+278215845+278311110+278248853+278181704+278175171
1950+278099204+277751962+276807578+275371667+275001142+276347377+277591568
1937+277811368+277578860+277345332+277260641+277259716+276836224+275619300
1923+274596759+274197003+273740598+274323143+276123329+276968255+276487924
1910+276235551+276984815+278017874+278660807+279018964+279111831+278704465
1896+278280595+278389117+278000785+277176290+277979976+279830278+280928257
1883+281496526+281991528+282401443+282732937+282836435+281634505+278341418
1869+275929852+278004882+281885613+284049186+284702807+284980597+285356315
1856+285883532+286369489+286434485+285605194+283413410+280466148+280504689
1842+284551591+287708965+288585237+289178451+289308952+287134955+284515184
1828+285051295+287014651+289083431+292109302+294461971+295330898+295831924
1815+296007991+295045895+294145924+295219808+297263436+298034076+296724058
1801+294984940+295454903+297259452+296882091+294073885+294191640+299349211
1788+303648750+304855402+305095727+305300175+306068322+307581692+307050982
1774+302992202+299831505+302843384+309001648+314094279+316029555+315471690
1761+316340088+318596151+320602409+322606816+322073405+318910442+318560840
1747+322697871+327334588+330100212+331546396+334104004+336633664+335339225
1734+335320229+343237475+352581192+360323807+366011937+369652115+371878626
1720+370526253+366756499+369819608+381365967+392631308+400142491+403429215
1707+404392972+406744376+408513424+408148979+412270602+421910746+435666772
1693+450371940+459496499+464738722+467114636+466243142+472654269+490201274
1680+505241127+513620406+518838346+525914877+532729122+538833474+550083292
1666+561462837+567063387+572173769+581007678+588174735+587918907+580340424
1653+580353906+594090898+600768882+604084723+616049495+629530356+636561077
1639+637227576+634135651+637673369+653171818+666814281+674471695+681573794
1626+690650466+701939410+717493526+732187402+742210571+754824356+771996002
1612+785262540+793251995+799046475+803793394+806760312+808276326+808911781
1599+808154568+805816004+802114683+797024771+790258036+781559103+771799995
1585+762344528+753832010+745483095+735095934+721318268+709940648+706011521
1572+701064818+693249994+690012669+690606506+689673603+683403117+669470760
1558+664698992+681563673+698416647+710966758+722182209+733430139+742260121
1545+747124644+750212414+758262145+784488482+814210390+832769493+848911781
1531+867701108+881771538+889556754+894577251+896288668+894435703+892850879
1518+891834438+890884087+889204017+882741300+870181672+854714494+851279802
1504+865124239+874958502+876594612+876165512+880401226+889153636+894801054
1491+895341565+897834139+907382662+918351424+926176294+932081656+936516625
1477+936881145+933763841+932894159+939839075+949514191+953701036+953770148
1464+956273826+959313935+954588241+942622676+940339327+949872064+955719643
1450+954373502+948860834+945267071+945850409+946743959+944057795+935678893
1437+924299537+918633160+917335964+913262116+907722408+905259745+906270672
1423+908817630+909565327+909102010+913815543+922608590+929622240+934155628
1410+937195663+938830791+941043820+945894293+949935436+950169511+949226336
1396+950025546+954381735+961481493+964839670+961684147+958166898+959425270
1383+962492118+964574928+964974798+963670351+963235887+965828693+968237351
1369+967430512+965625964+964582331+963534619+962888438+963653507+965116875
1356+964286923+960679715+958706125+959694317+960124777+958790495+957283318
1342+954912427+950646424+946972445+946710876+947607674+945331500+941349122
1329+940083725+941250628+942545935+943962020+945954342+948393665+951196830
1315+952766774+952273546+952449839+955075955+958645925+961499243+963234301
1302+964390856+965894784+967771995+969279851+970461633+971791988+972800121
1288+973711044+976434974+981280614+986580204+991105964+994564977+997067748
1275+998379446+999140135+1001270153+1004439876+1005734580+1004919886+1003977088
1261+1003021224+1002511077+1003015030+1003399038+1002570446+1000474795
1250+998672135+998314186+999177901+1001125885+1003548517+1005243996+1005667582
1236+1005623245+1005504205+1005340375+1006593913+1009007254+1010575687
1225+1011791535+1013677583+1014704599+1013399321+1011537292+1011505191
1213+1013039106+1015309388+1017650217+1018546638+1017672273+1017058948
1202+1018999606+1022603264+1024996362+1025861361+1025888553+1025260500
1190+1025280365+1026527860+1027789783+1027882536+1027765839+1029005706
1178+1030041106+1030315742+1032621373+1036130540+1037487180+1037647460
1167+1039059315+1040505159+1041029883+1043680547+1047947683+1048682615
1155+1046872024+1046903521+1048620452+1050328167+1050830987+1050387989
1144+1050599707+1051462666+1052841135+1054637979+1055383108+1054653992
1132+1054182744+1055025990+1055617334+1055272906+1054083268+1050360797
1121+1045901960+1044275215+1044003978+1043664912+1045419835+1047912410
1109+1047566999+1046107182+1045885645+1046245633+1047583390+1048929606
1097+1047317289+1044722443+1044826301+1045364243+1044558084+1045847425
1086+1050290703+1052805710+1048278063+1040078778+1036282209+1039816982
1074+1048009847+1054823789+1054982181+1050770108+1047591698+1047386779
1063+1050538827+1055438700+1059007764+1060313419+1060433592+1061371102
1051+1061690302+1057608523+1052132866+1050454986+1050804098+1049504485
1040+1048125260+1048100259+1046370261+1042194898+1039769472+1041994056
1028+1045331009+1044333073+1040841581+1037856459+1033901046+1030141942
1016+1028282330+1027811838+1028953135+1030325108+1031489971+1034848602
1005+1039149274+1039673470+1036639554+1035104808+1036098892+1037118732
993+1036731628+1034887727+1034766271+1038858776+1043958432+1046072210
982+1045807544+1045190896+1045262274+1047891865+1052080900+1053651071
970+1053422509+1055673606+1059896404+1062597826+1062470780+1060247857
959+1059531809+1062829635+1065834849+1066262816+1069092039+1073741823
947+1073241571+1068672531+1066072776+1065899505+1066834296+1068734166
935+1069959379+1068847993+1067089898+1067696424+1069349756+1067275708
924+1062207700+1059528334+1059678870+1061012247+1063555579+1064510839
912+1063154501+1063805667+1066115075+1065729179+1064429188+1065845726
901+1066248994+1061947944+1057993815+1058124108+1057924325+1054970549
889+1052101974+1050151572+1048933685+1048720608+1047019766+1042735031
878+1039813809+1040848379+1042332669+1039467191+1034258239+1031096975
866+1029055935+1027242927+1027545963+1028672380+1026102687+1019854333
854+1015022364+1014095655+1015733805+1016503482+1013920495+1010283150
843+1009018886+1011003655+1014871979+1017663511+1017190602+1015271622
831+1014334867+1012204774+1008384262+1006165870+1005060452+1004082003
820+1005220505+1008335392+1010680300+1010144925+1006831917+1001752504+997050602
806+996319145+999497328+1002489550+1003013519+1001700613+998927435+996946443
793+1000143585+1003946800+999466586+990325637+984092464+981238769+978511288
779+974850905+972677758+971873337+971077375+970741633+968885269+962853768
766+954865521+950393767+950678978+951985843+950857764+945977757+940862919
752+939899577+941058473+939172274+932277965+924955462+922508660+923578503
739+923943401+921002088+915350214+910054777+905761432+901513783+897822885
725+894931650+892778066+891417725+889684404+886936378+882839417+877832818
712+875559363+875597432+874172888+874400996+879041036+883790901+884903571
698+882697567+880321993+879635477+878805752+877467240+877105817+877887805
685+878537612+876804517+873042845+871834702+875114854+878810133+879260912
671+873293689+861994623+863636852+878369174+884856816+883894078+881726898
658+878545618+876153502+876627847+879419681+883485447+885686315+884023163
644+880234451+876339086+874660526+874478115+877037158+888565162+898269736
631+886396472+863704303+852752234+853675997+853630300+850537997+849081427
617+848650816+848088401+849052347+851051921+847877741+839669014+837708718
604+846132863+854846827+856224616
##END=
