##TITLE=Sample description
##JCAMP-DX=4.24
##DATA TYPE=INFRARED SPECTRUM
##DATE=12/9/2023
##SAMPLING PROCEDURE=Instrument type and / or accessory
##ORIGIN=Default
##XUNITS=1/CM
##YUNITS=ABSORBANCE
##RESOLUTION=4
##FIRSTX=4397.6552
##LASTX=599.8556
##DELTAX=-1.9287962
##MAXY=1.95755
##MINY=0.32536712
##XFACTOR=1
##YFACTOR=1.8231106e-009
##NPOINTS=1970
##FIRSTY=0.34306854
##XYDATA=(X++(Y..Y))
4398+188177584+187402134+187135498+186810651+186227964+186482028+186925145
4384+187009365+187380621+187993877+188543985+188506469+187456356+186312347
4371+186125141+186830268+187877242+188292863+187428730+186596817+187327281
4357+188593745+188506322+187215631+186410478+187183280+188629758+189311753
4344+189535445+189851906+189640801+188755106+188388771+189215061+189898151
4330+189311541+188601151+189156571+190411757+191078582+191084189+191263009
4317+191803701+191584488+190054968+188778107+189168946+190131259+190012155
4303+189584535+189917147+189971010+189128209+188215624+187694515+187663636
4290+188483910+189889537+190606841+190416955+190596461+191438608+191934673
4276+191317787+189977876+189235249+189500217+189873745+189934671+189892839
4263+189957524+190501861+191425465+191904758+191466937+190438419+189354108
4249+189118221+190396423+191468228+190759718+189771561+189497111+189370292
4236+189266129+189225588+189264968+189255225+189256026+189475386+189635309
4222+189546724+189440355+189765692+190490206+190619592+189915806+189842474
4209+190863325+191431676+190745186+189619795+189280988+190238937+191683910
4195+192746103+193485509+193672142+192961834+192017633+191038941+190055605
4182+190039095+190666459+190467696+189605999+189356773+189565948+189530443
4168+189899312+190535438+190130540+189435598+190182033+191454628+191752322
4155+191733262+191710000+191406093+191474882+192042056+192377234+192224406
4141+191914615+191410148+190672098+190398467+190785890+191344416+191697151
4128+191272081+190540718+190943491+192021295+192482508+192451155+191961465
4114+190815412+189953584+190143879+190752803+191093033+191158110+191048683
4101+190812633+190632326+190863685+191128032+190855446+190786396+191560327
4087+192698207+193484299+193238833+191984302+190817096+190485253+190819221
4074+191476598+191907095+191891794+191707728+191162900+190347317+190086109
4060+190652793+191272670+191521340+191969426+192438012+192212375+191426544
4047+190708585+190834489+191728308+192481740+192460685+191547070+190734805
4033+190983688+191754791+192151401+191932580+191653881+192051275+192639570
4020+192291151+191507052+191507690+191743364+191602159+191800954+192157498
4006+191931142+191626124+191545484+191213150+190972033+191107287+190883824
3993+190447998+190608411+191233175+191920974+192388366+192481103+192213944
3979+191459613+190499164+190052009+190526529+191417700+191877376+192223344
3966+192796239+193032911+193174966+193449758+193059654+192045930+191227863
3952+190679373+190543284+191308731+191785932+191056236+190908541+191949597
3939+192376613+191623770+190467614+189852985+190291999+190585574+189605328
3925+188888318+189688943+190113425+189457601+189904004+191843097+192789815
3912+191959095+190395917+188013428+185218800+184498324+186095929+188317678
3898+190569897+191010693+188883201+187653468+189314663+189415458+187861189
3885+188255445+188325492+188463313+190829732+191073694+188795173+186873228
3871+185696262+186349961+186959866+186530628+188479137+191570004+191674968
3858+187591595+180333919+178468125+186860967+192979620+193600297+190931508
3844+187181613+183817669+181663041+182847412+186441684+188222767+188532951
3831+189153466+189486486+189399602+187946618+184282512+183433205+185824194
3817+187227875+190190746+193081984+192473763+189401335+187205332+186806336
3804+184956481+184505648+187836325+189916656+191190036+192692796+192806947
3790+192363993+192247864+192011046+191708447+190584528+189298202+190738255
3777+193416116+193808983+191657641+189559867+189917751+191192962+192016129
3763+191553821+189247085+188163559+189180552+187904312+182945183+179621976
3750+182434945+184297600+183635907+187082550+191148220+189790425+185036303
3736+182003647+183956864+188764326+192047058+192107117+191160202+191555047
3723+192846768+194836978+197190794+198142824+196422617+193713435+195168445
3709+200620893+205091935+207118239+208819141+213666899+220098726+224224765
3696+225289214+223254605+219076714+217549793+221165055+224020264+223117095
3682+219579514+214449052+208252294+204389097+206078327+206611778+205587935
3669+208789504+212524295+213492705+213605205+213499440+212076764+210682401
3655+210575818+207961563+202347999+201511983+208262805+214240612+216388946
3642+216790378+217136002+217235490+216803554+215516083+212429057+209756721
3628+213233115+218219790+218646723+215725929+213046090+213947690+216315417
3615+217062098+216875775+216482352+216594068+218124127+219540641+219598231
3601+219355773+219357604+218910661+218974839+220393936+220704201+218706847
3588+218081200+220555836+222675481+223284063+223201984+222970822+222921242
3574+223137283+222911025+221180879+219336827+220610762+223387621+224497678
3561+224683052+225283476+225720300+225325684+224904504+225039808+224998254
3547+224992369+225951871+227230449+227745656+227534927+227170798+226819273
3534+226469072+226287932+226194084+226111548+226066316+226030679+226170021
3520+226430167+226688726+227007296+227011383+226479011+226075143+226192514
3507+226202126+225944122+226250759+227041805+227305906+227062091+226976874
3493+227009339+226899243+226696164+226415454+226231469+226239708+226324859
3480+226585692+226872434+226924711+226994660+227264319+227490954+227692692
3466+227805747+227290327+226581556+226673377+227375610+228012831+228381634
3453+228526861+228276393+227753208+227729995+228225570+228547147+228796733
3439+229458981+230319240+230798647+230892544+230983417+230967315+230755900
3426+230642272+230554146+230700533+231344489+231853811+232044025+232298449
3412+232756311+233381827+233845607+234026519+234271315+234784233+235381535
3399+236002262+236675446+237051394+237055497+237061153+237252478+237484131
3385+237547132+237620383+238027553+238865678+239926792+240592097+240706346
3372+240937672+241509489+241963117+242155619+242489963+243190006+243769293
3358+243827227+243776371+244183296+245069907+245831005+245961094+245863257
3345+246118891+246720803+247446052+247863783+247881012+248193010+248831948
3331+249190993+249369371+249811392+250530822+250898466+250631503+250389388
3318+250352951+250169309+249906499+249841896+250105605+250203965+249842681
3304+249729936+250008864+250258057+250794630+251774172+252634252+253314465
3291+254251686+255400027+256603834+257867569+259220394+260788166+262381848
3277+263623220+264580122+265765228+266943517+266978075+266044532+265791923
3264+266653898+267447723+267628439+267459264+267170855+267270833+267712054
3250+267791222+267331235+266780424+266713107+266946591+266826261+266329525
3237+265793083+265585755+265808057+266129128+266407566+266720038+267155358
3223+267376499+266833323+265974437+265388561+265059530+264965796+264926956
3210+265068619+265536256+265650440+265090327+264582836+264555651+264295734
3196+263275602+262326759+262114575+261999607+261557879+261172663+260875083
3183+260355985+259669069+259113779+258812995+258696850+258599063+258325856
3169+257921530+257757096+258083823+258497695+258380193+257780390+257447860
3156+257622364+257434047+256864944+256784713+256729624+256201748+255881788
3142+255975522+256223277+256372116+255916853+254967127+254179170+253811691
3129+253576196+252887123+251909427+251435251+251393435+251216463+250762802
3115+249984768+248840841+247693627+246916133+246259115+245384929+244391279
3102+243419975+242519682+241684745+240849170+240105399+239620025+239369328
3088+239055891+238483224+237897987+237499170+237262842+237138278+236971800
3075+236677719+236271627+235800181+235401985+235251233+235467161+235834771
3061+235926723+235767405+235717351+235903984+236234095+236414156+236159994
3047+235718266+235486107+235348939+235097131+234872572+234756296+234544832
3034+234084976+233587832+233418804+233567905+233676645+233403029+232886711
3020+232600377+232417585+232051397+231957713+232392297+232593430+232017183
3007+231295448+231010079+230904576+230733341+230560292+230362674+230198763
2993+230325092+230671272+231016634+231525858+232190706+232652769+232863743
2980+232979856+233039081+233053842+232962021+232765580+232634967+232551876
2966+232309238+231920752+231641546+231515642+231389296+231327488+231369451
2953+231322698+231056504+230722650+230737003+231120748+231311828+231298881
2939+231549529+231723788+231312907+230640621+230156571+230040099+230351542
2926+230741449+230588622+229793456+228819635+228207163+228169974+228203959
2912+227977194+227918263+228169369+228376338+228394205+228444178+228520861
2899+228421112+228336942+228526158+229027503+229498868+229437158+229136374
2885+229226266+229751003+230356675+230573108+230330503+230073365+229928123
2872+229719012+229620554+229928744+230534186+230945312+230919909+230820618
2858+230907862+230812706+230124515+229070790+228372398+228466410+228973166
2845+229258714+229290885+229369138+229546895+229810392+230140715+230344725
2831+230397182+230463453+230515502+230501934+230503536+230527942+230622754
2818+230896239+231064727+230810908+230511202+230560341+230734371+230884665
2804+231248303+231795469+232144068+232228827+232320272+232472266+232608943
2791+232770255+232851842+232793222+232802311+232906556+232995647+233091620
2777+233202779+233275294+233260059+233197891+233062408+232730630+232460463
2764+232651445+233067949+233265339+233292900+233309639+233282716+233238350
2750+233334470+233619267+233906467+234028415+234033156+234012068+233922618
2737+233894370+234174328+234585176+234856879+234963347+234889900+234780212
2723+234842625+234997267+235168976+235450666+235686504+235729905+235831322
2710+236066996+236163541+236083490+236145331+236454926+236669692+236620962
2696+236576106+236753470+237092441+237347127+237376012+237382567+237553000
2683+237847295+238166894+238337017+238319019+238234211+238131569+238114846
2669+238285197+238551751+238666294+238472092+238145022+237916165+237788495
2656+237704210+237691492+237806624+237997213+238113538+238112230+238025117
2642+237845235+237640359+237526061+237538092+237567353+237477232+237307077
2629+237159235+237109001+237113856+237003334+236835401+236794583+236796545
2615+236648507+236467725+236519464+236659557+236587925+236327419+235992029
2602+235707673+235597642+235573628+235549288+235536161+235459298+235290499
2588+235158857+235206426+235362360+235356410+235149392+234992183+234953997
2575+234907915+234822780+234719499+234601948+234440440+234208886+233990817
2561+233866646+233783668+233574607+233184797+232861128+232787909+232793042
2548+232711635+232584357+232403576+232194449+232096139+232093883+232030293
2534+231791644+231500864+231401409+231413538+231294696+231049328+230811414
2521+230619321+230512527+230530263+230500969+230342763+230250289+230309530
2507+230458222+230568973+230523741+230414265+230354762+230372237+230495101
2494+230632742+230685755+230708216+230744392+230852298+231169773+231561740
2480+231698744+231600973+231495633+231448276+231421254+231398042+231377199
2467+231340582+231335367+231409288+231529488+231676496+231795518+231865483
2453+232002847+232233764+232399097+232419040+232410687+232494857+232655679
2440+232814392+232998981+233224112+233359465+233433451+233547700+233576307
2426+233481217+233452283+233640731+234010548+234304270+234393247+234469309
2413+234653311+234923297+235186892+235319825+235379230+235444307+235516496
2399+235653369+235874511+236095244+236232869+236335724+236442584+236442028
2386+236169573+235298607+233413524+230541461+227179201+223741778+220278559
2372+216553151+212498597+208445646+204723851+201828918+200281514+200001278
2359+200905134+203412203+207711209+213505750+219193856+221846674+220168838
2345+216107680+213322991+212933672+213833948+215147329+216247806+216884177
2332+217481250+218648113+220257815+221836686+223348290+225119565+227367698
2318+229725469+231676038+233279643+234874796+236536742+238127171+239582133
2305+240850314+241802721+242548028+243326846+244110029+244747757+245228423
2291+245689816+246270444+246933689+247526447+247881355+247979012+248073743
2278+248296013+248484035+248568533+248624423+248703379+248797047+248924864
2264+249138339+249362341+249534393+249762270+250109577+250431874+250540631
2251+250487388+250527291+250744346+251021248+251279399+251452105+251562038
2237+251685866+251759918+251825077+251990606+252150986+252239848+252373174
2224+252552010+252642213+252650778+252677146+252748255+252828094+252877364
2210+252920323+252984485+253121816+253349219+253515941+253620644+253832484
2197+254100280+254264453+254334156+254403108+254480478+254549315+254637327
2183+254791789+255021955+255208473+255331762+255501787+255606538+255574400
2170+255623752+255813998+255940801+255958636+256027048+256239656+256535585
2156+256722464+256729182+256748848+256876877+257019848+257169014+257362872
2143+257532865+257574713+257545697+257681753+258010948+258249973+258308201
2129+258333637+258358174+258366772+258412576+258548583+258753116+258918253
2116+258989739+259018705+259077538+259198064+259357022+259504112+259551306
2102+259505616+259503687+259561016+259658787+259832327+260029357+260208781
2089+260368654+260511232+260637562+260710028+260726669+260735120+260816054
2075+261000840+261176112+261240748+261205651+261089849+260987877+261092694
2062+261356125+261516015+261529730+261609209+261824188+261938012+261876923
2048+261842267+261839799+261751493+261646120+261668270+261859285+262193449
2035+262550827+262728682+262706777+262663196+262727210+262865980+262984528
2021+263014852+262920023+262883373+263163184+263589055+263818321+263889234
2008+264045217+264281545+264410359+264481468+264721507+265109601+265296920
1994+265031773+264763584+265064908+265681989+266233732+266656056+266909467
1981+267045637+267166719+267312697+267476641+267673295+267775660+267650344
1967+267652567+268089619+268592076+268862242+269059092+269297856+269585906
1954+269880887+270080810+270211651+270286390+270086336+269624665+269704683
1940+270643555+271534824+271950625+272177537+272458280+272847550+273202754
1927+273285093+273056040+272980288+273142368+273230037+273750851+274772389
1913+275374023+275363659+275442745+276056280+276844726+277441489+277927320
1900+278302777+278375783+278399061+278730022+278828496+278616704+279085274
1886+280108136+280963867+281679406+282307162+282795773+283197876+283506670
1873+283240803+282036359+281271190+282618899+284788893+286117672+286787832
1859+287394468+288095786+288840619+289461444+289759580+289670064+289049729
1846+288066067+288566088+291051513+292939424+293601182+294206215+294715489
1832+294110586+293263094+294010150+295472713+297021522+299051161+300637634
1819+301431639+302106017+302685909+302749891+302889494+303944854+305325093
1805+306073752+306027719+305858691+306576715+307867766+308143866+307318442
1792+308061542+311190449+313744139+314784428+315339505+315866466+316644712
1778+317643773+317594046+315917566+314804469+316883149+320464965+323226032
1765+324226793+324138847+325012723+326574904+327811683+328870345+328720574
1751+327316435+327149565+329162302+331490175+332853282+333410616+334379239
1738+335355055+334524236+334179381+337419349+341253268+344337025+346351984
1724+347170411+347073833+345147638+342128713+342707755+347586213+352224533
1711+354815265+355133312+354170214+353859131+353347863+351625449+351926658
1697+355118926+360278551+365692208+368208104+368621224+367637954+364905461
1684+365353630+371499401+376686555+378608304+378744899+379540179+380338466
1670+381180368+385277996+390038460+391915255+393302197+396571688+399157157
1657+398161986+393728232+393565906+400135228+402857128+404428170+410774126
1643+417486876+420708732+420665053+418619754+419986916+427273019+433162765
1630+435637499+437173525+439036163+441405885+445570470+449687126+452011043
1616+456338182+463663911+469530836+473612706+477851245+482949503+488230847
1603+493467761+499027429+504764755+510196230+515591774+521419990+527436686
1589+533333330+539207350+545348120+551934704+558725364+564009226+567564298
1576+573853236+582424865+588103277+593049345+601132396+610306966+617802768
1562+621599906+621945350+628377161+642755885+655303488+666227445+676609140
1549+686762697+694718110+699318604+701576773+705481344+718425131+732723951
1535+741827706+750839003+762098334+770721096+775772635+779913909+784275344
1522+790786536+800506899+811152434+822584977+833066520+839905109+842544686
1508+842310074+849617821+867872345+881195382+886383973+889053498+894513319
1495+900907205+904637843+906145753+909175826+916440024+924008996+929591353
1481+934797469+939452495+940964393+938681050+937824599+943729777+951004829
1468+952757551+949841187+948644589+950069718+948556708+942978143+941354170
1454+947020420+952196392+952037565+947437006+945370816+946890233+946376742
1441+942867442+937334910+930685684+928129084+927835231+922988749+915805370
1427+911556663+909230163+908410134+910391321+915733770+923560762+930686469
1414+937033079+943252772+947872490+948900779+947047360+948254289+955078820
1400+961060893+962077478+962957860+967891439+974202217+978055589+978116204
1387+975720589+975179504+976695849+977116358+977377125+979561995+983044225
1373+986688028+988348749+988026387+988671831+989291969+987320721+985540798
1360+986705356+989266860+991702165+992351663+990640659+989399009+989412217
1346+988411587+986194481+982460638+975739747+968773521+966208487+965781504
1333+963997004+964027344+966993468+969407130+971417741+973902806+974799601
1319+973094155+971657453+972815668+973993499+974339990+976630199+980250790
1306+982222169+982397277+983660636+987874033+993434878+997102810+997778659
1292+998307908+1001589005+1007548847+1013313440+1016454346+1018578143
1281+1021485614+1026207468+1032965825+1038690794+1042244231+1045162622
1269+1047189319+1048811984+1050108887+1049023121+1047107780+1047725303
1258+1049667126+1051424425+1054189219+1057465347+1059579794+1060149780
1246+1059115541+1058188275+1058914342+1059931254+1061720397+1064949118
1234+1066896957+1067117510+1067347545+1067993707+1069316046+1071295336
1223+1073376632+1073741823+1071580035+1069598979+1068402512+1066811364
1211+1065805503+1065041250+1063167757+1061273863+1062326150+1066765331
1200+1070201398+1069729232+1067283661+1065305351+1063891666+1062131294
1188+1060723363+1060439514+1060376284+1060379357+1061023624+1061703134
1177+1062109781+1061911591+1059664210+1055724722+1051696831+1047995289
1165+1045297779+1044075549+1042364480+1039146351+1038301867+1041784555
1153+1044081238+1042898502+1042957155+1043939019+1042237039+1039279938
1142+1037313987+1036584978+1036731970+1036434782+1035330054+1034618896
1130+1033810506+1031830758+1029799092+1028632965+1026836172+1023491583
1119+1021373801+1022072732+1022968545+1023230032+1020367220+1008347429
1107+995123716+995741369+1007669814+1016504106+1017208856+1015194191+1014009625
1094+1011378417+1006913146+1004637583+1008527768+1018152926+1026349425
1082+1029211255+1028720977+1024869109+1019260727+1016689284+1019856018
1070+1025785716+1028498266+1026807401+1025432752+1028746805+1035411527
1059+1040375316+1042267379+1041483378+1036929180+1034635962+1039286085
1047+1042571759+1040560167+1038485018+1035571858+1032319401+1032603184
1036+1032927181+1030515481+1027268059+1022134850+1019845360+1027448987
1024+1035373472+1031165763+1023398667+1022574976+1026638504+1031309813
1013+1033170816+1029387148+1023153985+1018177316+1014477867+1014197353
1001+1018511382+1023028833+1025651802+1029619406+1034865997+1037036154
989+1034995072+1032592330+1034064865+1038316644+1039681681+1036435305
978+1034068788+1036371879+1038604351+1038290489+1040247286+1043949808
966+1045364409+1046710091+1051357795+1056170798+1056424896+1054016792
955+1054473722+1057037122+1053696587+1047413141+1048502242+1052428128
943+1053214679+1056203296+1061969720+1064254961+1062902740+1063259104
932+1066228693+1068630977+1068309531+1065935428+1063843082+1061716146
920+1061185262+1065854478+1070232391+1067794732+1063059082+1060774888
908+1060526676+1062482819+1065708860+1064534624+1059796359+1060053202
897+1060344374+1053127255+1048802633+1051175166+1051790335+1051206029
885+1054038827+1057204319+1057001486+1056852598+1058757804+1057246363
874+1051508906+1049458931+1050987111+1046571927+1040108533+1040744953
862+1044529995+1046067525+1044089150+1040866509+1040081528+1039442820
851+1036909236+1033478139+1031291177+1032028425+1033234897+1031787406
839+1026967994+1022265888+1021577484+1024396812+1027671109+1026724228
827+1020519247+1014288700+1013926778+1018960335+1022227309+1021233936
816+1019504428+1018110162+1016192860+1016994057+1024822357+1033181344
804+1032919465+1027538372+1022382082+1018248915+1015391270+1012421877
793+1008632454+1005767747+1004057462+1000718104+994295971+988025733+986317933
779+991127602+999537331+1003204674+998187725+990939808+987112919+985588466
766+985065821+983946708+980008070+977207247+979828123+986226390+991403997
752+989391685+980963910+972336440+965909730+960091126+953862736+949690403
739+950183493+953112084+952772852+948818979+946677984+946839558+944291262
725+936690055+927729041+921395966+918718987+920202507+921287553+916926183
712+913485539+917126270+924239945+931903925+938050253+938767231+937255987
698+936244894+931763734+926306332+924122705+922914468+923957470+930056653
685+936547705+936284781+929199353+923607056+923786219+925156225+924512744
671+920495444+913373203+916218425+931127706+939887521+937009540+928599354
658+921995769+920024979+922986395+926617840+925353501+921466062+918924632
644+920291761+924503066+921945093+916453625+923739532+944439366+957369814
631+938014159+906679971+899835628+910843347+905294926+887381400+886265556
617+900278893+913142057+922464469+922781339+916486777+917433266+920486290
604+918070078+909624321+892221605
##END=
