##TITLE=Sample description
##JCAMP-DX=4.24
##DATA TYPE=INFRARED SPECTRUM
##DATE=12/9/2023
##SAMPLING PROCEDURE=Instrument type and / or accessory
##ORIGIN=Default
##XUNITS=1/CM
##YUNITS=ABSORBANCE
##RESOLUTION=4
##FIRSTX=4397.6552
##LASTX=599.8556
##DELTAX=-1.9287962
##MAXY=1.9526365
##MINY=0.33383152
##XFACTOR=1
##YFACTOR=1.8185344e-009
##NPOINTS=1970
##FIRSTY=0.33929065
##XYDATA=(X++(Y..Y))
4398+186573673+187264218+186826246+186011840+185553415+185689223+186000925
4384+186253367+186877918+187723511+187659696+186429310+185835438+186989078
4371+188383116+188363761+187452550+186754958+186473541+186931097+187976691
4357+188394866+187869431+187518430+187928264+188596046+188930593+188462483
4344+187599453+187202337+186907187+186389946+186342420+186873427+187366136
4330+187507057+187387653+187493225+187972282+188342735+188607993+188981789
4317+189048161+188325380+187359777+186940717+186768216+186953451+188155272
4303+189654963+190289592+190181169+189680922+188785886+188314695+188490949
4290+188405354+188145242+188116022+188489999+189489771+190273384+190076170
4276+189328152+188526888+188130804+188270267+188273577+187849437+187346634
4263+186812005+186318658+186527458+187500387+188374020+188974415+189507323
4249+189823416+190006668+189791099+189219417+189412878+190104046+189939133
4236+189294900+188841868+188239031+187602632+187297158+187266054+187336014
4222+187593602+188443489+189449112+189590640+189289328+189532216+190210798
4209+190908177+191396805+191469060+191164012+190730072+190498409+190638806
4195+190649721+190161077+189955767+190448442+190794116+190533693+190268452
4182+190405046+190553391+190692264+190988594+190800245+190125383+190127137
4168+190858948+191235005+191354540+191613308+191642725+191590889+191469847
4155+190839331+189922106+189559830+190340625+191766422+192832566+192953871
4141+192453067+192053755+191629729+190962750+190412355+190293001+190175629
4128+189186493+188236737+188695833+189552390+189894754+190388937+191263160
4114+191933990+191746281+190758931+189947442+189826825+189797523+189563763
4101+189568516+189925989+190515191+191252819+191720175+191858212+192248363
4087+192504526+191870995+191116208+191047198+191442069+191710293+191542905
4074+191382056+191293068+191182301+191381253+191548936+191301475+190964618
4060+190951901+191140348+191234694+191435907+191615226+191278548+190627285
4047+190554883+191429122+192368308+192821980+192876142+192273929+191530679
4033+191568536+191832122+191438873+190977434+191221059+191545183+191077352
4020+190395640+190554047+191274288+191881417+192127878+191711801+191255622
4006+191429663+191569339+191703082+192448429+193166998+193008951+192071487
3993+191009931+190314682+190248655+190937840+191749329+191858261+191557736
3979+191421190+191258506+191135349+191595248+192297937+192334778+192017209
3966+192239497+192721848+192972390+192959853+192576748+192163014+191946134
3952+191421404+190655506+190500589+190696312+190748066+191565422+192855461
3939+193228404+192637810+191520207+190851507+191604999+192407279+192047593
3925+191938841+192693431+192531238+191373780+191266651+192353886+192894120
3912+192734779+192322257+191125451+189263796+187689129+187523543+189680152
3898+192249822+192133893+189722679+188707944+190601540+191281777+190148753
3885+190092525+189717156+189121694+190112453+190069074+188750176+187603058
3871+186865561+187970234+189097702+189212861+190617436+192181369+191782679
3858+189109059+184701627+184350578+190360323+194018999+193909133+191594970
3844+188695587+186478835+185422524+186850697+189648949+190568354+190313273
3831+190727023+191256867+191264996+190005603+187405303+187435064+189498604
3817+190237888+192167111+194031323+192993579+190090903+188664188+189247260
3804+188410221+188467531+191100344+192281402+192781337+193466753+193093104
3790+192442300+192199052+192160523+192509344+192344316+191670503+192394807
3777+193656855+193433338+191854656+190654375+191166241+192058065+192622323
3763+192481992+190931498+189970975+190385315+189151259+185470377+183571734
3750+186428212+187877674+187053582+189669385+192711868+191528319+188230133
3736+186655171+188504142+192102739+194485994+194378652+193606347+193940943
3723+194744795+196044617+198001422+199332840+198690623+197043423+198391639
3709+202721227+206113154+207429823+208946755+213679048+219588744+223539275
3696+225337066+224702191+221901809+220371915+222342092+223725739+222205235
3682+218995822+215361057+211438287+209438562+211084205+210945988+209260915
3669+210817620+213253236+213983358+213851696+213356186+212155676+211325815
3655+211633354+210066177+206424430+206595308+211754216+215717514+216957126
3642+216948916+217014812+217270418+217178743+216251438+213967396+212048137
3628+214626181+218325565+218702098+216609846+215199929+216816697+218551295
3615+218428237+218286414+218567257+219036039+220157591+220754019+220173438
3601+219467242+219080205+218554982+218396100+219269045+219835696+219242234
3588+219714358+221804562+222804302+222581079+222508595+222694567+222660037
3574+222756465+222916921+221999318+220863967+222005579+224081689+225013926
3561+225239065+225163680+224696914+224035441+223706532+223907221+224217267
3547+224640572+225489820+226447442+226938249+226811094+226492886+226415452
3534+226468730+226417370+226162322+225793147+225678217+225976628+226311683
3520+226227825+225972384+226025776+225985543+225507568+225300652+225633494
3507+225658846+225283493+225448767+226144983+226451162+226198851+225899719
3493+225728119+225409665+224950340+224755780+224943653+225430790+226131053
3480+226498933+226400310+226309241+226176120+225940541+225867975+226001456
3466+226219516+226403391+226676662+227133153+227418060+227145001+226590018
3453+226365550+226477579+226831218+227493969+228027894+228264669+228499887
3439+228809458+229202019+229513278+229670129+229874603+230022571+229993253
3426+229886550+229846333+230159428+230798466+231338208+231800598+232402566
3412+232761743+232677984+232626869+232907286+233461958+234074889+234404568
3399+234452127+234683723+235317107+236046197+236494838+236597640+236570616
3385+236554900+236651065+236992921+237676731+238604592+239234420+239445859
3372+239791386+240285602+240532259+240741928+241364348+242203370+242908664
3358+243490671+243884199+244102521+244514092+245211504+245740856+245984514
3345+246262751+246522044+246705853+247036482+247498774+248038271+248492745
3331+248507200+248508166+249218951+250243093+250484375+249601515+248747629
3318+248921294+249444812+249555841+249571033+249860381+250384555+250904041
3304+250790390+249789404+248883896+249232701+250660629+251924118+252845916
3291+254355997+256283762+257722129+258629669+259725034+261254846+262521761
3277+262988412+262929874+263138117+264133268+265080189+265173913+265361393
3264+266175012+266855987+267021573+266707675+266550841+267091337+267663085
3250+267709283+267480505+267360724+267320704+267095221+266801710+266479044
3237+266260263+266677455+267144008+266657085+265843383+265681534+266208198
3223+266855069+266913870+266489451+266286435+266500611+266711166+266473931
3210+265888188+265495677+265524651+265478846+264863227+264061816+263585644
3196+263228301+263123073+263485119+263492740+262730709+261669957+260754124
3183+260286605+259967201+259479212+259143715+259067707+259014364+258846140
3169+258509266+258191190+258295778+258614084+258418378+257703971+256972325
3156+256590449+256775405+256922980+256322864+255600837+255619766+256160966
3142+256378961+256031599+255785302+255613145+254917863+254256964+254145541
3129+253911028+253089542+252018383+251277100+251032212+251010957+250952173
3115+250415790+249317345+248251857+247462016+246694364+245623402+244289132
3102+243219268+242465989+241455433+240157594+239379930+239403447+239465672
3088+239182683+238912820+238677782+238092841+237300018+236911374+236814160
3075+236554032+236372009+236274647+235982218+235859766+236063257+236196853
3061+236024893+235664322+235457995+235385839+235270286+235315763+235597180
3047+235837462+235734495+235404308+235220761+235089771+234841131+234645818
3034+234409223+233961500+233567137+233305861+232957483+232606401+232408170
3020+232359153+232485768+232699321+232708646+232414725+231930703+231206054
3007+230552579+230507397+230732831+230728620+230612330+230384289+230014295
2993+229950660+230535011+231405399+232067167+232541668+232926165+233094701
2980+232974281+232546994+232066298+232021247+232413546+232810334+232844635
2966+232393618+231913889+231947927+232208350+232101025+231655334+231321639
2953+231087453+230646073+230298891+230345728+230598629+230933094+231178555
2939+231297139+231418083+231403596+231216624+230928964+230539501+230213738
2926+230044466+229801758+229269341+228694365+228436990+228416472+228391627
2912+228180319+227906999+228040185+228525666+228901265+228956460+228666259
2899+228340644+228242610+228196527+228250198+228594643+229029534+229366916
2885+229565376+229610492+229750201+230024865+230195892+230277717+230249055
2872+230232388+230455151+230644172+230663493+230667541+230582569+230401972
2858+230189877+230009248+229965590+229900791+229612557+229060540+228404099
2845+228151329+228459097+228882205+229122619+229258787+229439155+229701627
2831+230014049+230239910+230265426+230203594+230167753+230119244+230065786
2818+230131093+230244450+230302414+230496400+230763936+230835650+230884257
2804+231191305+231706153+232166200+232288865+232057809+231863577+232108301
2791+232657859+233011285+232991619+232809761+232784867+233017906+233103403
2777+232841160+232633490+232698682+232789456+232638571+232355351+232342405
2764+232805746+233369857+233430329+233100059+233017562+233268070+233548848
2750+233773135+233818055+233663105+233638146+233806059+233939294+234011828
2737+234049635+234053126+234112598+234284690+234439016+234396899+234333346
2723+234521252+234819695+235086559+235309585+235340591+235294360+235405390
2710+235633233+235937610+236226892+236358948+236428138+236586119+236830646
2696+237053672+237201460+237355016+237531762+237648511+237725928+237829763
2683+237866718+237733090+237573470+237627010+237919226+238191285+238199184
2669+238070095+238075830+238183992+238133762+237890891+237727321+237769012
2656+237856295+237827715+237661785+237500035+237504902+237629009+237751739
2642+237828059+237787138+237669307+237626354+237638498+237577550+237356803
2629+237012816+236797034+236829630+236812816+236616896+236578106+236743314
2615+236727008+236420960+236082333+235868321+235688625+235523859+235487183
2602+235513863+235525449+235567763+235554276+235469172+235429923+235393508
2588+235359274+235333528+235185265+235090279+235244688+235300899+235057044
2575+234857568+234867680+234855159+234678725+234493228+234413893+234277348
2561+234002388+233749454+233592178+233430689+233177755+232862465+232534490
2548+232272706+232194551+232201107+232122067+231986881+231847222+231769280
2534+231777638+231667641+231366264+231137093+231115018+231070951+230817951
2521+230543942+230499432+230647859+230778964+230763575+230641910+230491631
2507+230368081+230296973+230214148+230134027+230145629+230201054+230254233
2494+230340877+230401497+230360166+230332503+230441779+230619016+230817066
2480+231000154+231086962+231160020+231235569+231253776+231332292+231370361
2467+231199515+231104776+231295615+231512593+231524753+231422311+231366199
2453+231399516+231521918+231688700+231820296+231948386+232154269+232403942
2440+232647355+232896044+233093734+233189276+233261105+233357418+233401305
2426+233349552+233300191+233373839+233599143+233892031+234088934+234160779
2413+234286410+234557371+234870384+235134183+235328939+235462437+235547868
2399+235606816+235756259+236006538+236175565+236286119+236434398+236430613
2386+236001081+234907634+232990997+230331749+227137610+223615840+219960131
2372+216242572+212492402+208766354+205077623+201799610+199772402+199523204
2359+200891594+203622163+207702800+213185307+218757179+221499285+220086844
2345+216383510+213645714+212954202+213708727+214924740+215768825+216349734
2332+217182872+218657441+220558870+222235471+223537276+225021628+227146968
2318+229668621+231867314+233384131+234735805+236392117+238111573+239571671
2305+240684439+241544077+242358385+243219268+244071187+244791690+245286348
2291+245662947+246104475+246614407+247115129+247538778+247826274+247989024
2278+248066376+248103610+248162673+248277176+248422932+248582241+248783552
2264+249040681+249287568+249392321+249422999+249615871+249973000+250300615
2251+250501713+250677738+250912956+251140718+251323462+251405369+251340259
2237+251296536+251423855+251644554+251877281+252068874+252140802+252135410
2224+252135607+252210549+252443637+252775300+252990377+252994917+252970220
2210+253009469+253051128+253200981+253497687+253734282+253763207+253717845
2197+253772958+253829923+253823778+253931906+254228023+254520010+254631694
2183+254666421+254761586+254871354+254965897+255055802+255121486+255207048
2170+255367946+255571224+255734728+255833122+255943185+256065653+256130665
2156+256200330+256369882+256606051+256786861+256928716+257128159+257287697
2143+257347465+257378979+257435501+257581470+257773555+257914526+257971081
2129+257984519+258091484+258290846+258430767+258499859+258590797+258681046
2116+258749385+258896828+259082768+259201090+259297829+259319756+259206268
2102+259151434+259288487+259442585+259465676+259521264+259755794+260052533
2089+260255811+260286097+260198273+260182655+260300649+260438637+260508368
2075+260524052+260600256+260751011+260814924+260821004+260941981+261116793
2062+261228756+261312450+261380641+261438049+261513877+261566646+261624316
2048+261718433+261777315+261823710+261888558+261947391+262009617+262074972
2035+262165517+262299702+262470270+262668254+262818500+262841034+262811912
2021+262822122+262817107+262838117+263026695+263332513+263583218+263737447
2008+263903261+264129810+264361833+264585187+264792103+264929304+264948183
1994+264839612+264848265+265254214+265801479+266147480+266368064+266618884
1981+266864148+267048695+267236797+267472704+267728948+267880637+267839945
1967+267830800+268085881+268455793+268736800+268934096+269075034+269261662
1954+269646094+270074741+270275610+270283574+270210107+270095357+270283132
1940+270898456+271501882+271915616+272155030+272230710+272396869+272825008
1927+273172747+273167503+273226172+273470191+273643348+274096479+274831518
1913+275292597+275455429+275666573+276163723+276846451+277409775+277794863
1900+278130622+278390210+278611121+278938425+279147274+279198569+279648586
1886+280481102+281211782+281781039+282275205+282678025+282964489+283212179
1873+283216079+282694675+282516242+283662720+285229422+286286619+286893011
1859+287361055+287954960+288632444+289220777+289664763+289865517+289709863
1846+289498096+290268107+291962112+293225995+293933273+294642353+295253793
1832+295156546+294835077+295443207+296544684+297786082+299317517+300632007
1819+301539907+302211164+302655413+302867442+303293303+304348434+305543028
1805+306254010+306438146+306571382+307307830+308448409+308978269+308915502
1792+309949821+312286764+314018167+314818955+315428821+316208010+317384806
1778+318566880+318623288+317490346+317151997+319290087+322223491+324287965
1765+325078298+325303175+326237625+327497280+328620946+329750447+330034387
1751+329461393+329666245+331250023+333086605+334370121+335213780+336372386
1738+337280745+336912439+337322109+340062691+342737655+344912322+346590824
1724+347676241+348087484+347133631+345585480+346541758+350199156+353623548
1711+355664620+356092120+355759835+356096577+356262523+355758130+356855150
1697+359584719+363414355+367371589+369530230+370382739+369921053+368124557
1684+369053467+373967766+377906941+379626348+380354209+381694526+382979418
1670+384238254+387451337+390797263+392331484+393897989+396872691+399310421
1657+399322843+397230968+398405929+403596532+405837047+407843213+413152400
1643+418075286+420580863+421110362+420466638+422476867+428502444+433277673
1630+435924745+438181517+440444156+442998242+446897954+450478622+452833199
1616+457112688+463660488+469205631+473658310+478212038+483235908+488239424
1603+493155395+498381265+503997467+509670109+515193488+520766392+526550277
1589+532492274+538611688+545067288+551914006+558822049+564413603+568800763
1576+575554691+583591219+588968809+594148497+601986270+610369307+617595934
1562+622360807+624880444+632737358+646333252+657820654+667751645+677162216
1549+686306776+693932224+699687658+704038502+709763979+722372721+734865172
1535+742857648+750859170+760595471+769175427+776459019+782513373+786504990
1522+791695822+800925075+811272061+822057725+832986555+840936028+844247014
1508+845432464+854074761+870316219+882058488+888614711+892715014+897174084
1495+902205165+905412644+907062991+910727894+918221189+925446767+929965687
1481+933337768+937165504+939972392+939274586+937027778+938312539+943709599
1468+949174637+952467399+954367567+955202770+952708239+945015927+940819919
1454+945514453+949223539+948840713+946328024+944158502+943439523+942812384
1441+940116804+934480412+928118945+924791571+923375180+920500446+916189327
1427+913347303+913923508+916699849+918062814+918832727+924252730+932574607
1414+938366423+940925196+943227527+947021241+951020068+953646884+954724237
1400+954490543+955442954+960329557+966765164+971679496+973951214+973181956
1387+972833480+975424832+977430538+978096420+979711368+981306520+982868175
1373+987084899+992405393+995582915+996741422+996560563+995231816+993522865
1360+992188349+991739905+991961014+992577731+993234631+991750590+988184933
1346+985771819+984160344+980609371+975784321+972538298+970713843+967337108
1333+963278890+962080003+963750540+966386533+968342551+969159137+970386802
1319+973154031+977162495+979755354+978909073+976939748+977331095+982290396
1306+989896310+993686812+991894937+989769073+991043870+994436928+995956170
1292+995171639+996900583+1002867621+1010046854+1016160992+1021461886+1027285102
1279+1032948829+1036579055+1038566538+1040397745+1042663956+1044863502
1267+1045789888+1045394017+1044582216+1043883690+1045091689+1047773372
1256+1048945580+1050057808+1053583216+1058623146+1061822759+1060344290
1244+1058663461+1061930265+1066526930+1067320376+1065063866+1063321417
1233+1064905360+1069884261+1073741823+1072988823+1071134214+1071357420
1221+1071627824+1070603764+1069659285+1068642174+1066182845+1062930004
1209+1061391358+1063082676+1066365999+1069713563+1072494885+1072891871
1198+1072223302+1072653588+1071948899+1067906742+1062291917+1059133078
1186+1059725869+1060503713+1058847335+1057727897+1060246092+1063213453
1175+1062027544+1057412983+1052967285+1051458138+1052404321+1053060829
1163+1052230214+1049499891+1045861143+1044003061+1044000373+1043515285
1151+1041236356+1038806722+1039052151+1040686372+1039826390+1036059356
1140+1031626768+1028866816+1029743251+1033209924+1034841655+1031472983
1128+1026060911+1023419412+1023254744+1024028656+1026077365+1027257701
1117+1023903778+1018044836+1015514514+1015434343+1014056235+1012145449
1105+1008358093+1004069852+1006690637+1014151090+1017645360+1015683508
1094+1011173634+1009948263+1015203664+1020467915+1020798037+1019563095
1082+1019831926+1019862539+1018193968+1014580917+1008681070+1005888341
1070+1011618669+1023518003+1034581674+1037644020+1032380621+1025048323
1059+1022972803+1029432402+1035362534+1031318410+1027505686+1033707795
1047+1040002464+1036650507+1030504970+1029296119+1030448071+1028641578
1036+1025434820+1024336162+1024421905+1024505287+1024320429+1020709017
1024+1014810022+1014528475+1019470404+1022136027+1023128621+1024758582
1013+1024008072+1022359233+1022315051+1021538517+1021393056+1023966184
1001+1027315125+1029670226+1028682941+1024581328+1021870868+1022956219
989+1025820399+1028792545+1033474101+1039005346+1041781556+1040189550
978+1036087871+1034931986+1039685452+1046326828+1048074848+1044826792
966+1045272680+1053028511+1060519315+1061598569+1057655134+1053430610
955+1054584004+1060094863+1061906797+1057680765+1052653421+1050016117
943+1049883504+1051864760+1055037430+1058314132+1060177262+1061566514
932+1063504702+1062337738+1058595417+1057815999+1059458939+1059054022
920+1058236846+1060415939+1062125152+1061125543+1060196731+1057855593
908+1054381251+1056432057+1062497031+1064836661+1062716238+1060461563
897+1062553012+1064150655+1057822751+1050665937+1049200514+1049097727
885+1048224504+1047675175+1043602995+1038566997+1042031376+1048940533
874+1050054006+1049726178+1050104350+1046892217+1043004108+1041508595
862+1039903021+1037849526+1035093310+1032721952+1032771903+1032375180
851+1031311593+1031282815+1030826636+1030067474+1030314147+1030170129
839+1027155571+1023195354+1023570182+1028699395+1031680259+1029033909
827+1025868122+1025905683+1026445245+1023359825+1018699180+1017352406
816+1019094592+1019085022+1015391210+1011648365+1009775664+1009538364
804+1011345316+1013701072+1013131357+1010239709+1008921582+1007702438
793+1006071691+1007064810+1007721907+1003863559+998505830+995918608+995678687
779+997403370+999773810+998703012+994199562+989265499+986494403+986043664
766+985891452+984668965+982023139+977352924+974608311+987754189+1011527355
752+1008141574+980333067+964353491+961600618+955624468+945895247+940709463
739+939822735+940519033+941210414+939279962+938249544+940747549+938911754
725+927803441+915294143+909353654+910899904+916206764+918683858+915562253
712+910609441+908731168+911334582+914460382+915918464+919379565+925678823
698+930389287+932147009+932440159+928924191+921700513+918401589+920683337
685+920458033+917116697+916878348+919488513+921450169+920790974+916470415
671+907824054+901841284+912987748+927797935+932326753+933070249+930118031
658+923281375+919243872+923037848+930374538+930990992+923046238+914143436
644+910266274+911652183+913006627+909709407+909392658+921276979+934515155
631+936230923+930991058+922019426+906358106+885359314+868065543+866261279
617+875484829+879416006+881699392+892824945+902490384+904948271+908399932
604+905322378+890844935+881820861
##END=
