##TITLE=Sample description
##JCAMP-DX=4.24
##DATA TYPE=INFRARED SPECTRUM
##DATE=12/9/2023
##SAMPLING PROCEDURE=Instrument type and / or accessory
##ORIGIN=Default
##XUNITS=1/CM
##YUNITS=ABSORBANCE
##RESOLUTION=4
##FIRSTX=4397.6552
##LASTX=599.8556
##DELTAX=-1.9287962
##MAXY=1.8516754
##MINY=0.26469991
##XFACTOR=1
##YFACTOR=1.7245071e-009
##NPOINTS=1970
##FIRSTY=0.28256673
##XYDATA=(X++(Y..Y))
4398+163853618+162857538+160867626+158949190+158321780+158870507+159608623
4384+160383774+161030194+161151338+161354018+161869909+161888556+161433755
4371+161516897+162496473+163323088+162917903+161873055+161477184+161634965
4357+161251140+160484250+160611011+161436123+161895434+162228780+162343876
4344+161622246+160930807+161210649+161922843+162208768+162098373+161527266
4330+160437779+160239455+161113440+161335129+160897177+160966650+161821676
4317+162501001+161848670+160589599+160159769+160694049+161460974+161747901
4303+161494863+161138256+161255668+161743460+161479102+160552702+160259312
4290+160323824+159852692+160024644+161950217+163454325+162560380+161178989
4276+161387285+162347021+162512355+161935078+161858054+162550132+162751291
4263+162319422+162600975+163850611+164810865+164179705+162656553+162290372
4249+163362076+164301835+163720705+162436955+162246770+162645803+162541353
4236+162173444+161940902+162356751+163390833+163867720+163444371+163277586
4222+163778685+164303995+164576855+164745973+164709941+164109559+163859286
4209+164956550+165896602+165176078+163660720+163125577+164032673+165016707
4195+165260689+165383130+165779640+166089915+165873307+165407013+165280598
4182+165074117+164324404+164028854+164673805+165110253+164813924+164458838
4168+164464593+164659392+164785876+164911704+165001171+164403053+163419002
4155+163151914+163147524+162931089+163108900+163455172+163475668+163366500
4141+163541494+164026624+164090324+163489718+163040188+163350826+164116800
4128+164428630+164086989+163912877+163955009+163543447+163105288+163388620
4114+163877311+163843301+163301072+162603602+162330603+162748405+163342409
4101+163478468+163442211+163775660+164012350+163978460+163999941+163561904
4087+162841259+163070586+163762924+163618587+163204450+163084377+163086123
4074+163389329+163594721+163371615+162679347+161667973+161413726+162045474
4060+162563266+162797623+163176592+163762094+164143241+164059304+163633018
4047+163260183+163284308+163442660+163376230+163071589+162755905+162834675
4033+163421473+163970977+163808132+163031893+162280452+162230007+163193977
4020+164139093+163824602+162806177+162160552+162014539+162336548+163311804
4006+164663678+165382750+164731836+163453202+162788965+162766447+162745225
3993+162829542+163326389+163744035+163773016+163911978+164187102+163880404
3979+163500588+163958949+164067841+163444457+163441727+163378165+162630008
3966+162670672+163823150+164946129+165188158+164570478+164073855+164032483
3952+163857368+163890255+164423808+164415047+163658456+163406282+163916437
3939+164071038+163438841+162803498+163091203+163964047+164344019+164131057
3925+163944381+163844856+163324920+162893709+163534944+164580985+164578687
3912+163694834+163035332+162144670+160487481+159766716+160669595+162068043
3898+163646843+164111408+162268303+160399120+161121096+161732779+161562141
3885+162525800+162669376+162475579+163648312+163341148+161612154+160520472
3871+159902428+160220601+160317482+159858585+161421796+163785476+163629475
3858+159976515+154078116+153493080+160708565+164728743+164197851+162056586
3844+160303708+158974352+157622115+158216310+160890005+162261287+162271984
3831+162672936+163322691+163440085+161619948+158079076+157921209+160489693
3817+161515100+163940873+166622397+165853640+162679572+161007469+161471602
3804+160288241+160096501+163373879+165462090+166527365+167385226+166864409
3790+166040126+165755981+165780487+166144991+165850097+165247694+166715787
3777+169057035+169484099+168075248+167025889+167915375+169330742+170325715
3763+170339765+169289041+169763906+171659772+171675412+169838183+170365480
3750+175161224+177960349+179321296+185914504+193185204+195857344+196778421
3736+198847449+201844467+205953679+210192746+212420178+213341912+214467794
3723+215625249+217007833+219005971+221174783+223020256+226213939+234395209
3709+245803342+256372054+265490231+275117214+287412000+299613430+308688092
3696+314693775+316728447+314489195+311578033+310916007+309462828+304711723
3682+297701492+290045066+281860046+275062518+273577281+272503936+269208170
3669+268810709+270256146+270146114+269364776+268886783+268082426+267590936
3655+268376871+267549529+264664117+265484528+271304468+276059202+277973162
3642+278459986+279318020+281069463+282671005+283283363+282931923+282618469
3628+284570638+286650692+286052038+283341481+281071900+281466733+281976767
3615+280632237+279738914+281268979+284995991+289205403+291830986+292669872
3601+292635309+292445625+292572196+293482731+294816287+295156735+294055445
3588+293080968+293096072+292977381+292439991+291826562+291461366+291734658
3574+292568532+293219843+293124552+292685045+292901204+293696609+294422127
3561+294948768+295221680+295150756+294820296+294728185+295073334+295767780
3547+296686991+296786360+295988086+295316107+294919147+294873835+295169835
3534+295341269+295120513+294687470+294493604+294559655+294500828+294178456
3520+293787511+293711506+293758546+293052799+292096778+292144544+292702189
3507+293158804+293681470+293863515+293483803+292822780+292082607+291567199
3493+291445122+291286061+290729592+290218885+290253898+290653104+290640177
3480+289714278+288497149+287912079+288183159+288843059+289186065+288929259
3466+288540146+288520877+288678174+288328688+287371872+286827327+287156525
3453+287438959+287117452+286603012+286354536+286351944+286326574+286300427
3439+286439372+286764249+287012362+286684667+285900547+285285683+285060780
3426+285183324+285235480+284976688+284901011+284900510+284675157+284551922
3412+284499818+284368633+284208069+283884194+283719759+284184480+284641510
3399+284577101+284505832+284381922+283939063+283692851+283960043+284152059
3385+283688894+283330023+283768908+284149450+283945872+283728555+283855489
3372+284209279+284457564+284588317+285000052+285506336+285646300+285440371
3358+285117844+285094756+285492199+286035862+286577746+286816284+286886413
3345+287280055+287570127+287437784+287293863+287402201+287674370+287409166
3331+286677720+286815679+287931780+288814250+288937468+288866665+289160574
3318+289427973+289044027+288302938+287963112+287943583+287497976+286850416
3304+287004361+287623752+287813729+287961919+288587549+289640624+290573055
3291+290722645+290621444+291247247+292443724+293293636+293567584+294052680
3277+295007215+295443956+295195066+295363666+295886643+295947198+295883463
3264+296289236+296832191+297025676+296949948+296942586+296764343+295930953
3250+295183626+294999300+294681663+294465988+294737621+294817773+294300395
3237+293523620+292836156+292298766+292114060+292426166+292819877+293031127
3223+293170106+292865466+291977362+291363310+291344197+291050409+290204230
3210+289420387+289033260+289235127+289515591+289010518+287914447+286818254
3196+286113509+285738601+285262699+284623641+284200413+283882206+283050475
3183+281871262+280884964+280492342+280579424+280123431+278481035+276669780
3169+276405509+276944662+276177910+274742600+274947007+276534171+276740739
3156+274891723+273248636+273475441+274153693+273091494+271226113+271163882
3142+273086431+273538570+270748639+267798575+267728170+269467585+269369961
3129+267098790+266327510+268837945+270637777+267709869+263282017+262484624
3115+264937771+264918364+260509298+257025560+257980509+260360226+258427775
3102+253136394+250872671+253292205+255320760+251943027+246577301+245780962
3088+250103932+252857002+248961580+243505263+242369116+244767670+245768191
3075+242899403+239835609+240292346+243419581+244133555+240568144+237470547
3061+238172959+241025572+241607773+239021626+236864756+236944182+237967256
3047+237746051+236156710+234946268+234775284+234892073+234404126+233316471
3034+232432739+232363094+232701987+232473092+231763318+231480486+233757412
3020+244481624+263968962+276360612+270308873+256457685+245597811+238704456
3007+234178739+231264448+229451171+228346650+227478281+226212401+225006090
2993+225049761+226855710+228746962+228426940+226860843+226273837+227503754
2980+229581907+229733035+227844358+226501454+226582349+227731769+228229808
2966+226591923+224538535+224511334+227272405+229617283+227582455+223674885
2953+222121230+223803685+226694420+226736639+223813242+221662869+222311968
2939+225071881+226179911+223657292+220801292+220293160+222299283+224693586
2926+223873537+220648419+218639756+219088768+220797387+220638396+217918057
2912+215764021+215907338+217691356+218989381+218124141+216411823+215662578
2899+216350646+217702797+217628918+215978158+214960286+215552805+216980545
2885+217647029+216835103+215777241+215606516+216266554+216937929+216779888
2872+216034409+215586262+215798308+216306509+216449394+215883109+214992603
2858+214472719+214563880+214747670+214242838+213155460+212269188+211988033
2845+212216099+212433294+212366294+212399803+212633520+212737745+212713620
2831+212748149+212856989+212984389+213105464+213160886+212858699+212264107
2818+211999715+212113999+212190003+212212020+212255639+212206801+212096233
2804+212115036+212298498+212454344+212378736+212243145+212370182+212586669
2791+212614130+212486418+212194963+211903647+211888750+211902057+211718871
2777+211596154+211582692+211419156+211157166+211084324+211057917+210829471
2764+210643002+210691667+210754503+210651280+210547798+210638025+210842139
2750+210998468+211046529+211005727+210914998+210866972+210975328+211169989
2737+211169885+210914704+210767862+210928685+211194149+211302798+211189344
2723+211057209+211104630+211276859+211322776+211152327+211010047+211059801
2710+211211430+211360087+211450833+211401528+211262809+211264640+211369402
2696+211329135+211249484+211318162+211372927+211321670+211260199+211151273
2683+211041845+211092999+211146054+210987737+210828020+210814160+210755229
2669+210586301+210434447+210420950+210469771+210358823+210099322+209870271
2656+209693134+209445920+209179506+209122217+209224093+209258362+209225596
2642+209140726+208928456+208663303+208407068+208093735+207784462+207624780
2629+207637586+207702323+207641370+207426438+207206823+207083277+206997992
2615+206799806+206478125+206244702+206114969+205860894+205508936+205231704
2602+205077828+205087903+205135877+205020678+204819277+204677291+204600060
2588+204485845+204271916+204080833+203977402+203893258+203796377+203639338
2575+203457708+203396393+203389791+203264603+203062097+202872258+202682298
2561+202472430+202267158+202034064+201686357+201368962+201247628+201168339
2548+201049943+200999567+200934381+200723302+200504465+200439987+200454020
2534+200439071+200402624+200336816+200260932+200237585+200154805+199943382
2521+199783665+199786706+199897343+199953751+199805664+199576423+199478661
2507+199429823+199283378+199152401+199158639+199255486+199353127+199393583
2494+199373381+199371878+199503374+199737385+199941291+200068656+200196126
2480+200363896+200421841+200340566+200309511+200395107+200538665+200648801
2467+200675985+200714696+200810972+200866274+200892092+200980471+201006186
2453+200885335+200868054+201084938+201352510+201540482+201649460+201726416
2440+201841149+202038349+202308963+202590239+202816749+202931586+202935751
2426+202925779+202988045+203132036+203299720+203400212+203424199+203465053
2413+203559013+203679103+203856983+204139556+204425446+204566723+204688248
2399+205010948+205672161+207147927+210586768+217594458+229657687+247584164
2386+270917273+297782267+325840437+353667760+381379813+410108754+440680367
2372+472597080+504953922+536921685+565825619+586708035+598019910+604305591
2359+605229951+592396531+566248605+535978176+507985814+491570704+495196255
2345+514275193+525099829+517041017+503825189+493929061+490252633+494041219
2332+500259155+500505073+495211705+491509803+490543414+486983844+478047435
2318+464705693+450673514+444233992+447595307+450154961+441760401+422886769
2305+401104532+384640273+374559750+366000703+356175465+344659287+330948063
2291+316312063+303103079+291806273+281791473+273116691+265984538+260284982
2278+255670990+251518314+247525925+243999760+241151071+238705960+236461212
2264+234509509+232788931+231104334+229467935+228019508+226782851+225688905
2251+224675388+223744011+222964730+222303517+221686320+221151574+220683449
2237+220247761+219887940+219586566+219316125+219087057+218890288+218738676
2224+218670483+218748993+218953556+219088370+219101452+219198904+219449004
2210+219693297+219828820+219942343+220151537+220416828+220683397+221000204
2197+221382543+221738407+221968771+222121541+222335332+222570847+222658551
2183+222672964+222799155+223013378+223211253+223315081+223325553+223293790
2170+223301376+223440062+223594439+223620828+223517207+223289383+223048719
2156+222874036+222667814+222415882+222152147+221899887+221743661+221693077
2143+221807931+222139168+222594989+223128940+223600228+223936080+224302191
2129+224684012+224969142+225251956+225598902+225938279+226239775+226502681
2116+226771134+227051062+227301231+227553750+227748307+227896169+228112293
2102+228388212+228713211+229092888+229497262+229904573+230407935+231055772
2089+231725142+232345968+233003276+233865837+234986189+236303189+237617838
2075+238813676+240215356+242065754+244186454+246399386+248791788+251334938
2062+253913947+256773472+260028833+263473480+266959119+270521109+274222630
2048+277945079+281570354+285047594+288359535+291361824+293927181+296163253
2035+298037482+299528646+300763489+301711733+302187773+302220609+302019312
2021+301592179+300921443+299947000+298648769+297200325+295670000+294070618
2008+292378538+290569910+288758499+287025116+285360651+283839970+282551571
1994+281367969+280187995+279116170+278097953+276974663+275914538+275134444
1981+274514551+273946694+273489231+273110124+272747970+272433012+272206709
1967+272158787+272339656+272590119+272827984+273122895+273480591+273898478
1954+274369852+274837079+275273008+275723195+276231725+276883969+277818699
1940+278884371+279792695+280556163+281279297+281967867+282647899+283321296
1927+283940757+284608208+285354309+285813430+285953222+286410442+287211239
1913+287685724+287826345+288126320+288624428+288997712+289197488+289333857
1900+289432605+289576423+289910200+290324960+290410884+290367576+290903100
1886+291758991+292298144+292691543+293225166+293643727+293767637+293788098
1873+293586318+292837331+292172299+292777675+294108051+294932938+295003931
1859+294602582+294105493+293757752+293567584+293527802+293472639+292779334
1846+291387608+290764259+291233594+291239988+290712138+290425781+290059687
1832+288647655+286778576+286253421+286729548+287126162+287329636+287319180
1819+287242363+286989343+286326972+285438764+284777206+284720003+284868677
1805+284914491+285018717+284768271+284248335+284150227+283715715+282704013
1792+283032468+284847611+286189773+286795304+286882940+286640133+286856533
1778+287415525+286998813+285209575+284112242+286169208+289430773+291227235
1765+291298539+290935382+291565989+292753411+293667403+294370870+294559309
1751+294170610+294148109+295285829+296937333+297860173+297790493+298090157
1738+298833129+298647282+299273846+302327513+305143695+307038766+308252318
1724+309072298+309364288+308142856+306336405+307556455+311608517+314937032
1711+316596415+316707260+316253790+316692778+316899397+316066042+316907485
1697+319853902+324052375+328279742+330628802+331860568+331805336+330201426
1684+331769356+337698067+341930618+343313150+343863190+345519705+347159768
1670+348932554+353220925+357596362+359891399+362538360+366872666+370426291
1657+371125783+369283767+371304337+378391298+382083418+385167501+391743064
1643+398026809+401709009+403005133+402597252+404865364+411575724+416710931
1630+419119750+420824204+422353596+423878148+426737638+429251945+429772779
1616+431507649+435934032+439624977+442020628+444532066+447707741+451138321
1603+454763008+458683661+462811209+467096470+471617211+476395517+481207073
1589+485959906+490979741+496856503+503600665+510313064+515693671+519985982
1576+526203677+533659809+539146974+544829870+552776075+560978670+568550797
1562+574023998+577038297+585256999+599733351+613116535+625649254+637089151
1549+647434636+656598125+664360765+669776902+675929376+690857746+706398301
1535+716333658+725610654+736529889+746069013+754799424+763613824+770985000
1522+779112765+789185823+799184430+810460221+822634312+832993898+840038036
1508+844224342+852961942+868107439+879145365+884530050+887600860+893560263
1495+902124080+908404161+912613763+917601523+925100790+933948301+941935948
1481+947192472+949796539+951787316+952300442+950919362+953178350+959088673
1468+961900535+960393783+960018841+962505946+962905290+960003978+959155519
1454+960213086+959607192+957968339+956644357+956170080+954394840+950707904
1441+945508617+937612218+929635355+927452476+927473974+924583654+921486713
1427+919986736+918779993+919567414+923080427+927039790+930820462+935342170
1414+937625075+936984963+938116911+941873250+946593006+952739327+957936195
1400+959730928+961836870+966829399+971116423+974033703+977174954+978879477
1387+977307193+974571715+973858398+976286469+980524828+983529968+985689206
1373+989707535+994338601+996524246+996868427+997111822+995885032+993655492
1360+993025749+992608155+990593737+988527751+987985522+987967688+987574357
1346+986248095+984173813+981318747+976455277+972834633+973017197+972855510
1333+970024154+966396805+964208188+964364069+966584277+969876638+973243310
1319+975999663+977409362+978149362+979528714+981605207+984834663+989381188
1306+993441891+996148543+997746196+998193584+999088082+1000312383+998313726
1292+995036849+998485159+1008435724+1015519126+1018361887+1022027809+1026251927
1279+1030107393+1034428980+1038214559+1040539701+1043243311+1048066342
1267+1052764876+1054673254+1054512880+1052733424+1050544185+1051059109
1256+1052850179+1053067167+1053444875+1055253572+1057894415+1061562064
1244+1064601767+1064888021+1063646784+1062733207+1063127297+1064198898
1233+1064093065+1064755781+1067761751+1069177878+1067161387+1065008716
1221+1064377797+1063573648+1062034337+1060876743+1060901076+1061502062
1209+1060006370+1057114805+1058020363+1062706455+1065271881+1064335768
1198+1062933812+1062075260+1061254243+1059627971+1057111694+1054502373
1186+1052526804+1051297388+1050336805+1050273761+1050501672+1049147067
1175+1047439364+1046318131+1044712113+1044374637+1045629284+1043833099
1163+1039475359+1037639426+1037915241+1037577973+1037221487+1036933160
1151+1034252223+1031063137+1032072869+1035474243+1036143527+1032659616
1140+1027356293+1024389242+1025292035+1026014270+1023183467+1020370637
1128+1020577118+1020680047+1018572447+1016099305+1016482681+1021552771
1117+1025884173+1022463583+1014806085+1010465765+1011003017+1013986105
1105+1017149822+1018329329+1017475961+1017357893+1018409654+1018869415
1094+1018945316+1020849477+1025014492+1028390565+1028407847+1027674068
1082+1029124413+1029152755+1028748572+1034230241+1040588919+1040124873
1070+1036894311+1036172491+1036002025+1035232369+1037506219+1043017544
1059+1047934863+1048562187+1044669600+1040635580+1038624964+1038952693
1047+1042990653+1048669541+1050634118+1047553838+1043827293+1040810193
1036+1036418167+1033129400+1034030673+1036817649+1037446148+1034202107
1024+1029845818+1029692772+1033491485+1034742607+1031750394+1029379698
1013+1028854819+1028755001+1031189985+1035932760+1038228938+1035998776
1001+1030678448+1026784202+1029385297+1035211700+1035970226+1033073822
989+1034225748+1039342429+1043929876+1046983198+1047392220+1044788083
978+1042778089+1043108376+1044048014+1045162196+1048232868+1054055124
966+1061708128+1069780662+1073741823+1070142678+1064146431+1061235164
955+1061016379+1061059928+1059605782+1057700169+1056790740+1056983465
943+1060485210+1066475927+1067900419+1064823456+1064347105+1065974552
932+1064744721+1060279904+1057106233+1059535272+1065227363+1068836324
920+1069440905+1067756152+1063798102+1060616620+1060907504+1061928711
908+1061351297+1060263659+1059650783+1060102525+1059445131+1054929852
897+1049556504+1046631482+1046459011+1050798916+1058196152+1062128211
885+1061103478+1059251231+1058395652+1056926435+1054431173+1052147714
874+1049861974+1047832625+1046352279+1044642710+1041859881+1038342167
862+1038086537+1041176426+1041320279+1037030144+1032317025+1030696213
851+1031760832+1032756531+1034336074+1036589186+1035898749+1031881734
839+1029115012+1029331102+1029682265+1030350995+1032647588+1033515057
827+1032059666+1030370005+1027039486+1022316412+1020872358+1021882159
816+1020668365+1020861090+1026472441+1029479032+1024391454+1019558953
804+1020548085+1021924326+1018805957+1014835948+1013243133+1011209567
793+1007615606+1004510025+1002717435+1002127923+1001089158+998677124+997696563
779+998008601+995797172+993207828+994765734+997721380+997389849+994828017
766+993260226+992682743+989714586+982663605+975665851+973408177+973639474
752+971430534+967761157+965181076+962684707+960199330+959881486+960579388
739+957693077+951291056+944922769+939218512+933116156+926652059+923273428
725+925744565+929665978+928646361+923723097+919153484+915662384+914203467
712+915289584+917895449+921983734+925519005+927864747+930723961+930949521
698+926535927+923259672+925641912+932185159+938445055+939502277+936696014
685+934990799+933842538+931910726+929586276+927553677+928975680+934038650
671+936622187+932917071+928259805+927478053+928197937+930643359+931676249
658+928902890+926745864+926344584+925815904+926526387+928284691+928119064
644+927449918+929922162+934020884+934008027+927931316+923682796+930542642
631+954914188+984838258+980241271+943601691+917758440+911526886+910298299
617+902218299+896084559+905105233+920215821+930415656+938918157+941069792
604+928562926+914543293+918541713
##END=
