##TITLE=Sample description
##JCAMP-DX=4.24
##DATA TYPE=INFRARED SPECTRUM
##DATE=12/9/2023
##SAMPLING PROCEDURE=Instrument type and / or accessory
##ORIGIN=Default
##XUNITS=1/CM
##YUNITS=ABSORBANCE
##RESOLUTION=4
##FIRSTX=4397.6552
##LASTX=599.8556
##DELTAX=-1.9287962
##MAXY=1.9294839
##MINY=0.30042705
##XFACTOR=1
##YFACTOR=1.7969719e-009
##NPOINTS=1970
##FIRSTY=0.30797461
##XYDATA=(X++(Y..Y))
4398+171385321+171313393+170905176+170689657+170372872+169513268+169175967
4384+169556388+169464293+169439250+170619437+171771032+171822926+171831849
4371+172284728+172901100+173594840+173651212+173108343+172807048+172561312
4357+172093307+171747581+171882581+172519038+173132507+173407996+173475496
4344+173313231+172998138+172735236+172698501+172978518+173167302+172938930
4330+172403508+171800570+171625103+171851485+171709818+171099251+171090776
4317+172070238+172793200+172380406+171469439+171396565+172094634+172030866
4303+171600690+172463727+174181492+174646230+173365755+172353953+172228788
4290+171732722+171303160+172197691+174114308+175627234+175548407+174429700
4276+173905058+174066477+174215972+174279193+173665989+172563999+172247114
4263+172461207+172563883+172884781+173306133+173529131+173337097+172810481
4249+172836022+173106303+172640255+172460742+173372223+173788683+172850766
4236+171915419+171809642+172027300+171872199+171577273+172395680+173967582
4222+174487083+174175505+174461741+175015639+174773518+174202406+174321318
4209+174900906+175010083+174407559+173616135+173206309+173284772+173614626
4195+173935574+174029609+174266937+174774414+174646645+173870528+173434399
4182+173653136+174075615+174253702+174165538+173775083+173164002+172904467
4168+173458315+174266041+174239572+173556994+173045703+172924037+173333680
4155+173856697+173634594+172941451+172751921+173223757+173756425+174048549
4141+174387906+174615449+174007552+173038953+172953906+173581838+173887976
4128+173551139+173053514+172904550+173173704+173706937+174077390+173943617
4114+173660234+173665541+173491385+172753828+172460676+173000128+173428180
4101+173699739+174279442+174988423+175533713+175886089+176000458+175595840
4087+174844468+174626196+175132561+175422595+175076720+174718225+175029238
4074+175695978+175530562+174687476+174495309+175068295+175587929+175757790
4060+175586320+174810320+173874227+173611757+173844507+174047388+173781518
4047+173187187+173345588+174232623+174621154+174388371+174227283+174288099
4033+174370078+174274881+174142833+174371056+174847851+175152363+175001691
4020+174367855+173701530+173476641+173698561+173896533+173783376+173760223
4006+173871126+173766376+173735595+174043706+174433713+174693646+174650924
3993+174256439+173951329+174225823+175021344+175819253+176108225+175799185
3979+175209166+174855812+174779986+174463997+174020139+173807092+173653666
3966+173410783+173354196+173977235+174929647+175446096+175597432+175641199
3952+175549419+175531706+175716626+175354963+174468657+174344686+174857138
3939+175077997+174955735+174838116+175343121+176089634+175852090+174969732
3925+174784796+175155979+174876509+174394424+174948769+175877034+175727406
3912+174706897+173890961+173323016+172603802+172452135+173502463+175252071
3898+176671891+176192741+173918541+172872591+174065333+174099779+173579864
3885+174420943+174057356+173547424+174666911+174146018+172189250+171193502
3871+171517087+172939992+173023628+171979304+173073698+175151418+174798329
3858+171412536+167185168+168585783+174881734+177063540+175816682+173808817
3844+172035244+170534523+169909842+171557155+174127891+175136309+175310018
3831+175410687+174957294+174431292+173454799+171870491+172875145+174677857
3817+174356942+174951589+175817843+174696200+172705699+172407787+173310097
3804+172552539+172720111+174759338+175085577+175189613+175991950+175759830
3790+174785708+173966753+173685592+174314502+174903460+174958073+175537826
3777+176087279+175348146+173722941+173145792+174513187+175917899+176623945
3763+176277821+174628319+173891458+174477796+173520308+170561623+169425551
3750+172047019+173017990+172694653+175739662+178025953+176143335+173326582
3736+173415924+175993227+178023448+178299850+177246552+176596016+177486617
3723+179057424+180983063+183239251+184669868+184360198+183891380+186443922
3709+190919349+194485401+197062654+200611673+206623610+212441987+215829720
3696+217142187+216646253+214899133+213716856+213999792+213663022+211249113
3682+207114867+202493030+198554684+197125510+198121009+197290263+195863195
3669+197035985+198194330+198191411+198291816+198169238+197037246+196403062
3655+197161648+196446016+194420836+195810174+200118410+202338046+202073502
3642+201005063+200563146+200692142+200602402+200097878+199011909+198533074
3628+201034916+203130830+202482184+200827922+200208481+201523702+202616072
3615+202383339+202297396+202448832+202538041+203182591+203426718+202555256
3601+201781113+201856955+202214357+202703839+203216125+203091739+202510809
3588+202945578+204325960+205039021+205086652+204886972+204463182+204147956
3574+204192054+204223201+204123012+204772819+206262229+206914175+206563109
3561+206296244+206278979+206030291+205686406+205784688+206257303+206594836
3547+207008426+207776482+208101411+207618529+207065727+207014646+207341431
3534+207541360+207444671+207285143+207090521+206772956+206502509+206455225
3520+206425920+206402619+206728045+207010035+206741047+206429287+206378488
3507+206223454+206151111+206504001+206917509+207107785+207053669+206562462
3493+205926736+205652391+205651446+205840960+206135488+206276193+206286824
3480+206133050+205995563+206164827+206378289+206553805+206767267+206882598
3466+206923346+206860407+206807137+207067949+207484508+207669046+207599755
3453+207712598+208292865+208789363+208704565+208542084+208866880+209506902
3439+209876178+209790866+209732321+210147355+210931017+211453254+211268185
3426+210893735+211084409+211612949+211800671+211712358+211871770+212460031
3412+213123189+213474686+213680984+214101855+214715955+215140358+215118931
3399+215029307+215414902+216179459+216923202+217561366+218254907+218911398
3385+219112936+218986975+219201647+219967763+220815028+221138182+221085260
3372+221268787+221753028+222465443+223425301+224161896+224321889+224393237
3358+224733672+225041286+225383728+226192848+227322634+228084736+228119232
3345+227961379+228397607+229519117+230454431+230624773+230922784+231828095
3331+232524539+232721549+232899172+233446054+234223497+234780280+234898910
3318+234690490+234653423+234752301+234256218+233568615+233791165+234564015
3304+234598013+233945785+233913345+234941749+236423596+238080992+240054793
3291+241921141+243043182+243900845+245085460+246290889+247397838+248449560
3277+249351521+250056091+250454606+250908315+251724915+252399184+252620192
3264+252742588+253086638+253517328+253677669+253656905+253949543+254449357
3250+254266610+253074250+251859831+251553163+251774719+251817972+251627612
3237+251469974+251837210+252668106+252965835+252671638+252582114+252580439
3223+252373295+252079812+251655292+251111213+250708402+250612874+250442400
3210+249697794+248732230+248409392+248826780+248994435+248258504+247339924
3196+246866911+246461016+246037309+245801324+245489216+244992917+244396480
3183+243595968+242723842+242229070+242118565+241915817+241589860+241243405
3169+240795053+240415047+239981107+239332593+238930248+239020137+239339559
3156+239642778+239676080+239400259+239235523+239268029+239016074+238436122
3142+237941166+237654516+237494191+237206180+236594618+235919552+235356351
3129+235058937+235036149+234762766+234313535+234030318+233518811+232592702
3115+231600304+230823441+230207069+229365045+228047354+226621679+225635235
3102+225061071+224410502+223308329+222005000+221147751+220745505+220180695
3088+219428179+218995184+218817959+218676906+218561924+218257810+217819607
3075+217449933+217206453+217156135+217183002+217342614+217628651+217638154
3061+217307155+216969473+216924098+217067622+217086960+216958494+216654745
3047+216366651+216447286+216510292+216109173+215665780+215576272+215478040
3034+215147954+214980050+215069956+215060735+214760634+214235777+213739229
3020+213488236+213499580+213700686+213836399+213595075+213017312+212405517
3007+211955026+211627892+211332351+211070296+210788587+210439644+210191619
2993+210298956+210904067+211826925+212474924+212630158+212879625+213437868
2980+213755383+213519398+213117915+213154915+213385460+213126174+212736814
2966+212775888+212871300+212687458+212354851+211874125+211357809+211160417
2953+211090795+210827595+210769382+211132439+211465228+211433668+211163021
2939+211082419+211278716+211266278+210957851+210807676+210886039+210879157
2926+210668879+210324463+209855049+209254001+208688942+208385939+208297625
2912+208225597+208168960+208203191+208321009+208471765+208588322+208650200
2899+208610778+208487653+208445942+208525582+208672374+208891508+209197231
2885+209444095+209420064+209303606+209393993+209696283+210014395+210148118
2872+210234226+210385329+210459944+210537793+210658812+210674070+210662825
2858+210770178+210740425+210171071+209246289+208486343+208101643+208122225
2845+208412740+208733190+209050058+209325332+209479321+209559707+209666944
2831+209898550+210135264+210240528+210343154+210427521+210398647+210408432
2818+210537279+210654599+210690489+210688598+210696509+210759083+210843367
2804+210937386+211228547+211716388+212050902+212109977+212118054+212261512
2791+212593854+212926510+212970344+212848695+212858082+212941254+212953560
2777+212991805+213105725+213129723+213054860+212943327+212705038+212472271
2764+212402814+212392979+212459932+212681504+213006731+213364812+213702925
2750+214044753+214351356+214400745+214142802+213937699+214007968+214073976
2737+214007288+214055434+214267238+214477765+214617607+214704909+214778711
2723+214920478+215224559+215578892+215716711+215662960+215712615+215903704
2710+215942065+215845625+215997922+216300627+216396736+216463207+216694366
2696+216841704+216830510+217002013+217425587+217688787+217665535+217658553
2683+217739089+217787748+217829608+217847702+217833588+217867488+217894504
2669+217925285+218037912+218074581+217982868+217942434+217944623+217931621
2656+217976997+217939847+217711508+217600788+217773933+217974741+217986450
2642+217813886+217588200+217482854+217504912+217454494+217267534+217081984
2629+216936403+216801171+216712095+216608772+216411181+216275302+216342587
2615+216447983+216352985+216095507+215897253+215770463+215584166+215307499
2602+215033818+214950380+215065959+215185452+215168469+215001345+214831666
2588+214761944+214696733+214607723+214613229+214659600+214523588+214254965
2575+214140845+214261433+214385106+214310060+214147546+214006725+213798735
2561+213552734+213364514+213124947+212768789+212485738+212352446+212220000
2548+212068963+212011298+211990517+211826461+211585319+211456123+211375157
2534+211308718+211321289+211262762+211058736+210854031+210736942+210710291
2521+210684601+210550182+210387303+210323601+210254525+210084714+209959151
2507+209903791+209833472+209850836+209963480+209978373+209899844+209910143
2494+209989186+210013599+210080203+210333850+210671715+210921813+211085322
2480+211179374+211146586+211017888+210960438+211074691+211217021+211217071
2467+211127331+211139637+211307856+211468761+211559264+211664229+211744963
2453+211674180+211550126+211650281+211933913+212174359+212400475+212627438
2440+212742569+212808410+212921037+212995519+213019949+213125229+213294493
2426+213384034+213418149+213590016+213921927+214184049+214210137+214088620
2413+214072831+214268598+214533307+214806126+215068331+215191788+215250730
2399+215452633+215791890+216106851+216292965+216370946+216362422+216225764
2386+215849240+214966418+213265585+210690555+207443295+203769906+199961584
2372+196252655+192727832+189317229+185842725+182767167+180997392+180813417
2359+182159750+185046889+189203624+194466710+199810000+202433292+200835401
2345+196944321+194268505+193652316+194189280+195264486+196316274+197036781
2332+197629122+198814865+200732725+202597929+204078001+205714435+207850600
2318+210099259+211931525+213289534+214607192+216154963+217719817+219161330
2305+220478358+221494870+222186918+222805679+223512421+224236992+224829300
2291+225325382+225883924+226487094+227005235+227351342+227498498+227544538
2278+227627213+227760521+227922902+228083077+228103576+228017734+228101553
2264+228373891+228627024+228858282+229142710+229429610+229673637+229877215
2251+230024388+230108539+230160848+230253589+230399369+230497617+230576511
2237+230747914+230939302+231084651+231234561+231349659+231398302+231487627
2224+231627818+231720344+231783433+231864632+231980095+232134996+232241586
2210+232284906+232373203+232487588+232577825+232711217+232873034+232979641
2197+233092069+233298947+233463849+233439536+233412055+233570986+233808978
2183+233996136+234106624+234160640+234207293+234279818+234368331+234465750
2170+234616555+234807661+234966510+235065720+235126569+235211632+235324143
2156+235403999+235468746+235586182+235748215+235895471+236045298+236215573
2143+236365367+236477596+236546655+236641519+236822509+236982800+237051627
2129+237106456+237230842+237390835+237457787+237457920+237527261+237636107
2116+237733575+237864761+238014123+238110729+238135175+238151842+238219707
2102+238334855+238460684+238530356+238572465+238710019+238908223+239029093
2089+239074037+239112547+239174839+239275691+239346574+239327071+239300651
2075+239357238+239493366+239636542+239717841+239737112+239757196+239880935
2062+240070150+240106123+239936577+239809853+239878878+240002468+240116057
2048+240311044+240514970+240584244+240575554+240601244+240659920+240775367
2035+240945792+241058269+241097708+241152736+241255379+241381108+241506655
2021+241610442+241682785+241785925+241950678+242077286+242139180+242286768
2008+242569107+242832472+243010443+243150435+243279730+243461217+243648094
1994+243730288+243883216+244228858+244538811+244724941+244931322+245233960
1981+245537677+245712430+245765219+245815571+245972927+246153037+246224633
1967+246324556+246665489+247142649+247433744+247470944+247515889+247731706
1954+248008986+248224223+248403239+248580679+248680486+248727736+249031917
1940+249652468+250210943+250489749+250578361+250740063+251061243+251345058
1927+251506626+251699523+252013141+252223850+252394573+252973796+253711833
1913+254042351+254088937+254281918+254713569+255164939+255560502+256029369
1900+256546084+256871095+257016062+257242444+257531881+257908968+258518972
1886+259058507+259354163+259665094+260197000+260867471+261392893+261677537
1873+261719562+261563152+261746081+262689107+263825958+264617664+265133167
1859+265626050+266195437+266776169+267296681+267734866+268058402+268168839
1846+268263057+269075544+270394678+271325580+272027960+272811938+273363513
1832+273356564+273421660+274334434+275541057+276682187+277806103+278694448
1819+279399399+280080966+280682395+281140797+281764815+282758341+283756875
1805+284465939+284843143+285128699+285878761+286968146+287561714+287778411
1792+288859902+290726681+292145340+293094187+293901101+294561439+295347987
1778+296288143+296678117+296370636+296625676+298451690+300800620+302492497
1765+302994417+303154294+304218770+305545185+306613508+307599139+308014056
1751+308033759+308671907+310082506+311566874+312580401+313175727+314161557
1738+315227193+315589670+316787022+319242957+321075439+322559110+323866652
1724+324961809+325684838+325378584+324875004+326412178+329304326+331553085
1711+333030022+333789902+334248106+335007123+335375006+335578103+337165263
1697+339447490+342415297+345410369+347028643+347918613+348027177+347548773
1684+349565412+353780890+356505233+357655153+358659691+360398004+361652607
1670+362780071+365635732+368542375+370193983+372242996+375205927+377332556
1657+377634763+376854882+378994944+383352254+385315192+387589889+392015628
1643+395715917+397832064+398732550+399036880+401532254+406500214+410110647
1630+412317613+414567499+417168982+420339389+424492740+428105528+430947390
1616+435566706+441444606+446116595+450133321+454449169+459171145+464138310
1603+469302468+474616187+480098607+485743988+491618570+497592462+503433145
1589+509313665+515338306+521727181+528806944+536209810+542521368+547632886
1576+554273385+561865583+567849558+573977091+581569256+589317848+596669667
1562+602216734+606286233+615730582+629277865+640344600+649987569+658882167
1549+667322144+674940778+682234949+689179778+696865282+709382254+721117288
1535+729129910+737536585+747518678+756169281+763454827+770385128+777462569
1522+786024809+795328851+804457958+814331521+823778922+831582376+837753427
1508+842503962+849951375+861733245+871689731+878309433+882291696+886918044
1495+893376277+898410212+901951188+905937232+911230353+916519162+921293645
1481+926990837+933431556+938783586+941579111+941124689+939867300+942176693
1468+946489324+948557972+948058174+946938173+944319906+941027303+942242700
1454+945901162+946798397+945160620+942699311+941610622+942199115+942401383
1441+940331009+934342258+924874358+919656797+919990814+918063135+913810807
1427+911747067+911186171+912497096+917036672+922541548+926997272+932034059
1414+938633063+944849490+947955813+948153702+948047759+950189646+954667461
1400+957777432+957497216+956986672+959707233+964880546+967456688+965868732
1387+965651870+969453956+973474961+977228553+981375071+984839027+987803584
1373+989591950+990098846+990891796+991909436+993111034+994356416+993703839
1360+991239811+989465044+989146550+988801853+986934809+984496652+983208813
1346+983137433+983110831+980983074+975573263+968891202+964678212+964291655
1333+965405155+965713300+965072797+963767046+962779657+963900852+966775453
1319+968404274+968451839+970531699+974640205+977156641+979163130+983425742
1306+988423323+992620391+995653675+995758689+993694817+993658265+995802739
1292+996828074+998127058+1002623779+1008608352+1012675064+1015212596+1019841797
1279+1026776874+1032734579+1036096506+1037898273+1040516739+1043257800
1267+1043853457+1044614498+1047823381+1051779374+1054237100+1054257997
1256+1052642908+1051854470+1053810143+1056976237+1057927538+1056054059
1244+1054988522+1057428006+1060750195+1062401572+1063806897+1065777762
1233+1067243787+1068557697+1070570223+1072407945+1073592494+1073741823
1221+1071701435+1068445518+1066405660+1065084055+1062893475+1061611408
1209+1061000691+1059583492+1060668864+1064169439+1066586766+1067932319
1198+1067226074+1064761117+1063533249+1063424453+1063343254+1062642780
1186+1060992797+1059316676+1057952813+1056416071+1053563892+1050355076
1175+1049796568+1050341344+1047834924+1043774315+1042494968+1043306360
1163+1044230661+1046348533+1048720417+1048505810+1045853843+1042886898
1151+1039616188+1036006484+1034362936+1033867915+1032311536+1031437586
1140+1032279162+1032676931+1031406407+1029782495+1028200907+1025907303
1128+1024121656+1023468350+1022017981+1019146100+1017819387+1018952523
1117+1016838366+1010039084+1005948092+1005910212+1004502300+1002828767
1105+1004419973+1005784500+1005914657+1009307166+1013156884+1012398961
1094+1009836419+1009596471+1012701467+1016059745+1017830134+1022603555
1082+1029182392+1030829987+1031199296+1033926757+1032746852+1028135961
1070+1027056360+1030366609+1035377325+1037868155+1037861919+1039128397
1059+1038083757+1034060563+1034015652+1037211532+1039488551+1042103700
1047+1042625655+1039064579+1039356802+1045212876+1047536266+1045835600
1036+1046950692+1049508789+1047459180+1041336424+1036113887+1033519303
1024+1032683034+1034063217+1038470845+1042103501+1039001490+1030775125
1013+1025568045+1026450487+1029060395+1029604839+1028033666+1025072692
1001+1023364729+1025273766+1027971706+1029583080+1031731799+1033401684
989+1033966627+1034741002+1036868029+1040604638+1042887097+1042619486
978+1042678461+1043506040+1044037084+1044267612+1045695492+1050216958
966+1054975652+1056136916+1056208430+1057674720+1059813821+1061870462
955+1062855330+1064000010+1066406257+1066966623+1065180512+1065258593
943+1067477764+1066793942+1061095888+1054585844+1052127322+1054089828
932+1056647859+1056400879+1054607272+1054347289+1055794143+1057793931
920+1059675106+1060432564+1059845995+1058770375+1057603273+1057294200
908+1059352300+1062355466+1064439174+1066964765+1069899933+1071851958
897+1072712507+1070903443+1067622914+1066432527+1066215267+1066874942
885+1068851446+1067320541+1064590228+1066536812+1066373287+1060193346
874+1056624574+1056575881+1053135409+1047315291+1044224889+1043112318
862+1041152399+1041528342+1046052794+1045638042+1038701572+1035813836
851+1036762749+1034565336+1030044998+1028663091+1030774196+1030369064
839+1028729960+1030869923+1031662674+1025400075+1017961883+1017999232
827+1023810925+1028417703+1030868397+1031997023+1031753094+1030252573
816+1027192621+1025341431+1026683801+1027780119+1026261022+1023469412
804+1021925106+1023598441+1024099698+1018176489+1012049156+1012813978
793+1015810244+1014079925+1008577305+1003552658+1001175798+1001117884
781+1001795670+1001000862+997598004+992657607+988442296+986913978+987999019
768+989796871+989062300+985094433+981588285+980326053+980040596+980446060
754+981443931+978665256+970914674+965611270+964377763+960815890+954432554
741+951061274+950202582+946729537+943669983+945027212+946815114+945010694
727+940141280+934002138+927126898+921600993+921595023+925104621+926839982
714+927442605+926767739+925300586+927824917+931640802+932649618+933166333
700+932706007+931922875+934010894+937284989+939025657+937363335+931986627
687+928743712+929811040+928936957+927342566+930166020+931053303+925029060
673+918626486+916351590+920238921+933863290+943020524+938905385+930100543
660+924797471+925102896+929569433+937431399+948367977+956322817+955872840
646+951297109+947457408+943133632+938644871+938020025+941417244+948757387
633+955238905+954231415+948393982+932847441+911579362+904621332+915167041
619+933376097+948846547+953532202+945793958+930356412+920315211+921447684
606+922319047+921250392+925783534+931589522
##END=
