##TITLE=Sample description
##JCAMP-DX=4.24
##DATA TYPE=INFRARED SPECTRUM
##DATE=12/9/2023
##SAMPLING PROCEDURE=Instrument type and / or accessory
##ORIGIN=Default
##XUNITS=1/CM
##YUNITS=ABSORBANCE
##RESOLUTION=4
##FIRSTX=4397.6552
##LASTX=599.8556
##DELTAX=-1.9287962
##MAXY=1.6797472
##MINY=0.12380847
##XFACTOR=1
##YFACTOR=1.5643865e-009
##NPOINTS=1970
##FIRSTY=0.12587859
##XYDATA=(X++(Y..Y))
4398+80465145+80680854+81018676+81320988+81309167+81472087+81208476+79921406
4382+79141870+79978519+81625586+82657208+82461903+81812995+81909991+83224027
4367+84713813+84960869+84382220+84122686+84006325+83500383+83086701+83512984
4351+84453316+85039729+84831345+83776357+82845236+83165904+83961833+83607904
4336+82589446+82745250+83489514+83401596+83360171+84011364+84659728+84919834
4321+84943047+85377817+86373005+86624576+85200715+83375992+83233476+84880943
4305+86337143+86489375+85970659+85435379+85157041+85484586+86487661+87447586
4290+87723780+87574024+87722685+88684029+89899250+90378160+90327315+90190551
4274+89447354+88572184+88818754+89394127+89020461+88354246+88484780+89295397
4259+90217527+91102946+91504635+90981318+90089793+89868045+90541909+91165765
4243+91338210+91523761+91531715+91107718+90635742+90443122+90639800+91063149
4228+91405334+91640074+91957722+92370908+92694623+93138252+93691487+93646547
4212+93232618+93314145+93576232+93364381+92967645+92860115+93170238+93952050
4197+94712165+94661290+94076231+94027814+94551941+94674502+94257068+94111808
4182+94522355+94799292+94621123+94570877+94804160+95058198+95419481+96001806
4166+96518522+96291822+95280955+94390269+94088119+94287577+94963641+95736862
4151+96129626+96223878+96419326+96997661+97714216+98096788+98246487+98220369
4135+97727466+97259072+97626403+98297285+98065784+97314156+97249842+97742097
4120+98246573+98703984+99034729+99114218+98814944+98301552+97961911+98052525
4104+98553790+99093195+99362903+99483921+99794377+100113111+99987425+99642021
4089+99497323+99593594+99956782+100510218+100852632+101041822+101401305
4076+101656581+101559614+101026277+100464040+100726498+101384092+101511264
4062+101250272+101180271+101654143+102261682+102121584+101385731+101030058
4049+101105527+101239271+101667849+102379423+102963530+102971036+102250985
4035+101580817+101916820+103012909+103633993+103454747+103422085+103663750
4022+103617771+103615514+103684886+103434020+103407121+103771680+103985227
4008+104154652+104543425+104757181+104619808+104477872+103959575+102906741
3995+102437203+103021510+103943325+104614693+104932150+105139515+105541070
3981+105888542+105508989+104446849+103692668+103880582+104770792+105793451
3968+106212829+105694741+104903679+104932807+105757150+106287364+105967696
3954+104874103+103465034+102839769+103830546+104421245+103110381+103136337
3941+105432292+106729497+105649687+102870564+101661382+104298417+106225488
3927+103962214+101725458+102523731+102563451+101323493+102871354+106663973
3914+108624649+108265547+106501196+101606402+94183981+90029022+91857888
3900+97737744+104648927+106426708+101567225+98573870+102013825+102429164
3887+99460813+99936456+99546987+99896326+104490531+104108921+98887612+94563590
3871+92444814+95795528+98850968+98231771+101512121+106918601+106012275+96478021
3856+82272779+81001445+98503992+110324285+111659277+106708084+99892249+94208137
3840+90439598+92386786+99200850+103514546+105796480+108444288+109413120
3827+108445431+104123895+96269532+95572361+100941312+103875239+110497130
3813+116938414+115602241+109088442+105501341+105556082+101395723+100404526
3800+107171335+111114718+114485511+119079041+120537517+119962002+118986284
3786+118032674+118224750+117473056+116272656+119353253+123757364+123712061
3773+119380372+115980793+117529950+120682568+123572212+124092395+120180873
3759+118067784+119926187+117508328+108079948+102312813+108839881+112178564
3746+110068885+118135899+128390032+127272102+119159557+114838383+121877490
3732+135192151+143823306+144461783+143130698+145389142+150297909+156832931
3719+163911881+167795132+165418641+161007330+166076569+179468755+190097421
3705+194702343+197921170+206969331+219194123+228352168+233782489+234797614
3692+232821888+237627449+253968917+269050215+277030673+281067337+281708500
3678+277965804+279278973+293682264+304724916+312048113+328004057+344880577
3665+355768272+363823236+370664190+374626233+379508835+387983291+390241383
3651+385734952+391528472+412544739+432837011+446501010+455696755+463376692
3638+470376411+476051627+479741325+479210845+478678422+492244845+512254065
3624+523403590+525674636+527029355+534971731+544317175+549422629+553417706
3611+558771769+565805132+574886650+583227982+588626965+592690777+596736681
3597+600091090+604096531+610454707+615422121+616491310+620387401+630616598
3584+639158492+642645493+644336338+646343878+649106275+652700644+654276348
3570+651555329+648270263+651461601+660614140+669436343+674865046+677258091
3557+678450576+679726653+680826933+680405155+678762546+679815962+685444314
3543+690497188+691875910+692484154+693920408+695287166+696549223+697690575
3530+698656206+699979605+700100157+700058703+704096949+708726369+709030186
3516+709314877+712032238+712220685+709886163+710597203+712681555+712555974
3503+713420942+715801262+715423072+713079634+713145929+715712411+717614564
3489+717754775+717361725+717258777+717970427+720320723+722381605+721757130
3476+720498121+720530126+720104233+718467187+717638034+718878830+720367054
3462+719348615+717069720+717325606+720233472+722982381+723799342+722125490
3449+719529899+718832804+719661957+719986501+720141191+721713314+723778386
3435+723201156+720746921+720797900+724354016+728020929+729201831+728106275
3422+725726870+723023606+720152012+718510622+719949543+721599925+719792567
3408+716785105+716493633+717899864+718918074+720188818+721006236+720721469
3395+719248409+715652821+713198204+715120169+718336729+719866636+719868465
3381+718411407+716979116+717020265+717135634+716275010+714270822+712803706
3368+716030706+721638483+722611353+719328955+715469784+713039018+713275625
3354+714677283+715512914+716062940+716102412+713817649+710454629+709799292
3341+710858423+711410887+712141588+713392671+714944524+715423758+713928142
3327+711828703+709704497+708162856+708824365+710975469+711673784+709401899
3314+706057777+705135429+707315261+709736197+709211090+705696046+702021055
3300+698865457+695049721+691495510+690728232+694259888+699823620+703388118
3287+703254384+701437120+702514463+706032249+706205990+702935326+700822932
3273+700602175+700178264+698750849+697205321+696526057+696551356+696868280
3260+697839931+699101607+699512640+699187410+698673428+697542439+694796502
3246+690892524+689061315+690571028+691472040+688533693+684371466+682701272
3233+682555650+682123433+683355542+686523790+687343571+684818772+681876767
3219+678302972+674284463+673159646+674926693+676095555+674820010+671796927
3206+669437029+668749611+667331265+665019755+664594548+666095802+667712503
3192+667047107+663718835+661465772+661482232+661783611+661867890+661384617
3179+659263003+655891219+653351256+652183233+650856710+649526452+649550303
3165+649740275+648043181+646105747+646407964+647158248+646513199+645629485
3152+644147510+641768790+641123359+642407362+641851088+638455263+635886762
3138+635917433+636066713+634526367+632019285+629657634+628136339+626829209
3125+624443212+622367280+622284677+621921384+619295085+615667377+612259512
3111+609532625+607702369+606778001+606343612+605015679+602288640+599763765
3098+599201356+599726159+598751879+596212678+593814717+592436758+591780659
3084+590163997+586922214+583495069+581192171+580062705+579475950+579211758
3071+579060650+578584121+577589190+575783623+573481601+571601470+570276662
3057+568948233+567368110+565958755+565074622+564401759+563505852+562189769
3044+560835546+560141918+559461549+557918650+556016802+553723542+551182246
3030+549470179+547865899+545531415+543744098+543215142+542844153+541501780
3017+539893233+539231114+538750966+537715420+536752875+535983006+535219349
3003+534860209+535249829+535648251+535332204+535680028+538435566+543211218
2990+548342580+552580666+555380135+556766591+557064998+556462393+555460299
2976+553789952+550583908+547019600+543830968+540170036+536739425+534189175
2963+531521307+528155353+524460739+521052455+518842485+518268074+518385159
2949+518419831+518225478+517289908+515901052+515022100+514802486+514996496
2936+515341996+515166846+513884482+511530184+508370623+505149377+502540184
2922+499672667+495599521+491162091+487592564+484898749+482412013+479895025
2909+477764837+476373276+475010518+473093201+471394317+470154816+468749005
2895+467438522+466905870+466700163+465870172+464815918+464220361+463635130
2882+462935063+462243835+460876392+458825302+456923530+454864744+452401440
2868+450684382+449703168+448120339+445860456+443653876+441459527+438920021
2855+436194392+433523057+430708957+427661375+425026274+423144962+421175104
2841+418980831+417331554+415966168+414422774+412907879+411529729+410256318
2828+408899733+407366131+405890328+404414449+402841298+401308953+399661276
2814+398076657+397105463+396452032+395340131+393714286+392217680+391092482
2801+389918744+388566388+387284366+385974836+384309976+382499304+380880546
2787+379361193+377897621+376315973+374385740+372424226+370983590+370199320
2774+369447054+368096108+366418751+364889378+363531078+362312190+361122983
2760+359876433+358902839+358336239+357756419+356933286+356249983+355906274
2747+355337693+354276810+353233910+352522336+352085813+351810572+351289655
2733+350336179+349417031+348651468+347823572+347220586+346876534+346230570
2720+345266692+344426489+343788222+343208706+342389535+341287998+340413695
2706+339946958+339397733+338354033+337095291+335994249+335011473+334170623
2693+333419767+332499781+331454176+330568214+329752015+328688007+327541892
2679+326730608+326149720+325337332+324361832+323483529+322584917+321792341
2666+321216826+320593342+319907677+319331723+318865024+318458068+318111063
2652+317865598+317684809+317445096+317200717+316983198+316758650+316748230
2639+316970206+317190068+317313172+317176694+316738419+316382537+316472360
2625+316843482+316974226+316653949+316253089+316000365+315612726+315072378
2612+314716191+314570150+314382198+314042870+313641286+313290929+313081983
2598+312844309+312244543+311415218+310658628+309985803+309418117+308891676
2585+308276326+307667740+307045170+306316279+305652160+305069692+304328475
2571+303504161+302939009+302683923+302442077+302011289+301622392+301428915
2558+301136890+300701072+300448082+300516587+300647159+300594466+300600105
2544+300778894+300943871+301225113+301681887+302011536+302050037+301938916
2531+301892318+301932591+301929962+301971416+302146395+302173675+301987837
2517+301901996+301930419+301794380+301388128+300844446+300376566+300111860
2504+299887864+299521466+299064045+298567837+298106072+297689972+297324831
2490+297096930+296876325+296635242+296466740+296298677+296147111+295956378
2477+295601791+295158296+294702227+294237624+293853985+293717126+293753799
2463+293625798+293211450+292716519+292382659+292209947+291950575+291545885
2450+291198462+290911333+290477267+289932824+289562311+289427833+289334810
2436+289067303+288542900+288027927+287796788+287673912+287376153+287016785
2423+286904959+286978227+286942107+286765604+286576204+286433973+286344665
2409+286315232+286379108+286440641+286364992+286298029+286392939+286495202
2396+286480171+286418200+286277874+285983582+285563633+284780944+283130162
2382+280318672+276499602+272124563+267489123+262584366+257453727+252415979
2369+247715995+243462860+240214905+238490112+238098739+238772478+241047906
2355+245572187+252044818+258367693+260990107+258488702+253531499+250370890
2342+249592354+249843382+250731630+251701948+252143576+252355322+253282376
2328+255013893+256648711+257923893+259619234+262141404+264771533+266613048
2315+267648080+268660461+270107574+271596769+272779138+273796148+274831332
2301+275879662+276809249+277555914+278124285+278479119+278713116+279054825
2288+279533468+279874339+279870033+279632455+279330371+278985557+278666176
2274+278445228+278182275+277832679+277580146+277408939+277207899+277115676
2261+277158235+277138480+277048561+276995315+277029930+277153567+277232589
2247+277133183+276924009+276787455+276796809+276888366+276915894+276762899
2234+276596131+276699156+276988190+277144861+277164045+277261260+277446164
2220+277556314+277453994+277210109+277064907+277125678+277311820+277450622
2207+277515069+277686486+277874438+277866437+277840128+277909053+277933209
2193+278016231+278267106+278454449+278417262+278325992+278395297+278577477
2180+278640229+278523507+278348566+278149355+277954240+277906767+278041663
2166+278189152+278261048+278323401+278385772+278501675+278748855+278983652
2153+279084849+279168461+279356928+279671623+280029676+280275180+280400818
2139+280533543+280702806+280905732+281170705+281434764+281672819+281973607
2126+282281253+282506259+282720824+282876943+282883592+282886468+283030242
2112+283227777+283327296+283383781+283537366+283755189+283977204+284240462
2099+284540774+284808491+285013417+285158067+285227144+285270274+285429365
2085+285800602+286309536+286666675+286689917+286642348+286730246+286827480
2072+286944660+287116705+287201270+287254459+287453022+287716033+287904099
2058+288046978+288206907+288345099+288420729+288554711+288804540+289017581
2045+289012514+288843422+288883675+289254017+289679871+289994319+290206141
2031+290351934+290430251+290449206+290465589+290519941+290444577+290102259
2018+289960828+290433966+291084044+291441432+291637880+291901082+292242200
2004+292579755+292815429+292975110+293157595+293088937+292401938+291837605
1991+292410587+293605529+294576475+295174298+295488345+295721885+296013834
1977+296392748+296780387+297177990+297418331+297081671+296733409+297311839
1964+298300540+298903316+299194369+299273315+299217344+299272610+299390494
1950+299245158+298631351+297443401+295915228+295525132+296875925+298115769
1937+298340203+298226129+298181722+298139792+297967956+297398156+296203767
1923+295232802+294785116+294256331+294889722+296777492+297603597+297041303
1910+296705900+297433305+298533984+299201094+299443759+299428614+298993863
1896+298536023+298610091+298158957+297341519+298388210+300458064+301521767
1883+301982084+302516317+303044492+303338936+303246312+301804286+298176121
1869+295430184+297529871+301750145+304175786+304870271+305149380+305665972
1856+306345903+306841253+306862514+306002651+303675520+300419982+300298440
1842+304633093+308226014+309356184+310013940+310110907+307662348+304617547
1828+304984555+306967272+309232775+312688362+315333217+316297895+316903491
1815+317123467+316069594+315157038+316410255+318616263+319440292+318076010
1801+316210206+316721483+318717307+318362053+315456111+315840798+321625306
1788+326244516+327354664+327544749+327937151+328974450+330711588+330300212
1774+326250574+323086936+326283912+332935770+338744911+341121040+340550363
1761+341553714+344224249+346566811+348864529+348500626+345377680+345432203
1747+350360068+355667686+358934082+360922533+364125491+367119313+365817708
1734+365984476+375172449+386144385+395234629+401965509+406554237+409586389
1720+408547832+404894254+408949721+422619054+436174161+445372459+449636567
1707+451328250+454474743+456937970+457401850+462960477+473923421+488870204
1693+504941041+515029911+520921540+523724553+522842477+529762604+548939623
1680+565532176+574967767+580924245+588485154+595242132+601284032+613929477
1666+627479325+634234932+639325298+647868831+654952335+654397890+645882628
1653+644893831+658275654+664304523+666641104+677725286+690044015+695437665
1639+693951194+687632681+687119918+699896926+712007701+717697776+722036257
1626+728013842+736279010+749394812+762396692+770866538+782142977+798187906
1612+809956991+816372661+820424471+823279529+824753427+825032326+824763790
1599+823180390+819016411+812674200+805683129+798637726+791016922+782472474
1585+773072203+763718567+754907032+744469576+730022602+718224941+715260533
1572+711021876+703086282+699672512+700116693+698818440+692002329+677365993
1558+671755473+687905865+704063420+715411489+724661338+733976340+741477506
1545+744778955+745725688+752299935+779380428+810915078+829701600+844969040
1531+863742150+877917083+884728317+888178893+886656988+880110403+876600694
1518+875365842+872929742+870066835+863223215+849493073+832324623+829067066
1504+845384950+857625344+860261779+859002618+861914446+870408601+876101648
1491+876265177+879744101+892705213+907264051+917435638+924263790+928593508
1477+929026258+926380984+926113896+934657049+946349627+951088626+950226248
1464+951835481+954663106+949928222+937091167+934055053+946269234+955500489
1450+954879215+949235928+946607418+946495630+943677530+937693315+928602957
1437+917184172+911202015+910868631+909013724+905647960+904521086+905451892
1423+906583796+905904303+905165602+911290866+922194602+931339140+938184970
1410+943333478+945499366+945536628+946951851+947973414+946340025+945868107
1396+946860104+948303902+952483350+956417656+957112770+956963033+958320876
1383+959527838+959635816+960022770+959728783+958507266+960394254+964669717
1369+967142470+967836593+966324137+962774346+961882326+964300594+965607153
1356+964850620+963679853+962667663+961714682+960690604+959219144+956750582
1342+952636973+948298339+946296895+945523598+943380494+940089942+937828421
1329+938281594+940232592+941609485+942908423+944115234+944593096+946228847
1315+949589810+952586146+954460866+955887671+956922113+958111320+960235983
1302+962534995+964445988+965502756+965380757+965311870+965773121+966322232
1288+967566305+970589236+975126833+979910257+984070731+987200573+989736345
1275+991948716+993255580+993882264+995447071+998754617+1001421608+1000748288
1261+997636886+995138682+995097000+996492791+997320344+996926380+995866411
1248+995232182+996065907+998288946+1000555649+1001888955+1002299759+1003021392
1234+1005576595+1007975585+1007612025+1007065810+1008822036+1010684488
1223+1011113733+1011437287+1012069991+1012537033+1012778136+1013038442
1211+1014433776+1016656053+1018500749+1021142442+1024241956+1025310993
1200+1025249117+1026152948+1027965031+1030197748+1032052731+1033249940
1188+1034500262+1035876316+1037418186+1038938796+1040081216+1041449802
1177+1043133865+1044247252+1045008204+1047196038+1050157855+1050630765
1165+1049444301+1050007661+1051522937+1051910653+1052404898+1054122033
1153+1055997515+1057029670+1057014049+1056886030+1058026925+1061049704
1142+1064248966+1063115767+1057586935+1054223915+1055570403+1058523381
1130+1062133905+1065185183+1064059833+1060064946+1056768907+1055056040
1119+1056788263+1061551494+1062956429+1058270086+1052600661+1048926889
1107+1046679542+1046423656+1046487589+1044449416+1043430748+1045839263
1096+1047491550+1046524852+1046750105+1048959351+1051177209+1053630835
1084+1056347358+1056959184+1055337682+1055392548+1057562703+1058817292
1072+1059192281+1059220095+1057782393+1055847854+1055375098+1056510735
1061+1059141836+1061294312+1060565364+1058822550+1056876504+1054932441
1049+1054656513+1053862489+1052113121+1053664974+1058186949+1060626935
1038+1058710304+1055276569+1054623594+1055126298+1050461596+1042204811
1026+1037916623+1038925308+1041807418+1044098277+1043156269+1038457886
1015+1034382606+1032781908+1030475808+1026953069+1025921066+1028882502
1003+1032530289+1035564498+1039728096+1041902137+1040283227+1039929574
991+1041571497+1042051722+1042889943+1044882319+1045558078+1045946403
980+1049024961+1054223305+1058036603+1058820264+1058492214+1057934492
968+1057406489+1058558891+1060935858+1063283640+1064912456+1064145712
957+1062581972+1064741459+1069497070+1070427877+1066743741+1064244699
945+1065011671+1065508660+1064262454+1064680726+1069114308+1073741823
934+1073188444+1069487773+1068031631+1069720418+1072331325+1072464145
922+1068897285+1065681639+1065943392+1066810799+1065648796+1064228087
910+1063516056+1062948123+1062574809+1062325324+1062427816+1063820025
899+1066645136+1068821387+1068368367+1065827337+1062881217+1060220017
887+1057877188+1057352462+1058456476+1056702916+1050878878+1046501610
876+1045668266+1044641673+1042808483+1041782500+1039062777+1032062104
864+1025777882+1025318004+1026577469+1025855227+1024185795+1022060980
853+1020370517+1018545480+1016247763+1014913162+1014978239+1017586174
841+1021896613+1022631428+1017887400+1013826141+1015374641+1017995378
829+1015444747+1011313230+1012110988+1014418459+1012860434+1010455044
818+1008978936+1006335719+1003877902+1003804595+1005241688+1006937638
806+1007861815+1004910209+997797596+992233635+991298104+993502169+996075356
793+993899943+987734825+984375767+983292328+980897987+979301861+979980820
779+979324798+975931373+973879179+973888018+972233217+967939999+962951439
766+959501777+958844535+958975831+956181887+951411417+947413177+943319685
752+939405192+937993246+938327315+936700708+931976950+927607607+926072138
739+925044783+921153302+915414229+910674316+906411961+900934184+895222772
725+890740269+887159464+883804750+880295498+876965473+873133049+868836402
712+867996276+870710132+873460717+876362868+878212289+876656017+874386571
698+874823589+876945737+878297483+878798206+879516104+880953578+882836223
685+884035413+883286653+880228059+876898187+875810480+876965549+879076876
671+877885916+870926698+870185481+879444094+885184691+886498717+886764738
658+885063072+882151472+881317747+881646634+881894367+884706981+887000354
644+883397450+878056913+873859253+868172760+862682638+860295155+861896920
631+867080176+871053117+869161023+862129031+854158156+851407494+854296996
617+854988757+852422275+849575904+845125558+843396536+846713150+849804663
604+851268502+853467766+854876588
##END=
