##TITLE=Sample description
##JCAMP-DX=4.24
##DATA TYPE=INFRARED SPECTRUM
##DATE=12/9/2023
##SAMPLING PROCEDURE=Instrument type and / or accessory
##ORIGIN=Default
##XUNITS=1/CM
##YUNITS=ABSORBANCE
##RESOLUTION=4
##FIRSTX=4397.6552
##LASTX=599.8556
##DELTAX=-1.9287962
##MAXY=1.7581916
##MINY=0.13741413
##XFACTOR=1
##YFACTOR=1.6374435e-009
##NPOINTS=1970
##FIRSTY=0.15494524
##XYDATA=(X++(Y..Y))
4398+94626311+94895970+95045842+94788705+94616283+95485503+96350392+95167758
4382+93054141+92334192+93365907+94836673+95235501+95083554+95707586+96779496
4367+97482045+97565322+96835126+95812184+95654750+95882902+95449748+95254675
4351+95615800+95461123+95411190+96360939+97221514+97319287+97122885+96722028
4336+96441349+96842506+97525608+97500655+96932280+96982932+97455409+97155883
4321+96183129+95980320+97002352+97718679+97386156+96858386+96720026+97150250
4305+97733376+97730947+97054615+96107142+95550725+95941435+96872328+97172254
4290+96674707+96299321+96593869+97647251+98683880+98709570+98276261+98162226
4274+98147029+98020945+97651783+97145327+97111537+97632746+98435844+99221387
4259+99146201+98180326+97396312+97259953+97521841+97821485+97905280+97688903
4243+97451177+97612170+97824570+97693681+97774145+98283378+98223043+97285616
4228+96949444+97922562+98875013+98911469+98791163+99112821+99461252+99540579
4212+99559125+99776266+100034504+100150360+100393337+100485750+100161480
4199+100087987+100260964+100076302+99986883+100354970+100262675+99257815
4185+98138101+97854128+98588946+99411673+99671067+99900103+100351348+100446173
4170+100272085+100725560+101571111+101554275+100503022+99605009+99680832
4157+100059312+99825417+99202313+98853673+99078322+99625957+99856558+100006776
4141+100818328+101604199+101352122+100412329+99570054+99216009+99335513
4128+99513433+99396258+99458613+100276699+101049993+100723649+99710117+99213088
4112+99723903+100267744+99890029+99348545+99516882+99829630+99725196+99864530
4097+100523762+100927822+101024103+100922735+100370095+99998012+100260619
4083+100643603+100739083+100623682+100543227+100719645+101062333+101066310
4070+100814024+100738510+100509374+100002344+99815470+100296155+101022210
4056+101299167+101113613+101006312+101036525+100745535+100364762+100559025
4043+101117271+101404321+101196507+100784348+100520486+100469033+100661530
4029+100760232+100389760+99994099+99930834+99866623+99852754+100239997
4016+100755654+100979612+100776048+100498263+100904535+101691534+101833025
4002+101557333+101459660+101192594+100786004+100757857+100961985+101194078
3989+101503441+101718799+101780808+101774201+101575233+101092719+100532006
3975+100114086+99955378+100279492+100808409+100839741+100619460+100884177
3962+101698123+102415032+102372052+101719417+100985882+100422003+100235884
3948+100467067+100073808+98853054+98979903+100652312+101624529+100956224
3935+99015421+97819929+99113840+100721383+100097323+98776621+98884559+98748037
3919+97582339+97907037+100403511+102475121+102612690+100898037+96884104
3906+91682959+89302195+90886596+94572829+99067019+100834299+97998503+95337778
3890+97018169+97765209+96252227+96340418+95919194+96270637+99482555+99196543
3875+95350555+92278799+91033374+93310614+95254793+94384927+95740319+99178834
3860+99406859+94127508+85192281+83919919+94651246+101931444+102696785+99560363
3844+95326430+91644211+88934308+90146590+94713637+97316830+98216045+99246112
3829+99444562+98752833+96030072+90950116+90752185+94670420+96347689+100030327
3813+104192094+103589366+99079423+95780461+95131093+92543161+92561671+97702208
3798+100216992+101586763+103939981+105000698+105303982+105266007+104650174
3784+104605401+103905946+102185487+103017733+105661213+106252985+104109919
3771+101879400+102262212+103888146+105865077+106430549+103792411+102432386
3757+104296129+103649992+98488479+96133041+102649473+107697114+110085541
3744+119413544+129104893+131671848+130957396+132183055+138004947+147056684
3730+154112752+155642469+154003531+152816074+152512581+152953816+153295221
3717+152139324+150058359+151338010+161825459+177717715+191929955+202845389
3703+212000559+221697032+229636553+232872515+232186155+227513954+217894488
3690+208684024+207339643+208321688+204704008+196817613+187154175+176832133
3676+169439409+169330880+168850149+166669145+169599920+173581010+174393554
3663+173831104+172599438+169863518+167873291+168217936+165269652+158137851
3649+157102442+166102126+174969874+179663333+182177498+184549007+186601789
3636+187669286+187457814+184963688+182652076+187374947+193690346+193789538
3622+187829724+180078687+176506034+175161143+172681177+172345013+175073362
3609+179177543+184485961+188618225+189855332+189955362+189938891+188951767
3595+188316861+189178564+188192314+183570220+180677029+182724587+184601771
3582+184207875+183261994+182670404+182161063+181612226+180382854+177068958
3568+173430911+174379467+178154328+180036425+180583369+181116226+180930708
3555+179844118+179073945+179056273+178527274+177564103+177837002+179297539
3541+180296201+180108772+179688267+179851508+179931190+179239297+178167978
3528+177364935+176931216+177110874+178001461+178661558+178581676+178397086
3514+178388841+178100600+177715113+177873348+177779142+176865931+176748647
3501+177877989+178554757+178391317+178283060+178338298+177975052+177229905
3487+176800864+176733813+176466011+176120856+176056554+176067274+176136400
3474+176383654+176569299+176634129+176692862+176478806+175857131+175487970
3460+175835490+176421274+176728390+176766429+176827146+176747755+176252537
3447+176117016+176720381+177280157+177724668+178361996+178746991+178516081
3433+178104658+177974488+178105204+178348800+178326559+177986956+178139840
3420+179075256+179974161+180267936+180230697+180389497+180766776+180935094
3406+180969402+181207483+181515090+181735171+181962804+182412157+183063444
3393+183582942+183902616+184298222+184763191+184860364+184816209+185358949
3379+186333313+187177108+187640111+187729566+187755720+187941202+188237980
3366+188753782+189612010+190402385+190807911+191269112+192089683+192893236
3352+193557955+194392158+195119996+195343116+195525158+196141428+196936845
3339+197678789+198597788+199506376+199845725+200004542+200643199+201355767
3325+201563708+201487266+201635746+202254218+203126860+203609865+203523249
3312+203515004+203870952+204255510+204500216+204739226+205159876+205642790
3298+206182272+207068146+208018213+208820273+209678100+210313535+210762560
3285+211618549+213051112+214533544+215145937+215089715+215400708+216046298
3271+216669011+216895261+216198309+215402928+215578508+216249361+216658455
3258+216575005+216178070+216185933+216702846+216888436+216301451+215343558
3244+214772699+214761578+214804204+214616957+214310697+214265887+214350155
3231+213855920+213096194+212947059+213299294+213442587+213023447+212310205
3217+211623044+211147446+210907181+210375672+209551352+209028178+208727378
3204+208609693+208660418+208296954+207323809+206137244+205251079+204733838
3190+204228100+203752448+203110661+201807686+200356850+199532330+199232713
3177+199094407+198774679+198077453+197258630+196629529+196260969+196059089
3163+195866836+195628792+195360971+195086999+194970224+194928363+194547099
3150+194059379+193936744+193905639+193777144+193674038+193332924+192611473
3136+191768680+190874798+190016152+189395314+188935442+188576982+188318753
3123+188006542+187564742+186860710+185546705+183769279+182391390+181794086
3109+181420829+180711646+179584670+178213370+176948070+175948279+174815679
3096+173574476+172788177+172265131+171597554+170970291+170448519+169892420
3082+169384626+168966378+168581764+168278871+167985315+167666333+167441265
3069+167276005+167214268+167338542+167405046+167187004+166878287+166734121
3055+166666815+166706620+166955457+166970527+166461604+165893111+165624817
3042+165537309+165594477+165657578+165156172+164013507+163023744+162701468
3028+162712861+162562543+162145151+161704371+161497103+161456971+161334281
3015+161001139+160534532+159943998+159098056+158411023+158395826+158599562
3001+158400285+157865462+157235142+156775634+156949358+157616880+158094898
2988+158334362+158570278+158814820+159157991+159458481+159425702+159225132
2974+159185419+159094616+158650433+158168974+157995032+157883226+157470074
2961+156807776+156139161+155670844+155579131+155676304+155589651+155461956
2947+155608671+155884682+156036874+155972536+155781230+155684057+155553705
2934+155204783+154940202+154905184+154764349+154407892+153983037+153483578
2920+152937799+152440197+152025780+151699354+151451399+151395414+151641613
2907+152094160+152521972+152737302+152788846+152818094+152869456+153013459
2893+153320502+153656156+153737348+153543021+153424572+153548954+153683384
2880+153644889+153514483+153381018+153201743+153075086+153057486+152774704
2866+152103952+151604284+151544986+151442053+150982072+150414261+149916540
2853+149364673+148625332+147927806+147698024+147860273+147949565+147878610
2839+148004639+148422023+148780664+148924931+149037291+149235131+149457723
2826+149618106+149687059+149615740+149420258+149309180+149301099+149138414
2812+148890422+148802723+148872713+149173477+149712995+150226568+150627826
2799+150888120+150844166+150652970+150703522+150963662+151047411+150918024
2785+150845786+150833055+150726655+150572351+150507347+150517885+150503753
2772+150468762+150456022+150442999+150430933+150455794+150452810+150408045
2758+150410138+150434946+150472521+150581724+150806400+151076132+151167080
2745+151102659+151164950+151405316+151557927+151496482+151406180+151384867
2731+151444683+151538998+151511124+151453474+151503425+151529288+151505691
2718+151572560+151733080+151971242+152285929+152514018+152580414+152612765
2704+152635616+152592417+152559875+152606186+152674465+152728056+152777871
2691+152787208+152770791+152920436+153187419+153272343+153234086+153203982
2677+153110395+152983428+152868364+152762528+152719029+152742380+152673500
2664+152433954+152154331+151946963+151819741+151666984+151472976+151398772
2650+151476552+151562095+151517476+151324915+151037829+150740023+150563205
2637+150494043+150387724+150210224+149974363+149727783+149574862+149429167
2623+149164595+148900260+148798291+148839989+148782693+148477635+148198393
2610+148163812+148114461+147854786+147580768+147431778+147361952+147315823
2596+147254014+147154657+146986229+146823580+146766586+146725043+146633522
2583+146528987+146395441+146249208+146112013+145952695+145824372+145749213
2569+145644369+145523472+145387669+145142644+144812678+144483312+144194324
2556+143974171+143839432+143844929+143899458+143814097+143679659+143589885
2542+143437529+143202351+142940445+142707524+142599167+142658656+142706086
2529+142550481+142298294+142139741+142144818+142238342+142285590+142278783
2515+142246559+142160407+142052296+142033149+142074146+142036143+141998668
2502+142113559+142317086+142465557+142499856+142474694+142480782+142561874
2488+142787006+143189146+143631664+143924857+143994037+143961176+143971914
2475+143986693+143981660+143999724+143975891+143921644+143999997+144214527
2461+144422541+144540971+144540425+144544375+144698652+144954487+145218367
2448+145378450+145439340+145620735+145944313+146194880+146338946+146457905
2434+146505945+146491849+146571294+146784286+146967519+147037173+147116272
2421+147293618+147521234+147742725+147969176+148178737+148280532+148344161
2407+148571267+148970887+149361279+149618270+149788682+150099028+150923439
2394+153009655+158028321+168561817+187159617+215064671+251327532+293265223
2380+338588338+386920545+438870979+494833208+554353457+614902508+671052639
2367+717807516+753261327+775550848+782517934+772034726+739712132+690247926
2353+633473226+580934478+552370911+559886378+597323318+629335083+629950770
2340+616989962+606859480+601316366+600062168+602102738+602156575+596206352
2326+584337029+568221342+549219454+527931981+503964773+479507425+462472503
2313+455825564+449138293+430739351+401391888+371188599+348720713+333368903
2299+319654484+305157260+289448720+272226751+254857104+239099695+225171729
2286+213086002+203807031+197837188+194294930+191794215+189545141+187405506
2272+185445710+183773520+182404604+181230124+180023739+178647325+177205207
2259+175793465+174449284+173211212+172035677+170888371+169805458+168788377
2245+167890054+167185038+166577942+165981875+165461158+165050026+164668471
2232+164319931+164093389+163916789+163720588+163604177+163614515+163662328
2218+163661363+163604323+163540821+163570106+163729379+163890490+163940432
2205+163968533+164050618+164102653+164169049+164365669+164591574+164712152
2191+164762640+164843196+164975423+165089449+165160030+165265175+165423301
2178+165565229+165664822+165732910+165818525+165981875+166180770+166333946
2164+166482244+166680374+166820518+166854681+166904641+166961063+166969089
2151+167075253+167334355+167609638+167831321+167969080+168021298+168066544
2137+168166574+168312688+168461441+168626592+168821684+168976151+169056907
2124+169125396+169250106+169432948+169649753+169904742+170182791+170474127
2110+170788814+171074544+171317193+171624509+172042666+172515315+173043403
2097+173661857+174347889+175113257+176044487+177209375+178623337+180250227
2083+182078323+184157095+186444719+188718055+190793933+192747449+194677396
2070+196466525+197987816+199404180+200949513+202525023+204054304+205672093
2056+207360628+208982240+210454189+211860252+213305409+214655451+215739492
2043+216642602+217593379+218559390+219326014+219869845+220240299+220430348
2029+220448949+220285272+219913927+219346780+218509648+217371842+216269346
2016+215472072+214713947+213727115+212632263+211589391+210616428+209722127
2002+208897425+208152223+207556593+206925599+205971219+205146844+205093426
1989+205547056+206074707+206510646+206799470+207100288+207523923+208082643
1975+208758355+209502374+210141686+210548322+211201393+212536164+214074782
1962+215392317+216669065+218003127+219382617+220833726+222284999+223715251
1948+225023504+225874087+226444346+227900187+230438031+232656584+234016763
1935+235010238+235998272+236973983+237755222+238067962+237714726+237285558
1921+237140373+236934652+237288634+238262453+238496038+237662691+236752374
1908+236468318+236393478+235985040+235294712+234400976+233194464+231942668
1894+230999827+229813007+228499094+228328427+228840827+228989288+229059142
1881+229319282+229648547+229974883+230245088+229812170+228151063+227231245
1867+229503453+233177482+235763685+237238892+238425839+239687171+240875192
1854+241855927+242518881+242578306+241612768+239859658+239849192+242378336
1840+244125805+244078301+243545772+242523886+239765069+236408056+235257365
1827+235374449+235532284+236198477+236343299+235464887+234381865+233151383
1813+231290616+229681527+229535358+229956245+229485507+227834702+226074238
1800+225839925+226563086+225845986+223584389+223523345+226892752+229560839
1786+230060644+229771273+229476989+229818613+230745929+230130024+227067532
1773+224772901+226862102+231040468+234317363+235300555+234560413+234854278
1759+236078099+237067589+238030578+237252069+234592300+233767907+236096573
1746+238791869+240100960+240389748+241302267+242070966+240143913+239026401
1732+243264137+248280838+252001279+254248460+255070068+254734123+251687520
1719+246809872+246788723+252983852+259061351+262293472+262267718+260478899
1705+259747037+258762226+256047454+256172492+260239598+266738294+273569586
1692+276690938+277045466+275370472+271154959+271354218+279530347+286467092
1678+289105858+289722456+291479115+293075737+294639763+300648082+307625396
1665+310963736+314111406+320051910+324967397+324862344+320427460+323273402
1651+335242937+340986876+345610317+357081631+368641509+375587956+378265034
1638+378073346+382704832+395270398+405413656+410829039+414856632+418682599
1624+422426701+427415791+430730797+430042818+430186019+433672038+435609192
1611+435092115+434481633+435013452+436200781+437735995+439957478+442974978
1597+446274587+449806725+454124471+459108028+464415590+470102379+476412317
1584+483573020+490937569+496263223+499499640+506166490+515942790+522409106
1570+528258499+538010300+548556045+557044040+561219275+560850423+569046590
1557+588845953+605809710+619648694+631748472+643139594+652371043+658178683
1543+661671509+667560833+684723340+703215505+714233371+723917212+736539563
1530+747703980+755986964+762599358+767485906+774513782+786314053+798696667
1516+811575281+824603431+833964614+837600568+837574214+846414643+866476711
1503+881190812+888143556+890865553+894990082+902283612+907633691+910136699
1489+914802220+923627652+931949803+938067216+943082042+946652693+947630861
1476+945918265+945360092+951218620+959406670+962672062+961577992+961553531
1462+962121969+957730038+947867541+945376399+953913025+959897138+959528395
1449+956437656+954703292+953226502+949621561+944409442+937118168+928295212
1435+923476734+921159880+917074810+916029372+919785013+921872467+920631992
1422+917986729+915302371+918956089+930137104+940050782+943791571+943392179
1408+941212048+940732573+946682105+955730820+961166515+963194344+965324096
1395+969451464+975790341+981548184+983093190+980875420+980087993+980824532
1381+980390486+980683223+983171743+986964732+991193513+993884933+993420747
1368+990604471+987481990+985934364+987824815+991693882+994328807+995157295
1354+994776395+993076466+989897418+987111719+985911941+984447309+981796512
1341+978861642+975707128+971948866+968435001+966767324+967214911+967643643
1327+967341951+968613803+971170758+972070009+971299326+971119432+972571397
1314+975432227+978261753+980285505+982944383+986076401+987976681+988746926
1300+989449030+991624720+995729228+999121805+1000179037+1001237725+1003813826
1287+1007692648+1014310357+1023504240+1031888564+1036546586+1038200067
1275+1040896365+1044917005+1047268148+1049158818+1051752538+1052728741
1263+1052248466+1053581253+1056814102+1058257549+1057580053+1058081951
1252+1060174209+1061670875+1062614389+1063822103+1064390178+1065365289
1240+1069063562+1073130795+1073741823+1072074000+1070267489+1068918249
1229+1068910459+1068512231+1065742768+1063504031+1064202130+1066139757
1217+1067496861+1066336396+1062021489+1058803929+1059818207+1063008613
1205+1065381232+1065329397+1063218283+1061040918+1059582547+1057184083
1194+1052850320+1049638293+1049989563+1051047523+1050502381+1049151320
1182+1047617453+1047005042+1046507148+1043993584+1040818612+1038101129
1171+1035236731+1033900158+1035504133+1038151872+1038829805+1035415461
1159+1029391234+1025300631+1023840076+1021696856+1018224342+1015438207
1148+1014193728+1014380320+1015357032+1015860823+1015546536+1015244262
1136+1016070129+1016880197+1013979107+1008409093+1005721750+1006414316
1124+1006514273+1003935769+1000437411+999751543+1000952049+999360523+995682344
1111+993584333+992512541+989935348+987243272+988732584+995213571+1001663180
1097+1002973180+1002435246+1004680244+1006667158+1007342397+1009165143
1086+1010193982+1009980890+1012357514+1017551724+1021580809+1023470023
1074+1024887334+1026193257+1028403747+1030817063+1031012609+1030153618
1063+1029210831+1027306110+1025955995+1028277945+1034367620+1040105443
1051+1043182860+1043588804+1041804352+1039344297+1035420921+1032698924
1040+1034770143+1036352059+1035099864+1034956152+1035733169+1037493377
1028+1038938353+1036194297+1033712838+1034417854+1032726589+1030635859
1016+1032797935+1035309315+1035021747+1032332074+1029179235+1027870908
1005+1027472754+1027095858+1028421511+1031834690+1035194943+1036825346
993+1035964971+1034844037+1037297685+1040089791+1039423142+1039323403
982+1041757250+1043267893+1043650540+1046278623+1049677970+1049751136
970+1047159600+1045416573+1047520844+1052223131+1055675041+1057720925
959+1058410943+1056826988+1054823111+1053497822+1053397137+1056700022
947+1062224098+1065415668+1063707294+1059122219+1056690120+1057617546
935+1059336330+1060802055+1061489670+1060161615+1055700303+1051248675
924+1051794181+1054178667+1053654347+1052946128+1054117659+1054118678
912+1051813473+1052331970+1056985842+1059033474+1057545982+1057150885
901+1057239776+1055948777+1054924379+1056164125+1059015928+1059671511
889+1055030815+1048007089+1043202371+1040627070+1039755047+1040456058
878+1039184060+1035616249+1033907366+1033753899+1033078223+1031228613
866+1027630443+1025372996+1025722956+1024752067+1022666142+1021454497
854+1019467510+1017311622+1016620439+1016694843+1017790150+1019792135
843+1020370402+1017339360+1012493654+1011909781+1016565765+1019058144
831+1015365550+1010123436+1008771866+1012250713+1016741072+1016992749
820+1012575265+1008430497+1007174006+1007216959+1008713988+1011964965
808+1012873025+1008709402+1003757696+1002192378+1000711293+996500129+994317232
795+996209285+996697350+993529368+990694018+988996492+985472435+980887942
781+978398766+977059135+974938120+972898424+970916679+969044573+966467889
768+961425108+958095432+959361242+960478462+958758659+955792338+952066910
754+948730755+948158968+948051948+944201301+938329377+933394561+930187265
741+929386369+929401075+928231437+927114362+927027801+924796417+917892086
727+909890046+904618229+902305089+902223623+901463933+897385051+892188075
714+889445039+890703204+894966712+899893811+903331380+904952245+907083526
700+911073808+915473892+917983962+917710227+917017005+917820886+918411019
687+919217011+923358285+926901707+924315050+920917668+920412931+920490538
673+923960867+929863805+929677869+921374137+913997976+911059611+914336870
660+920200713+920029118+915301352+913683325+918287183+924863249+925870102
646+920420211+914197017+912130675+915067730+917281786+911368729+901188960
633+894888668+892700820+894995542+902598991+908802310+906107760+897406674
619+889630465+885680370+886547079+884567591+871624109+858637092+859891254
606+870265477+875623127+881593262+893801442
##END=
