##TITLE=Sample description
##JCAMP-DX=4.24
##DATA TYPE=INFRARED SPECTRUM
##DATE=12/9/2023
##SAMPLING PROCEDURE=Instrument type and / or accessory
##ORIGIN=Default
##XUNITS=1/CM
##YUNITS=ABSORBANCE
##RESOLUTION=4
##FIRSTX=4397.6552
##LASTX=599.8556
##DELTAX=-1.9287962
##MAXY=1.8309687
##MINY=0.28816724
##XFACTOR=1
##YFACTOR=1.7052225e-009
##NPOINTS=1970
##FIRSTY=0.32116926
##XYDATA=(X++(Y..Y))
4398+188344485+189378831+190260288+190053150+189703066+190443256+191214240
4384+190746291+189391957+188711783+189124435+189355727+189318378+189675959
4371+190027301+190105913+190407515+191089209+191364491+190366654+188882010
4357+188410775+188615397+188653357+188863327+189355342+189486822+188911284
4344+188157235+187952858+188340413+188830855+189250043+189610298+189231814
4330+187946147+187347714+188459204+189772730+189992399+189799225+189556241
4317+189235904+189320248+189375650+188394994+187215378+187814912+189778637
4303+190664586+189517250+187860859+187469302+188141104+189008632+189624384
4290+189038255+187634059+187541920+188982171+189841869+189147959+188150577
4276+188221132+189153866+189881455+189889634+189100596+188199757+188365125
4263+189249466+189891190+190523878+191049151+190519770+188825507+187096953
4249+186816725+188078728+189131146+188870301+187992269+187655573+188271273
4236+189491191+190944901+191593825+190513374+189020656+188601416+188899190
4222+189265353+189590409+189935704+190485323+191198371+191596726+191368633
4209+190643753+189811931+189192613+188640634+188222390+188696002+189933065
4195+190544203+190318836+190238354+190496107+190602472+190029014+189192788
4182+189216784+189957707+190271963+189921687+189931492+190299367+189785715
4168+189007758+189194658+189499039+189146998+188749307+188757276+189039898
4155+189093535+188778266+188644007+188519815+188181179+188436362+189447639
4141+190321091+190354420+189418190+188134952+187633534+188021701+188343052
4128+188388615+188493162+188613195+188632000+188510517+188339993+188224610
4114+188223928+188358274+188279313+187791964+187256676+186749439+186250573
4101+186345858+187211253+187836566+187296017+186377946+186491319+187115776
4087+187020718+186555023+186306080+186244491+186298460+186246273+186205045
4074+186509513+186819696+186591166+186089049+185931756+185945947+185671749
4060+185441436+185997487+186971083+186939537+186098749+185995302+186542597
4047+186963306+187531486+188159385+187923392+186641483+185545949+185918718
4033+187032358+187261535+186945322+186913950+186792607+186536410+186366638
4020+186254365+186305049+186490026+186563779+186184597+185642405+185893830
4006+186912797+187415648+187008589+186720863+186725687+186500460+186387506
3993+186469106+186258140+185888063+185841941+186224095+186639053+186530922
3979+186071100+185782204+185504021+185266036+185529433+185886420+185687234
3966+185309676+185375512+185882488+186178969+185651318+184736917+184093463
3952+183540453+183149910+183735253+184645302+184467945+184296757+185082596
3939+185341851+184417261+182947770+182134561+183034072+184138135+183554662
3925+182678868+183193760+183581245+183122156+183596048+185360325+186253037
3912+185437416+184100943+182039066+178708738+176436209+176951539+179350112
3898+182162332+182717352+180431402+179151747+181010662+181456730+179711258
3885+179430034+179487831+179718144+181485375+181168673+178791160+177043800
3871+176197787+177744090+179526648+179204999+179990699+182281718+182266461
3858+177992125+170681075+168990988+177279706+183553351+184685762+182349040
3844+178593127+175280939+173290194+174351735+177759767+179796144+180760652
3831+182264154+183071980+182328609+179649319+175052181+174152164+177310483
3817+178962575+181606841+184520446+183944226+180622514+178303741+177954636
3804+175923869+175674086+179973502+182602178+183956408+185840613+186389585
3790+185833010+185187232+184604633+184419481+183605975+182637796+184610558
3777+187848974+188583327+186715585+184772221+185121448+186660288+188369285
3763+188886240+186714222+185292147+187007191+187536537+184062581+181296570
3750+184772902+187147794+186464667+190919996+197267149+198047903+194940984
3736+193408855+197173385+204007555+209395933+211744102+213089890+215780121
3723+219941241+225406658+231447263+235703913+236391496+236374281+242891749
3709+255488832+267655663+277289331+286355657+297763598+309699225+318861134
3696+324479807+326088189+323937109+321151226+321033221+321138293+317941979
3682+311054224+302166810+292405193+284536397+283569949+283578286+281427695
3669+282926513+286391642+287996441+288145293+286981843+284276041+282455820
3655+283238968+281720628+276237402+274547717+280746089+287307459+290300131
3642+290900766+291198365+291342079+290515029+288845862+286030950+283176015
3628+285543304+290017002+290587157+287774622+285190949+286635902+289460304
3615+289917662+289437654+289451268+290218897+292421185+293966701+293025228
3601+291923140+292506351+293118311+293497092+294957093+295641356+293509850
3588+291998047+294110922+296455054+297294408+297635107+298004188+298272601
3574+298463765+298169766+296375114+294024760+294335537+296855838+298879440
3561+299715509+299399034+298795795+298563594+298326395+298145298+297874543
3547+297432862+297881184+299279071+300139503+299761054+299113738+299244082
3534+299646020+299167113+297861120+296854370+296328415+295936054+295993379
3520+296119773+295761912+295231098+294531491+293710347+293564763+294169995
3507+294407159+293994210+293975789+294451306+294318480+293399989+292543524
3493+292221614+292014126+291501575+290814394+290015761+289568295+290044371
3480+290431541+289898227+289241106+289109766+289419565+289609611+289203391
3466+288368301+287530257+287066485+286909104+286830020+286848091+286760356
3453+286561624+286274353+285522926+284931152+285112756+285149004+284835133
3439+284772058+284945081+285146400+284983810+284629060+284694914+284674326
3426+283972202+283151303+283035360+283891108+285126231+285586403+284890186
3412+284019495+283701551+283403218+282764605+282355152+282380004+282303192
3399+282201388+282727239+283539329+283871429+283862061+283717089+283472374
3385+283484958+283778940+284020875+284109030+284231736+284458484+284594194
3372+284759300+284983181+284901266+284759999+284963764+285322254+285690863
3358+286062164+286527736+287262228+287919611+287917095+287358212+287092805
3345+287609009+288252952+288629443+289358185+290435526+291121868+291362633
3331+291789406+292662386+293224869+292799057+291940145+291546020+291886648
3318+292537337+292771443+292310450+291603012+291264761+291321491+291363069
3304+291205916+290980811+290947604+291368924+292210691+292882859+293188936
3291+293721428+294466161+295076077+295782151+296427440+296318068+295653799
3277+295473855+296124178+297191923+297952910+297598510+296551178+296165528
3264+296483821+296423141+295988695+295939654+296154902+296386264+296870624
3250+297077063+296363229+295448199+295033572+295125886+295579452+295806234
3237+295864363+296184229+296189542+295741569+295414678+295137037+294790641
3223+294643169+294656836+294788579+295156052+295521882+295622970+295336485
3210+294625517+293992113+294010044+294367730+294169610+293227770+292345561
3196+291895893+291472861+291043081+290769600+290586405+290445418+289985491
3183+288883875+287640590+287064510+287068495+286680870+285655228+284547128
3169+283533614+282960873+283091531+283107890+282585203+282162711+282127827
3156+282095162+281713690+281154388+280771098+280617335+280527485+280271201
3142+279582517+278393463+277290397+276784732+276547114+276181615+275618294
3129+275014024+274531271+273908545+272972036+271911823+270819261+269795261
3115+268819480+267804148+267009762+266171719+264592804+262471749+260591407
3102+259422470+258707587+257779186+256525415+255332866+254344991+253626928
3088+253348553+252987598+251974731+250957075+250448667+250046309+249598477
3075+249031118+248088212+247266229+247132040+247171783+246817190+246285188
3061+245881135+245474985+244862431+244312060+244127519+244078339+243913040
3047+243806727+243711005+243291153+242793266+242351690+241649705+241011984
3034+240720256+240447788+240091273+239679024+239206269+238675699+238108131
3020+237972876+238472266+238748544+238152575+237048460+235915211+234914525
3007+234128738+233626254+233236830+232654214+231780516+230694910+229789090
2993+229618845+230142931+230742010+231034332+231151219+231364946+231748918
2980+231926101+231586958+231319820+231664766+232040890+231788993+231252167
2966+231094855+231099382+230600778+229802582+229203031+228829825+228781903
2953+228903334+228882448+228928099+229026232+228869882+228489144+228046554
2939+227754058+227689323+227581611+227202918+226756675+226605568+226595851
2926+226345195+225851380+225115979+224151611+223199109+222337978+221669323
2912+221405349+221485289+221764625+221995637+221845369+221443606+221073511
2899+220717398+220517181+220685782+220959036+220990740+220827958+220701843
2885+220734246+220828378+220840297+220738772+220633788+220671870+220808261
2872+220989341+221161491+221065646+220655127+220267293+220144272+220175783
2858+220149428+219999299+219696107+219226270+218652113+218043229+217643580
2845+217676804+217852449+217888644+217884310+217803618+217629704+217677661
2831+218065687+218361661+218243219+218017782+217907222+217720322+217503327
2818+217436914+217394008+217312512+217343796+217443293+217417514+217301466
2804+217407780+217842260+218228906+218327931+218355422+218468813+218615149
2791+218726251+218692677+218546517+218524006+218659751+218677368+218407556
2777+218137046+218122802+218185353+218189827+218071682+217757706+217455247
2764+217341908+217332086+217321250+217294895+217315710+217395248+217460508
2750+217557226+217708053+217736926+217643668+217655045+217792188+217775812
2737+217422425+217016974+216894635+216999899+217206601+217391875+217429294
2723+217444516+217545202+217621786+217617242+217563640+217498870+217464458
2710+217476202+217543524+217672662+217778486+217775480+217766182+217832980
2696+217917936+218037933+218146379+218094786+217949097+217864683+217877022
2683+217950600+217937003+217765693+217629948+217677678+217779744+217742256
2669+217576731+217412830+217281822+217155603+216978857+216673357+216335508
2656+216180119+216141722+215990056+215813013+215773287+215723320+215544320
2642+215316349+215131686+215064347+215018802+214754286+214275291+213827913
2629+213505583+213239442+212996528+212761601+212597421+212473474+212181676
2615+211780944+211472229+211305235+211281851+211241391+210996555+210608441
2602+210295164+210211117+210248868+210228175+210190547+210153600+210023203
2588+209905862+209913500+209927499+209826866+209577398+209267092+209125947
2575+209256239+209393172+209256047+208970506+208776196+208724499+208655499
2561+208421621+208143683+207873592+207599254+207466358+207462129+207408509
2548+207161453+206731918+206359482+206188870+206122003+206089531+206060222
2534+205976087+205855425+205711152+205549646+205369300+205138882+205030454
2521+205111058+205098929+204935606+204739129+204470943+204223397+204105374
2507+204035693+203990602+203998222+204042789+204085101+204102665+204162018
2494+204282382+204351609+204311324+204311429+204543822+204961612+205351630
2480+205579969+205649632+205627332+205594090+205622316+205713459+205773370
2467+205806909+205941430+206131231+206316261+206519082+206550244+206316226
2453+206057058+206000817+206163738+206363169+206486208+206661940+206920077
2440+207134154+207342935+207533785+207514717+207360342+207354050+207489725
2426+207559406+207569718+207615123+207712907+207919102+208147038+208233183
2413+208224357+208224759+208274271+208405017+208564723+208638214+208639193
2399+208675266+208824817+209133218+209550256+209990172+210465479+211030880
2386+211628421+212006503+211792182+210759181+209004779+206685919+203840631
2372+200612246+197372134+194568355+192253061+190197336+188837566+188855760
2359+190131936+192362555+195615128+200077360+204557210+206500749+204950566
2345+201378005+198313188+196935697+196960654+197720925+198650863+199507310
2332+200301329+201303623+202758258+204528198+206293383+208064878+209902839
2318+211583733+213065335+214500396+215898284+217105688+217969179+218530333
2305+218884087+219042586+219154579+219331185+219362067+219125882+218855249
2291+218747678+218716097+218595872+218404498+218212599+218010232+217842277
2278+217753756+217755853+217834954+217847223+217696379+217506298+217451000
2264+217572886+217784638+217936059+217950758+217940883+217990134+218023620
2251+218037968+218109782+218207234+218273192+218357729+218508714+218619012
2237+218530700+218366573+218403991+218579216+218660397+218685634+218766483
2224+218848800+218930611+219044596+219063803+218964446+218882269+218839310
2210+218839153+218957770+219172948+219346146+219396515+219383477+219404537
2197+219481890+219573121+219661258+219771136+219900903+220003214+220024484
2183+220009716+220093099+220239679+220299171+220305620+220362543+220470814
2170+220570154+220619561+220677341+220797356+220925183+220995633+221007832
2156+220984675+220948235+220944146+221005613+221116872+221238862+221328974
2143+221400857+221480762+221513409+221557889+221738549+221908654+221915365
2129+221860382+221866062+221972900+222127432+222270762+222395863+222442684
2116+222434225+222481972+222592777+222743447+222878422+222906124+222913726
2102+223071212+223329786+223507982+223592571+223731164+224031141+224464643
2089+224860272+225108621+225312019+225621766+226106633+226691608+227237802
2075+227756505+228381905+229178388+230008619+230733202+231583585+232780730
2062+234103291+235425363+236893386+238609741+240615149+242852915+245284048
2048+247942086+250832569+253950429+257326110+261053536+265037473+268976476
2035+272662726+276013241+278978439+281485667+283523285+285088638+286122076
2021+286653851+286689469+286290258+285755371+285101711+284010092+282532684
2008+281005921+279498801+277920253+276299743+274719133+273204533+271654753
1994+269882873+268124905+266933632+266219658+265493800+264592804+263654459
1981+262848328+262166320+261527532+260889741+260304416+259748138+259024586
1967+258386323+258295285+258487882+258580860+258607076+258563034+258536469
1954+258734432+259054734+259238226+259228142+259018749+258725571+259113772
1940+260445823+261754332+262571369+263134882+263654214+264229787+264856218
1927+265358055+265572115+265931548+266554484+267021612+267880366+269308768
1913+270326372+270664553+270952943+271675446+272567721+273204988+273659724
1900+274030308+274114723+274159534+274596968+274818298+274691624+275324067
1886+276524970+277416162+278080448+278691692+279255608+279819453+280304181
1873+280083078+278685820+277779703+279443941+282141267+283803583+284502666
1859+284910372+285330171+285795097+286237791+286473068+286183508+285052198
1846+283391246+283232641+285146907+286481317+286503863+286376210+286033187
1832+284297258+282046506+281564908+282085498+282661368+283682327+284251818
1819+283958884+283474454+282829183+281598761+280390954+280215886+280564816
1805+280352155+279215812+277778619+277305637+277547310+276737212+274810555
1792+274687324+277256002+279276842+279648126+279355175+278926269+278932579
1778+279447524+278866690+276363604+274352236+275931134+279300908+281848963
1765+282567481+281950085+282114195+283089941+283853357+284495640+283887752
1751+281960886+281506639+283509269+285752225+286823536+286991036+287621662
1738+288293761+286987174+286288545+289732300+293719855+296599030+298331988
1724+299055050+298907648+296600358+292889798+293084213+298087099+302833142
1711+305354491+305428664+304154689+303782392+303259093+301190960+301135942
1697+304204045+309394600+315172455+318149537+318733551+317454473+314111491
1684+314248721+320740794+326274844+328287575+328556583+329787878+331024942
1670+332214187+336856591+342172667+344406658+346303900+350478198+353854806
1657+353023421+348304503+348537927+356081597+359184164+361038413+367902399
1643+374951992+378304307+378231742+375818191+376487529+383206420+388706564
1630+390740023+391747997+392958844+394664224+398277716+401503148+402314015
1616+405061797+411389027+416548543+419864575+423222867+427372103+431670942
1603+436126445+441138105+446226174+450854002+455434712+460579547+466092869
1589+471560261+476960820+482735285+489327258+496130074+501012123+503796957
1576+509365996+517844446+523611884+528497534+536380330+545155785+552505249
1562+556366357+556381562+563515115+580506619+595156263+607146383+617845716
1549+628256467+637011719+642915129+646844048+652973543+669211434+686773390
1535+698180755+708837653+721518957+731741725+739056935+746113134+753247490
1522+761992256+773465194+785287116+798044970+811437801+821939853+827909886
1508+832224559+843419822+860394198+872662833+879627523+884053770+890701844
1495+899531827+905576383+908815586+913384097+922067063+931509723+938526075
1481+943809468+947423380+947530270+945380658+946354412+953438364+961177778
1468+962938140+959582469+958720989+961397709+960863120+954731599+951696878
1454+956672744+962373280+964709128+962259400+958770274+956963353+954139545
1441+948637898+940291121+930198103+924538743+924870108+924483096+920373394
1427+916513334+916672026+920218966+921286257+918232101+920172687+929500418
1414+938553968+943114509+944400403+945415123+947413243+950858257+955358327
1400+958424228+959928306+962167820+965039725+968514030+971876481+973441030
1387+974168427+975468512+976219118+977022715+979740681+982691443+984456419
1373+986556745+989131120+991051363+991408804+989115041+984922707+982926754
1360+985021907+988208260+989937024+989716882+988249296+986292282+985048263
1346+984845179+983444146+979746204+975463828+971199349+965612484+960895488
1333+960548113+963101376+965013090+965027071+964699830+965787325+967373265
1319+968758989+970483907+972401144+974819553+978984902+984324711+988109899
1306+990518801+993488298+996112797+997841071+999356684+1000820145+1002711516
1292+1003889192+1003855846+1006110040+1011943822+1018650829+1024687555
1281+1030083430+1034946954+1038586173+1041334061+1045222573+1049170297
1269+1050804824+1051784450+1053746008+1055211427+1054838885+1053751950
1258+1054088279+1055613470+1057189903+1059440812+1062337185+1064969863
1246+1067809610+1070510799+1070667114+1068100918+1065243554+1064339080
1234+1066024011+1067550740+1067850437+1069814861+1071786836+1069403031
1223+1065879021+1066149567+1067218325+1066882556+1068592304+1070798472
1211+1069231966+1066094269+1063481584+1059680108+1056398121+1056391200
1200+1058232027+1059930660+1060643515+1059886897+1057780139+1055592218
1188+1055439817+1056881887+1056487814+1053344385+1050675214+1050236120
1177+1050570351+1049372612+1046329152+1045105756+1046569147+1045841192
1165+1042081660+1039833198+1040008319+1039782934+1038605747+1037665340
1153+1036530378+1034760439+1033269783+1032219620+1031712295+1032272540
1142+1032668641+1032445354+1033424490+1035114175+1034713530+1032415014
1130+1030605995+1029931799+1029861122+1029144561+1027155249+1025162931
1119+1024320536+1025411456+1026306772+1023631589+1020819526+1020902787
1107+1019695609+1016127417+1014871584+1018806585+1025524637+1029958994
1096+1030760563+1029788277+1027850068+1026144864+1027421810+1031435807
1084+1034377481+1036367492+1039687509+1042356051+1042463220+1041610268
1072+1042331792+1044249868+1044739995+1044670996+1045672363+1047040120
1061+1047378406+1045175664+1043432290+1047532414+1056505291+1061986594
1049+1060264402+1058235522+1058897275+1060130178+1060023708+1056466771
1038+1051516142+1047183502+1044888271+1045830705+1046321672+1043830837
1026+1039727427+1036931373+1037402904+1039869690+1043655717+1046265815
1015+1042401771+1035176953+1032403409+1033973131+1035050838+1033643793
1003+1032102873+1033547669+1038175531+1043321066+1045350015+1043635583
991+1041399005+1043491432+1051195052+1057042396+1055354040+1052353713
980+1054118340+1057742808+1059135103+1059949465+1062094393+1062371300
968+1059336439+1057565800+1059114060+1062120259+1065920197+1069573258
957+1071730630+1072961925+1073741823+1072221247+1068726039+1067025798
945+1067531165+1067417494+1065993741+1065666150+1067576676+1068818528
934+1067401346+1065869304+1066778672+1068821464+1070295202+1070073662
922+1066899334+1064661917+1067014752+1070788755+1071974400+1069226163
910+1064767898+1062564387+1063365676+1065250056+1066005346+1065257746
899+1065018659+1066532734+1068322178+1070073592+1071648557+1067342553
887+1057687650+1052849434+1054240260+1056213843+1057776224+1058708802
876+1057483378+1052871175+1045584488+1041844811+1044540687+1047731653
864+1047202936+1045136166+1044399751+1043624817+1039663391+1035179889
853+1035218408+1038191750+1039301615+1040689436+1045297584+1046213104
841+1037707984+1027126657+1023673604+1027097016+1030299937+1028088386
829+1023134261+1021702888+1025346371+1030341532+1032686747+1032301273
818+1030261557+1026177721+1021765176+1018715284+1017838983+1020719207
806+1023513444+1020808270+1016658371+1016530858+1018413630+1019811797
795+1020970668+1019578233+1014619564+1009323727+1005283304+1003948824
783+1005992874+1007243324+1004996610+999818638+992685750+987755953+988505021
770+992066432+991708361+985553071+979628129+977860217+976802154+972945939
756+967097057+961000700+956587875+955123295+956144936+959476418+962373350
743+960709042+956504195+953555950+951318114+946886204+939384759+932161409
729+928412993+927396456+924258200+916701667+911151014+912624612+917191375
716+918933072+916904471+915165082+916383235+918438470+919751139+920566480
702+919815525+919039193+920987329+923140646+923691384+923354705+920703361
689+916804992+914176158+912904456+914011594+918767878+924134463+925469153
675+924832428+926126221+925657416+919904308+917535534+925430773+934365340
662+936975438+932955848+928998126+929267623+932170357+934025655+932885310
648+928695353+923577223+925402740+934353595+933387392+919762395+914263194
635+925499423+936532708+930606508+921625102+923722143+925812822+920815774
621+917505613+920107113+924383966+924224365+920308728+917431021+917662278
608+923192518+927746557+922350402+914392315+914100517
##END=
