##TITLE=Sample description
##JCAMP-DX=4.24
##DATA TYPE=INFRARED SPECTRUM
##DATE=12/9/2023
##SAMPLING PROCEDURE=Instrument type and / or accessory
##ORIGIN=Default
##XUNITS=1/CM
##YUNITS=ABSORBANCE
##RESOLUTION=4
##FIRSTX=4397.6552
##LASTX=599.8556
##DELTAX=-1.9287962
##MAXY=1.7428044
##MINY=0.1592858
##XFACTOR=1
##YFACTOR=1.6231131e-009
##NPOINTS=1970
##FIRSTY=0.16255955
##XYDATA=(X++(Y..Y))
4398+100152944+99709153+99563466+99659550+100132701+100791877+100397442
4384+99018616+98135983+98358649+99411096+100169432+99952623+100148675+101476108
4369+102727892+103694922+105112390+105956491+104865339+102856669+101230738
4355+100243437+100319884+100939244+101073933+101300731+102218911+102778680
4342+102525166+102591010+102926414+102602173+102161945+102288399+102578561
4328+102537404+102391524+102377377+102100857+101919614+102650078+103970487
4315+104912234+104675374+103437966+102599171+102948135+103632595+103731516
4301+103305903+102682265+102021316+101712931+102476252+104014729+104813019
4288+104562710+104485712+105355951+106590265+106745013+105584309+104722168
4274+104958220+105242414+105003489+104962002+105315685+105503033+105545668
4261+105920145+106709861+107324181+107015502+105825833+104646722+104736655
4247+105964579+106210197+105280844+105091999+105591902+105915362+106109862
4234+106227062+106556581+107233633+107801903+107910087+107882784+108172175
4220+108474988+108368438+108046309+108012469+108353970+108944255+109613475
4207+109457488+108475034+107839488+107595652+107450919+107526999+107482188
4193+107340825+107741109+108493432+108681818+108112924+107386205+107095474
4180+107257016+107641298+108319717+108806720+108369494+107738676+108191243
4166+109148019+108972485+108087337+108217169+109134450+109525204+109235519
4153+108626018+107882353+107640793+108396301+109228845+109344502+109369409
4139+109468771+109216616+108850594+108599340+108316485+108069233+108032593
4126+108259859+108852201+109681513+110289379+110337091+109928095+109689224
4112+109958831+109970839+109232085+108806381+109261766+109775889+110043761
4099+110118895+109971198+109907273+110211931+110934932+111507811+111410909
4085+111049579+110928432+111140219+111571836+111931339+112091174+112282406
4072+112454175+112567271+112766352+112508864+111753952+111393585+111573773
4058+111875613+112259381+112729841+112973513+112775441+112231334+111802242
4045+111848457+111988177+112157742+112460243+112314942+111957247+112221144
4031+112671085+112631333+112573055+112963001+113329702+112997575+112278642
4018+112109140+112355043+112390067+112384338+112609199+113057772+113481935
4004+113457514+113152351+112941794+112577204+112068479+112071151+112809235
3991+113673286+114034166+113897458+113562035+113364827+113398767+113293383
3977+112944373+112599844+112449126+112669552+113053880+113237271+113364606
3964+113848268+114729202+115270941+115017207+114422901+113918867+113703169
3950+113856109+114177962+113921869+113241072+113617899+114660330+114832732
3937+113876710+112599945+112776736+114475102+115230702+114381836+113784968
3923+113945206+113371795+112664374+113715902+115575590+115798137+114602611
3910+113451152+111994814+110511788+110923851+112664374+114522565+116421721
3896+116266320+113647332+112849033+114985608+114875330+113897036+115115008
3883+114803262+114501404+116181244+115245125+112714362+111434173+111682472
3869+114219385+115277367+114376851+115531844+117214824+116087482+111388362
3856+105478549+108430618+118456464+121272872+118920002+115482820+112637401
3842+110906031+110542213+113421912+117345133+117878517+117071065+117378193
3829+117545399+117116472+115327548+112765967+114503947+117242017+117501433
3815+120237327+122709288+120854925+116862986+115517697+116313169+114828739
3802+115420089+118837533+119715419+120643073+122190345+122197726+121607119
3788+121119299+121101718+121794743+121717415+121529295+123298260+124956498
3775+124299396+122251488+121783378+124002707+125980595+126934120+126284831
3761+124133273+124410399+126649108+125910271+122368476+122230538+127113537
3748+128192542+127405223+132322300+135914093+133343431+129796963+130715207
3734+136151944+141954059+144669095+144550573+145294891+148553335+152304063
3721+155890668+159363177+161745342+162072337+162703265+168701194+177477210
3707+183677405+187133132+191183707+199239266+208408635+215605128+221189121
3694+224779160+227352099+233848828+244890783+252987159+256516588+258420003
3680+259884750+260827304+265661646+275468038+281338265+286041213+294794425
3667+302471762+307599864+312272462+316915572+321410543+327649720+334089547
3653+335479050+335120382+341766663+353783305+362887124+368239197+372704607
3640+378150248+383630115+388219647+391952040+394441416+398948506+409054811
3626+416653194+418975630+420051157+423330469+429977558+435608978+438644894
3613+442079983+446404122+451686716+458219892+462835753+464805250+467638679
3599+472752056+477692617+481099760+483638418+485417399+487531803+491941321
3586+496094223+497193729+497301657+498856961+501541554+503794071+505184786
3572+505645321+505055486+505549513+509445431+513123953+514135766+514843958
3559+516337753+517793099+519104273+520525321+521559975+521288302+520242007
3545+520663911+523090235+525146397+525035311+524238141+525550968+528109749
3532+528727017+527582122+526792847+526621610+526739452+526758291+526080542
3518+525169385+524788353+524484218+523844183+523986225+525214297+526076098
3505+525946799+525735167+526029828+526005224+525558129+524814903+523517390
3491+522746513+522740380+522866485+523182739+523032801+521682518+519817496
3478+518699702+517936757+516994496+517080904+517913952+517873998+516878050
3464+515695624+515095102+515095837+514957724+514393227+513156195+511610365
3451+510455114+509172657+508136607+508516978+509347786+508743298+506495152
3437+504340868+503953740+504642579+504258683+502760261+501976862+502344086
3424+502319482+500622759+498542985+497812098+497885910+497741004+497252302
3410+496653543+496206080+495787554+495318646+495310787+495719544+495761885
3397+495066032+494161265+493987421+494338304+494139379+493148497+492172452
3383+492166062+492777491+492775067+492009735+491272753+490815228+490524680
3370+490609987+490987052+491385381+491970185+492492341+491990860+490620269
3356+489709957+489724021+490134615+490312351+490360127+490877363+491317664
3343+490944491+490091466+489081599+488563960+488875513+488605346+487545464
3329+487294907+487389687+486123571+483809435+481789738+480441805+480203329
3316+481584570+482445784+480514993+477599563+475737699+474640727+473970543
3302+473520216+473914982+475780885+477160730+476395802+474925252+475057637
3289+477140239+479580921+481271548+481879488+481472640+480782589+480093897
3275+479497855+479475675+479971868+479948696+479499654+480373978+481318736
3262+479998602+478546083+478750958+478530256+476212630+473575152+472990201
3248+473111532+471983713+470603905+469327029+467650247+466624075+466754623
3235+467295398+467662035+467359185+466244953+464517897+462369672+461139067
3221+462444109+464616754+464436961+462219331+460088292+459030833+459227445
3208+459630143+459311025+458787841+457945135+456310399+454898459+454283101
3194+453663300+452725006+451865480+451391651+451006763+450462280+450157374
3181+449935277+449420134+449285437+449869507+449960835+448549409+446476281
3167+445171570+445178731+446118752+446617920+445508242+443499011+442076274
3154+441537152+440956461+439951662+439254964+439209171+439370860+439049025
3140+438015582+436734263+435504540+434501981+433882620+433300166+432349826
3127+431261814+430503680+429772463+428307863+426158095+424088016+422562236
3113+421630111+421335156+421402248+420887877+419237020+416915502+414455284
3100+412459567+411315113+410422133+409196853+407703095+406333202+405397111
3086+404986591+405257786+405806235+405630151+404381699+402867597+402014608
3073+401563767+400816796+400040521+399550497+398723581+397277563+395752701
3059+394515632+393587253+392585612+391208778+389931058+389174760+388630864
3046+387936370+387419208+387230087+386581276+385432121+384716144+384398862
3032+383936710+383340228+382882263+382727918+382379276+381543290+380670545
3019+379989270+379864671+380364867+380726106+380834988+381441532+382700009
3005+383833190+384567932+385412217+386863414+389422893+393248195+398232015
2992+404207671+410676106+416856563+421795398+424902482+426290002+426853141
2978+427677743+428761458+428752241+426008268+420934000+415752834+411256944
2965+407390881+404748299+402885187+401115680+399898772+399207767+398529430
2951+398067131+398575260+400358390+402515098+404055934+405230464+406600578
2938+407522164+407117483+405947359+404846825+403450896+401186811+398284418
2924+394864642+390816620+386515689+382147741+377825916+373952802+370578232
2911+367889563+366228314+365134757+363785869+361951363+360148953+358938105
2897+358181035+357342075+356161045+355035760+354571001+354486319+353969304
2884+353173786+352666209+351964517+350747022+349441025+347917045+346045927
2870+344138491+342473313+341211898+340178345+339202630+338079549+336506617
2857+334524157+332093610+329150051+325960598+322547323+319040111+316119430
2843+313718444+311199470+308802707+307004777+305607563+304227589+302829842
2830+301606269+300528154+299358251+298151001+297119267+296094821+294941535
2816+293874235+292907866+291975502+291284661+290741867+290010687+289326108
2803+288862377+288151926+287012944+285786672+284718931+283858635+283072518
2789+281964657+280500938+279237558+278351556+277424150+276265209+275256664
2776+274609780+273880803+272829239+271748075+270773370+269818037+268970887
2762+268386266+267867672+267100339+266286386+265815623+265568665+265183318
2749+264561901+263860962+263152219+262383141+261730143+261423070+261313270
2735+261057572+260579336+260039094+259535648+258993074+258392204+258105897
2722+258234573+258232480+257837640+257289062+256885960+256694379+256471492
2708+256139760+255883566+255687120+255388530+254955426+254359311+253637752
2695+252966484+252399527+251827006+251238933+250774853+250294597+249606125
2681+248923915+248282668+247511442+246751747+246090761+245387288+244715360
2668+244253061+243884350+243436171+242925197+242375113+241772994+241188355
2654+240737734+240458772+240273562+240052475+239700013+239272895+238978363
2641+238840048+238701329+238582366+238528843+238512263+238541329+238601462
2627+238707718+238766180+238591198+238418676+238653773+239079404+239228130
2614+239164380+239218178+239416057+239490310+239282902+238982714+238886612
2600+238960828+238937839+238861769+238875154+238805565+238555339+238226397
2587+237832090+237368323+236866548+236344483+235855359+235392491+234956523
2573+234593999+234110860+233414218+232836794+232468377+232056149+231642618
2560+231360994+231066278+230703148+230389832+230178238+230054245+229939395
2546+229814245+229749338+229813933+230053988+230271917+230258844+230206533
2533+230309006+230477489+230628253+230781238+230904681+230902202+230822514
2519+230887733+231209881+231641590+231909590+231890586+231798009+231850632
2506+231951876+231991206+232014561+232030535+231984797+231887924+231817178
2492+231750215+231628296+231551675+231583642+231638064+231674622+231585459
2479+231253783+230869464+230639655+230547592+230479031+230287377+230045780
2465+229949108+229920759+229774310+229469605+229049372+228627505+228331798
2451+228082085+227745010+227438543+227268922+227155285+227085255+227047908
2438+226910603+226605550+226217670+225905602+225676399+225395969+225111333
2424+224905375+224701162+224504275+224393502+224340603+224266258+224164317
2411+224093351+224054168+224023909+224063771+224218225+224409806+224576067
2397+224761809+224941492+224999550+224889401+224625147+224277734+223853149
2384+223039858+221393812+218844376+215792119+212648606+209420925+206004051
2370+202625808+199379179+196125407+193427355+192127014+192233675+193433451
2357+195839633+199431104+203826742+207793571+209237001+207428881+204016633
2343+201655602+201102691+201484163+202026553+202595879+203218049+203671718
2330+204218551+205250250+206425991+207454513+208675185+210248759+211793506
2316+212929973+213753033+214672470+215772399+216774921+217562562+218264382
2303+218911376+219421194+219853362+220259842+220583458+220772212+220853478
2289+221039441+221374863+221535102+221369557+221151169+221124068+221118357
2276+220916604+220649963+220473438+220339897+220185424+220034458+219952751
2262+219946343+219890176+219669327+219435571+219420973+219514781+219497778
2249+219439243+219426610+219429823+219466215+219491223+219462415+219476938
2235+219572343+219645953+219677333+219753954+219844658+219835937+219734858
2222+219707408+219877048+220120242+220246879+220210818+220111942+220088973
2208+220165594+220335252+220613809+220869600+220963554+221018068+221146615
2195+221226138+221247345+221419297+221783345+222078814+222132924+222116950
2181+222217129+222333557+222301443+222195830+222161494+222172327+222165791
2168+222157785+222176863+222229816+222306530+222350101+222368352+222494769
2154+222718445+222899395+223047606+223230319+223443456+223703028+224004978
2141+224236256+224360286+224539124+224860354+225139701+225177746+225105953
2127+225246380+225598713+225865759+225992726+226092721+226129940+226142737
2114+226224316+226294548+226344931+226479427+226649011+226769920+226849828
2100+226910016+226986821+227126678+227360471+227669362+227996412+228279689
2087+228482855+228657507+228899600+229224593+229528508+229759290+229974226
2073+230207120+230459532+230645990+230716791+230863166+231186030+231463321
2060+231607438+231812992+232095644+232272463+232333973+232430387+232612329
2046+232805892+232945254+233051253+233219001+233462085+233733758+234026179
2033+234278094+234417823+234475404+234551383+234726512+234979015+235180217
2019+235318679+235557485+235934588+236363634+236774044+237108622+237366634
2006+237579642+237791659+238060559+238431823+238877468+239255323+239480193
1992+239738094+240243670+240916021+241587344+242181953+242735066+243299986
1979+243859158+244388273+244871614+245354532+245791382+246091992+246417003
1965+246840413+247184484+247496624+247907107+248285514+248552559+248731471
1952+248788409+248724200+248516277+248112312+247662389+247586209+247881604
1938+248072928+248018835+247823839+247675224+247678914+247727351+247653282
1925+247406985+247249464+247176203+247119173+247491924+248090426+248339973
1911+248355580+248520555+248869767+249163767+249377492+249657482+250025183
1898+250358109+250640578+250896845+250912434+250932943+251539304+252445503
1884+253138345+253592510+253956631+254350975+254770840+255122825+255057844
1871+254514444+254544318+255793486+257136168+257873775+258297680+258775329
1857+259441969+260137694+260720313+261142713+261287253+261056544+260861530
1844+261821307+263545314+264558266+265065659+265721136+266224325+266046699
1830+265947567+266891572+268182659+269537624+270985681+272052523+272844644
1817+273575916+274131195+274528440+275244491+276466062+277518049+278031135
1803+278262651+278655031+279599072+280662737+280934098+280833074+282141200
1790+284550356+286167079+287091089+287984821+288901523+290055048+291245276
1776+291553635+291027035+291377128+293635355+296353769+298416027+299425545
1763+300180686+301779544+303436772+304847317+306166570+306723282+307000867
1749+308264063+310424920+312548064+314145379+315520891+317410957+318883490
1736+319290558+321569074+326084830+329557119+332563106+335445266+338099562
1722+340232694+341055423+342126066+346439004+352311984+356922301+360338698
1709+362771375+365008028+367809251+369882599+371959729+376631445+382481621
1695+389584435+396563642+401337961+405902778+410311966+414688471+423431749
1682+434186609+441870629+447473552+453232399+460068168+465606020+470429804
1668+477068446+483132604+487427621+492190556+497818047+502513780+505133044
1655+506903872+514485841+524767385+530301344+537249079+548747934+559131383
1641+567268778+574049243+580834151+592907529+609340960+623088072+635400513
1628+648784587+662703047+677744110+694652729+709349190+721678303+735756578
1614+749503910+759750348+767471017+773739681+778966457+783064606+786287072
1601+788302619+788164322+786318800+783528337+779486079+774046240+767316562
1587+759446139+751138132+743478569+736426468+728686997+719188302+709864920
1574+704469735+700756069+697249592+695841728+695915687+695994199+695427646
1560+694569737+699441186+709890919+719035463+727874771+738198398+750755704
1547+763527102+775502798+787398439+802264263+824790458+844405300+857991348
1533+872134621+887173922+899355631+909010250+915790017+918868531+919930397
1520+919799371+917524270+914757897+913247430+910166639+903741243+895507415
1506+892375507+898130204+903410080+905129718+904067191+903491090+906458188
1493+910759045+914731310+919092685+924504762+930377999+936235079+941864847
1479+946041875+948099212+949239223+950833931+953694314+957385358+960276221
1466+962337597+964761644+966659459+965788477+961439146+958384282+959159933
1452+958918005+956078848+952405357+950510186+949669683+946792188+941625490
1439+935966638+929967222+925573017+923163733+918249538+912165808+910274529
1425+910845490+911262289+912906205+916648220+922071681+928619950+935655452
1412+942028041+946119066+947233591+946664614+947704520+952359087+958913231
1398+964196339+965696010+965658332+967562243+969128087+968387543+967947461
1385+968951379+968736259+967407201+967368789+968727666+970466546+972072050
1371+973607195+975126401+976124957+975760010+974729065+975202123+975154090
1358+972743924+971328128+972245674+972006905+968123729+963086514+960213058
1344+959554772+958946796+956452315+953203115+951633966+951241550+950008631
1331+948322191+948577926+950933008+952959425+953111750+952777355+953685574
1317+954963955+955323614+956021487+958751285+961827449+962639235+962190707
1304+963107079+966087471+970237545+974565870+978593365+981713008+982681966
1290+982571211+984896622+989932074+994846930+998681632+1002465363+1007527476
1277+1013825225+1018147013+1018677432+1018908563+1021024068+1022461751
1265+1021340175+1019379932+1018735453+1018850762+1018585773+1019013148
1254+1021479793+1024772693+1026389067+1025614665+1024301911+1025041134
1242+1026917062+1026885481+1025230254+1023956427+1023885846+1024392395
1231+1024430293+1024045075+1023438273+1022261614+1020988080+1021454749
1219+1023134726+1022693616+1020417340+1019651163+1020469927+1020862195
1207+1021306537+1022504128+1022824275+1021606779+1020500700+1021027373
1196+1022640222+1023103953+1021024949+1018130782+1017095797+1017823121
1184+1018709601+1018361031+1017139423+1018260338+1021526798+1022097317
1173+1019749286+1018911060+1020779937+1023585677+1026208319+1028030486
1161+1028841243+1029535150+1031147412+1034166803+1037545927+1038911193
1150+1038371373+1037971099+1038666548+1040729981+1043192733+1044518927
1138+1044130844+1042322412+1040766556+1041545219+1043776914+1043395808
1126+1039261965+1034975651+1033801855+1035793165+1038520026+1040901915
1115+1042258735+1040979987+1040033136+1041032206+1038853685+1033691761
1103+1031029753+1031996581+1035161540+1038557482+1041073042+1042940965
1092+1044124602+1045659672+1046879958+1045403791+1044111455+1047680581
1080+1052725654+1053389081+1051826175+1050226326+1047658180+1046214034
1069+1045318154+1044158313+1047252911+1053720391+1057225693+1055741593
1057+1050843556+1046308484+1044259593+1044337078+1048039799+1052934164
1045+1052422474+1047083107+1043450892+1044188278+1046481887+1047295216
1034+1045852979+1041750424+1035835984+1032105573+1032295134+1032670144
1022+1032431081+1033397321+1033521810+1033219584+1034324636+1034096296
1011+1031608792+1029159921+1029011489+1031509715+1032509593+1031142050
999+1031300838+1032608156+1034539829+1038154858+1041441882+1042642778
988+1041877336+1042340773+1046874303+1050985893+1050694904+1049753855
976+1050853178+1052030058+1052703180+1054146445+1056280091+1058868434
964+1061718755+1063375597+1062886161+1061281097+1060738854+1061513550
953+1061542340+1062153622+1065596643+1068735675+1068748822+1067344557
941+1066606656+1066156219+1064978825+1064635103+1066866504+1070529933
930+1072352320+1071158988+1069668058+1068159354+1065344654+1064717581
918+1068503443+1072769119+1073741823+1069793795+1062793400+1059317843
907+1059846132+1058959946+1057174722+1057982836+1060512350+1060297597
895+1056933823+1056478098+1059885278+1061628785+1058958037+1052712287
883+1047273329+1046653601+1047629904+1047039334+1047248284+1047168817
872+1043354753+1038163818+1035162715+1034397493+1033997586+1032738521
860+1030933246+1027755215+1023754233+1022199920+1023676822+1025830152
849+1024960785+1020439741+1017247754+1018121307+1021421992+1024450564
837+1023177911+1018059026+1015262760+1015518863+1015810806+1017094916
826+1019106570+1019664530+1017217128+1011588315+1008243930+1011351161
814+1016397557+1017200015+1013629861+1009971647+1009078117+1010194332
802+1010892058+1008919770+1004377280+1000079287+998856284+1000477358+1000118140
789+995347089+990464476+987793727+985929697+984505088+982844132+980548761
775+980374917+983338196+984012934+979294984+974222956+972775579+972856882
762+969939873+963834697+960441031+961826935+962370574+958090282+951619350
748+945845631+940407701+936199605+934276378+931879726+928948102+928092322
735+926979486+924116312+922080274+920072880+915583123+909389960+902844188
721+896256112+891494168+890198161+890717416+891101532+890927688+891016263
708+893234003+896854687+897740799+896105991+897088315+899584559+898357810
694+894764080+892953297+893236060+893771620+894572609+895912537+895974671
681+895571018+897230798+899475199+900952983+902815765+901036049+891779795
667+887499944+895400920+901385794+900831432+898040014+897209279+898292811
654+899409026+898605759+895218410+893837426+898068290+901021654+897785380
640+893285121+890129416+888221099+885936524+883165743+885044756+888725665
627+887699200+885654128+884672391+880496097+873824367+869211370+869237516
613+873325897+875383821+872190219+872836754+883720766+894219927+890186703
600+877562342
##END=
