##TITLE=Sample description
##JCAMP-DX=4.24
##DATA TYPE=INFRARED SPECTRUM
##DATE=12/9/2023
##SAMPLING PROCEDURE=Instrument type and / or accessory
##ORIGIN=Default
##XUNITS=1/CM
##YUNITS=ABSORBANCE
##RESOLUTION=4
##FIRSTX=4397.6552
##LASTX=599.8556
##DELTAX=-1.9287962
##MAXY=1.8428502
##MINY=0.23407261
##XFACTOR=1
##YFACTOR=1.716288e-009
##NPOINTS=1970
##FIRSTY=0.24662976
##XYDATA=(X++(Y..Y))
4398+143699519+143429832+143061785+142512253+141901070+141748775+141713178
4384+141570998+141544292+141573507+142186124+143355165+143896700+143945893
4371+144453941+144861397+144443184+144000296+143991162+143822502+143475162
4357+143053632+142465613+142380240+143189187+144407396+145457726+145422563
4344+144516279+144725052+145843493+145448479+143943688+143601201+143807464
4330+142825525+141586227+141692002+142851858+143808871+144167984+144827658
4317+145703918+145434648+144277988+143506010+143616126+144565942+145499105
4303+145616019+145093142+144780826+145156757+145059186+144420845+144988904
4290+146114222+146000797+145263426+145367023+146256610+146773166+146363818
4276+145636318+145419750+145730416+145848685+145501840+145418890+145684678
4263+145597092+145810136+146784331+147380834+147036602+146140685+145528538
4249+146077201+147288681+147599920+146632150+145587950+145355397+145682421
4236+145813887+145497065+145044071+144705300+144933407+145873030+146780390
4222+147154541+147361316+147647690+147906280+147975564+147587713+147450482
4209+148042348+148142402+147558141+147158691+146967231+147215924+148010832
4195+148463886+148378314+148648991+149257127+149181488+148390938+147793672
4182+147628763+147629665+147771307+148162058+148794314+148955004+148039309
4168+146956725+146865371+147511831+147857573+147666339+147512056+147555068
4155+147492226+147371735+147466527+147566581+147628763+147977804+148259195
4141+148181315+148045474+147650069+146914426+146637064+147096109+147628797
4128+147705253+147478126+147606519+148185309+148392432+147679744+146537375
4114+145961536+146282882+146974732+147586567+147858580+147648818+147562257
4101+147999163+148303439+148176766+147936529+147753995+147853736+148095674
4087+147831145+147224050+147276439+148093104+148746301+148561665+147983517
4074+147836354+147775613+147516727+147742829+148296580+148397780+148048564
4060+147798552+147923072+148235527+148538553+148958737+149498440+149351277
4047+148264699+147525201+147932952+148894767+149433063+149107324+148660417
4033+148936719+149403943+149173674+148474079+148021441+147869103+147602959
4020+147491896+147967056+148265151+147812582+147410266+147813207+148774952
4006+149498162+149405350+148641663+147904110+147681134+147892389+148123058
3993+148225612+148429696+148600180+148582589+148694051+148846615+148508721
3979+148045612+148192672+148412956+148281300+148318025+148359926+148360829
3966+148947485+149933297+150480970+150131720+149336413+148843194+148717441
3952+148719907+148898222+149574496+150211579+149998292+149788738+150063374
3939+149994333+149420648+148692089+148504588+149156483+149477360+148525669
3925+147466718+147699140+148124933+148076018+148643452+149880040+150570866
3912+150217014+149139952+146939969+143787921+142384877+143891664+146513881
3898+148861358+149044726+146478718+144804503+146637359+147617007+146660506
3885+146495040+145730416+145479535+147517179+147556735+145222403+143031076
3871+141916949+143564120+145113910+144823777+146232473+148817686+148990549
3858+145148596+138065637+136383061+144411234+150088882+150762500+148362200
3844+145015037+142415612+140730266+141384036+144273612+145845195+146320042
3831+147582174+148708186+149036651+147726420+144051651+142903274+145011026
3817+146031654+148600110+151658486+151244813+147984872+145920487+146157337
3804+144648527+144349225+147843578+149695248+150675261+152305744+152734922
3790+152408194+152179609+151951319+152147051+151934076+151332834+152825513
3777+155188027+155292717+153213677+151535285+152382026+154056823+155350454
3763+155702691+154223434+153507066+155030949+155186551+152286626+151516479
3750+157266425+161469584+162992720+169226247+176218910+178201335+177591758
3736+178058964+181407187+187445728+192917392+195109318+195457544+196287441
3723+197732177+199385894+201218794+203107294+204321032+206117814+213512932
3709+226034006+238152261+248062076+257938967+270163683+281837878+289985083
3696+294486580+294296231+289403011+284847008+285356219+286040307+282347176
3682+275129000+266287600+256889792+249444647+247533694+246359183+243895851
3669+244870793+247102727+247483389+247194098+246457813+244532899+243250312
3655+243963242+242492130+237568348+236304601+242677807+249646664+253511651
3642+255265647+256239791+256707431+256969721+257024071+255577651+253990284
3628+257219872+261343936+261371702+258044960+254249916+253620266+253996587
3615+252683664+252369560+254367317+257397545+260775999+262872838+262833750
3601+262608951+263385088+264061726+264659270+265337906+264712683+262831406
3588+262388006+263674709+264035263+263405282+263012829+263257789+263681967
3574+263971692+264074368+263530653+262582956+262538937+263205765+263556787
3561+263576877+263505979+263691951+264094024+264168830+264019566+264014669
3547+264345443+264855662+264957313+264655780+264355584+264371438+264609330
3534+264579741+264125714+263609279+263708083+264308284+264343065+263759360
3520+263513845+263674518+263474497+262665020+261964158+262282830+263291042
3507+263776551+263753144+263852225+263700199+263009148+262232664+261662295
3493+261306638+260837347+259940059+259261979+259404037+260047805+260721613
3480+260987601+260872545+260685443+260425915+260190124+259962928+259620710
3466+259186270+258623212+258236593+258343054+258617638+258751760+258725974
3453+258509475+258267120+258039403+257701648+257526649+257614479+257912625
3439+258433019+258633908+258262102+257936866+258014746+257985851+257344028
3426+256591732+256501993+257143278+258042702+258665025+258805972+258549118
3412+258328538+258378773+258339078+258260764+258328260+258309246+258322252
3399+258561256+258752073+258700258+258579071+258562054+258762787+259143883
3385+259437481+259579088+259697773+259737572+259522983+259306310+259597511
3372+260136294+260227249+259915089+259872598+260383303+260994634+261383927
3358+261856186+262526765+263035091+263325771+263535654+263418653+262935575
3345+262747640+263282672+264099633+264581495+264707092+264814630+264816783
3331+264862764+265501930+266334102+266634576+266346813+266068461+266576961
3318+267274663+267012269+266272181+265966706+265800563+265375187+265230855
3304+265611795+265664808+265141185+265065893+266121440+267624347+268495867
3291+268927754+269623251+270812122+272411193+273794407+274755509+275661914
3277+276558351+277142369+277255029+277331189+277587401+277664759+277244298
3264+276619266+276515948+276734253+276529110+276203614+276334906+276502629
3250+276184478+275642796+275544999+275779054+275337217+274316763+273778744
3237+274069928+274598379+274510932+273960445+273713523+273757351+273525710
3223+272780812+271804133+270823253+270022007+270000614+270630126+270675655
3210+269836190+268991082+268499687+268185252+268132499+267925932+267009595
3196+266016959+265454873+264957521+264047627+262945942+262347078+261936896
3183+261073329+259850372+259058642+259179081+259217543+258209661+256896738
3169+256729762+257296554+256820074+255413731+254796270+255144965+254994085
3156+254037463+253446170+254082315+254880418+253753051+251389808+251036251
3142+253051252+253597102+251200032+248780319+248805515+250338705+250058288
3129+247649723+246594644+248395854+249545708+247038357+243829085+243735195
3115+246059699+246215475+242497408+239190079+239524848+241017805+239011521
3102+234547358+232642344+234627234+236467254+233854848+229564503+228838323
3088+232027817+234018299+230789891+226316959+225364383+227232272+227773086
3075+225256081+222936665+223401753+225827596+226475236+223797783+221212067
3061+221409622+223521099+223899157+221694016+220105555+220345062+221152316
3047+221111145+220202466+219293404+218674763+218440725+218233707+217411085
3034+216261839+215745474+216025475+216167030+215640593+215042129+216739934
3020+226159117+243414249+254622279+249682956+237632318+228364587+222749546
3007+218902514+216171527+214274327+212978265+212184764+211368098+210587551
2993+210548672+211746330+213262607+213213240+212070037+211809345+213073040
2980+214695605+214428245+212423767+211070733+211303885+212630959+213262763
2966+211868176+209933642+209599620+211723912+213752005+212268634+209288884
2953+208218994+209541901+211711375+211703353+209474145+208031666+208735533
2939+210829558+211537505+209389059+206857259+206143391+207646628+209557164
2926+208833173+206366680+205019966+205429297+206576807+206427994+204599765
2912+203045164+203044400+204397921+205445151+204741980+203279185+202634757
2899+203295351+204472814+204344057+202833024+201700204+201853150+203126725
2885+204144731+203701626+202819931+202723454+203319366+203872891+203686519
2872+203111479+202877025+202995311+203316275+203521453+203209137+202715137
2858+202496362+202434806+202297679+201816737+200901060+199998006+199575461
2845+199684075+200000889+200210269+200413224+200662230+200761311+200814168
2831+200945356+201024955+201121674+201318361+201379814+201112506+200717709
2818+200552087+200568236+200490808+200323693+200202524+200262952+200565475
2804+200895989+201041555+201042163+200962807+200913458+201069720+201338417
2791+201503691+201459430+201205944+201011827+201035269+200980988+200701091
2777+200540783+200697254+200857996+200751743+200405532+199957443+199642644
2764+199659713+199936137+200181774+200245675+200245710+200278389+200308517
2750+200330361+200349427+200369396+200465317+200532031+200388289+200274326
2737+200456166+200711249+200857319+201046869+201321070+201523973+201496711
2723+201262326+201069529+201035495+201036467+201005020+201068018+201212994
2710+201256457+201318743+201452762+201407111+201299521+201411417+201570718
2696+201537222+201421922+201423503+201626736+201898610+201969405+201884337
2683+201898940+201955878+201777285+201447934+201301674+201233970+201033081
2669+200936535+201042232+201048206+200889564+200720383+200600621+200598641
2656+200593310+200414492+200219524+200136852+200080123+200014242+199984219
2642+199935547+199772877+199586123+199495880+199432708+199306017+199153176
2629+199002505+198818859+198571590+198301573+198197890+198292144+198287248
2615+198030532+197686891+197435176+197324513+197289801+197186553+196987122
2602+196836261+196702364+196490796+196346341+196231979+195995528+195856908
2588+195920948+195921816+195746644+195463431+195182492+195066185+195041666
2575+194919873+194752862+194560811+194324621+194188432+194109493+193959187
2561+193810825+193657202+193403040+193098919+192917079+192954031+193040853
2548+192981119+192817720+192610372+192396946+192283105+192202256+192048442
2534+192007480+192193001+192337403+192277670+192134136+191958460+191809751
2521+191768997+191758891+191697056+191573265+191434524+191366559+191392085
2507+191460970+191485106+191404379+191263745+191180673+191237160+191400350
2494+191538988+191595422+191657656+191746961+191793758+191866915+192091419
2480+192352944+192425076+192339088+192292429+192309603+192322765+192349854
2467+192387899+192475815+192695179+192921681+192966255+192855470+192762727
2453+192804957+193005898+193283954+193467791+193561524+193734891+194026647
2440+194322138+194536762+194694760+194782763+194762308+194768177+194901414
2426+195045764+195205691+195456450+195660169+195729922+195777674+195946613
2413+196218331+196428735+196545389+196672914+196864148+197052829+197217930
2399+197520244+198183964+199728598+203365312+210698318+223166188+241597116
2386+265452529+292741353+321238567+349761896+378603481+408695337+440439000
2372+473660965+507429838+539368087+567182011+589064080+603503209+610638661
2359+609423152+595583304+569631330+538643991+509303354+491760858+495163483
2345+515082228+526668593+519294659+507273871+497454577+492609491+495463852
2332+500991568+500451118+494842450+491130217+490469397+487852755+479020315
2318+464363228+449240150+442726587+446662299+449715761+441167611+421569899
2305+398922684+381934356+371698663+363061122+353169105+341490292+327330695
2291+312235886+298852235+287445070+277136360+268033765+260544583+254653049
2278+249947277+245879561+242163647+238758869+235696882+233015696+230704858
2264+228736012+227045622+225493539+223992178+222539333+221200051+220066520
2251+219096075+218146919+217161611+216296065+215697427+215283911+214958398
2237+214635593+214234406+213853031+213618959+213473984+213360664+213321299
2224+213295339+213255123+213304907+213394056+213394090+213416733+213634570
2210+213951227+214212284+214438073+214671277+214933948+215245622+215563235
2197+215834501+216014067+216107140+216256422+216568668+216940683+217216152
2183+217378701+217464568+217529458+217645991+217741773+217779488+217859643
2170+218005156+218169128+218267689+218206965+217967701+217671534+217496379
2156+217397471+217205959+216944504+216702861+216547866+216498325+216434337
2143+216474762+216787252+217174565+217556894+217990535+218424837+218790896
2129+219061850+219380035+219829721+220306913+220745833+221092964+221317156
2116+221533222+221776514+221994038+222225888+222464492+222759097+223103346
2102+223337470+223530927+223884848+224432956+225036057+225634260+226271742
2089+226891634+227522414+228303308+229228692+230237755+231412544+232711558
2075+234023561+235506273+237216441+239042534+241093409+243508573+246127611
2062+248878915+251933418+255182958+258461983+261868619+265551176+269450353
2048+273241854+276733888+280027222+283269573+286339774+289019518+291265674
2035+293099164+294648173+295922304+296801255+297239012+297216369+296831226
2021+296257645+295547094+294541625+293195432+291660454+290030769+288366478
2008+286629638+284837718+283157816+281550896+279882055+278317071+276968915
1994+275591866+274224176+273236957+272536234+271734658+270810490+270017648
1981+269415972+268853191+268315589+267908498+267639940+267415245+267153355
1967+267011852+267170650+267458743+267748919+268092179+268417918+268714519
1954+269132376+269695573+270236805+270630699+270848084+271078683+271878470
1940+273299834+274633976+275592161+276372361+277083312+277784556+278535966
1927+279136723+279469112+279852101+280170322+280255338+280875247+282046025
1913+282737614+282784863+282885802+283462023+284195391+284711895+284977901
1900+285133955+285315795+285601161+285963244+286003408+285896877+286501662
1886+287488238+288133517+288625242+289136468+289504819+289719460+289893226
1873+289655160+288497614+287462122+288236696+289858341+290732222+290825920
1859+290591223+290308200+290112538+290011981+289884943+289439980+288210580
1846+286334703+285633285+286613524+287051541+286518453+286201154+285947928
1832+284368097+282108884+281476108+281982575+282515645+283167436+283561191
1819+283630735+283432729+282757080+281684810+280807682+280772450+281136460
1805+281192321+280793669+279962261+279454595+279675228+279213786+277738749
1792+277876622+280259835+282107894+282750412+282812316+282650150+282998080
1778+283668659+283078304+280729282+279058409+281111768+284840444+287194484
1765+287527916+286980173+287457399+288680635+289653927+290466008+290361752
1751+289146660+288629184+290038340+292166904+293330736+293264925+293685039
1738+294589586+293953701+293980442+297521392+301237653+303823699+305393581
1724+306189252+306273053+304452395+301580531+302374605+307076956+311121959
1711+313212043+313411283+312644991+312660272+312352436+310558345+310598978
1697+313633096+318766049+324272858+327149966+328043191+327171776+324328042
1684+325264504+332204085+337534194+339157071+339360200+340811135+342272940
1670+343737767+348458802+353750049+356405345+359037233+363606260+367203887
1657+367013816+363336590+364303857+372207197+376204692+379365223+387085021
1643+394534143+398487081+399309702+398011331+400043209+407903729+414008672
1630+416293203+417396502+418801838+420648613+423970875+426692225+426857916
1616+428570672+434057477+438786951+441527575+444008011+447272415+450981556
1603+455063234+459576764+464174859+468649006+473337952+478668269+484272874
1589+489797256+495521571+501702606+508430375+515405380+520916703+524588546
1576+530811185+539495472+545255628+550283144+558641328+567904231+575602637
1562+580095017+581626558+590482266+607919464+622721856+634970223+645678921
1549+655415978+663533074+669958668+674711792+680516366+696053273+713465119
1535+724433589+734174466+746383241+756497174+763192472+769286198+775951144
1522+784891174+796579503+807960621+819286381+830082250+837960272+842444040
1508+845431412+855421155+872473836+884390264+890522747+893925407+899203631
1495+907553896+913234210+915264040+919816154+928413758+935318748+939966644
1481+943757294+946539628+948907161+949985351+950137533+954552468+961743624
1468+965320136+965613734+965954701+965642489+961779951+954246924+952304750
1454+957481774+960970561+962509603+962464803+960369058+957553037+954597685
1441+951000891+945666337+939410080+936234200+934007041+928339091+921982884
1427+918239535+916865524+917658522+919204857+923028638+931478784+939099119
1414+941849849+942599366+945237436+948493679+950469540+952926743+956374967
1400+959203212+961546781+964179712+967644953+972230059+976258462+978185356
1387+978126872+978487774+979527624+979268200+979924366+983541928+987646804
1373+990087823+991451554+993425678+996387421+997470682+994045588+989474651
1360+988101751+989677814+993551744+996892795+995015702+988426257+982900070
1346+982504925+984472868+983378077+979700157+976662428+972560885+967301971
1333+964996325+965567267+965516285+965007577+966789235+970179045+971375174
1319+970242668+970600722+973411394+977811257+983322233+986949936+987915119
1306+989421724+991006053+990889780+991698962+995249983+999225529+1001729407
1292+1002614992+1003038128+1006008900+1012483670+1020222500+1027270921
1281+1033387984+1038625784+1041972322+1043264789+1044368332+1047989922
1269+1053569523+1056409853+1055681868+1054541999+1054137130+1055303046
1258+1058328690+1060958425+1061807475+1062186019+1064127498+1067790902
1246+1069521508+1067668101+1066297216+1067798473+1069897066+1069913597
1234+1069202420+1070513085+1072826719+1073741823+1072254041+1069987222
1223+1069554292+1070229837+1070220044+1068902641+1065969862+1063909540
1211+1065288066+1067916759+1068270021+1065425453+1061853247+1060409710
1200+1060445133+1060513827+1060309413+1059913088+1059014167+1057038862
1188+1054799964+1053472351+1054627571+1057707322+1057355449+1052081949
1177+1047696533+1046644667+1045329556+1042298773+1040025216+1040130167
1165+1041492022+1042095470+1040946155+1038315795+1036868923+1037912454
1153+1038085334+1035864774+1034336081+1034548482+1033317693+1030608776
1142+1028746062+1025482456+1021301107+1021700975+1026660249+1030481738
1130+1030243568+1027564032+1024252917+1022004852+1022655878+1024489282
1119+1023894933+1020703216+1017008765+1014454877+1013116498+1012306553
1107+1012794979+1014062303+1014705411+1014560661+1013367796+1013418084
1096+1015810899+1016896244+1014296028+1010909482+1012097416+1017379946
1084+1022529257+1027029208+1029126342+1027685513+1026826045+1027765737
1072+1027099083+1024514009+1024965414+1031166729+1037964408+1041103268
1061+1043203805+1044390767+1041412702+1037988510+1040450783+1045181403
1049+1047508372+1048829734+1047470518+1043666046+1039350574+1035011626
1038+1033216910+1033711935+1035087682+1035947428+1034966062+1034419013
1026+1034699414+1034781860+1035044479+1034300380+1031600979+1027697321
1015+1023555702+1021310831+1023515277+1029195522+1033247263+1031978342
1003+1029823975+1032332159+1035477686+1034471454+1032790440+1033469736
991+1034834092+1036150523+1038788523+1042289743+1045007967+1047215261
980+1049194526+1051086690+1053899446+1055181287+1052886546+1052249133
968+1056326087+1060646352+1061813587+1059801191+1056301013+1054782878
957+1056271980+1058705845+1060360811+1060897024+1061018853+1061450463
945+1062044186+1063336862+1066814536+1069783989+1067266289+1061427125
934+1056970376+1054268614+1053427621+1054338974+1056008110+1059730761
922+1064358515+1066134685+1066399666+1067517447+1068606821+1068323989
910+1065330643+1060593008+1057019900+1055997553+1058856915+1065021626
899+1069489488+1070250744+1068139371+1062010013+1055694718+1055245327
887+1058967491+1061173674+1060315664+1057553820+1053609252+1049801863
876+1046625705+1043359807+1041440693+1042465332+1044411535+1044939760
864+1043057528+1040336595+1039729396+1039369814+1038055606+1036898790
853+1033489184+1028553803+1026592528+1027930490+1030091595+1032489342
841+1033933643+1033120434+1032168170+1031282793+1028631457+1025594144
829+1024611874+1025086548+1024857338+1024951383+1026645385+1027999392
818+1027932227+1026583499+1023156182+1019206751+1017946582+1019036650
806+1019075129+1016241744+1013169842+1011779092+1011364499+1013834551
795+1018047504+1016927083+1010276098+1005277789+1004236549+1005219930
783+1005422469+1001699193+996641566+994630907+994610000+994027112+991398280
770+986636959+981829311+977865017+973361037+968873797+967839851+970308027
756+968652366+960285848+955262394+956616610+957363279+957305768+958113908
743+956127211+951629691+947988514+945298212+943424731+943462308+943344577
729+938592217+930602576+924788833+921760481+919610490+917484114+916254714
716+916905115+916221235+913858982+913903504+914979541+915695233+918752341
702+923435104+927812880+930684813+930659531+930478524+931679725+931252977
689+929459789+929730605+932306788+933959324+932632683+930474774+932477584
675+938937491+943543851+942908314+939035912+936608924+934823377+931052453
662+930932986+935119197+934723149+928521347+924860931+928068692+935400917
648+940500426+937360525+929350394+925544671+928480854+931865454+927469412
635+917586356+912410443+915856374+918375255+908975416+896926046+894196639
621+893061493+887084664+885885687+895655527+910090905+915980148+908959024
608+904807542+911370384+916779188+910823961+898670613
##END=
