##TITLE=Sample description
##JCAMP-DX=4.24
##DATA TYPE=INFRARED SPECTRUM
##DATE=12/9/2023
##SAMPLING PROCEDURE=Instrument type and / or accessory
##ORIGIN=Default
##XUNITS=1/CM
##YUNITS=ABSORBANCE
##RESOLUTION=4
##FIRSTX=4397.6552
##LASTX=599.8556
##DELTAX=-1.9287962
##MAXY=1.9643227
##MINY=0.30886495
##XFACTOR=1
##YFACTOR=1.8294181e-009
##NPOINTS=1970
##FIRSTY=0.32381874
##XYDATA=(X++(Y..Y))
4398+177006421+176435826+176203571+176450846+176725620+177232208+177478750
4384+177170972+176679794+176181302+176082010+176540493+177036004+177641184
4371+178615492+179308869+179465194+179744985+179996626+179266970+177911347
4357+177079582+177034783+177683002+178540572+178800097+178554337+178509066
4344+178885379+179197816+179183529+179301310+179675962+179923709+179686746
4330+178664788+177405394+176952271+177013295+176837308+177116170+178419777
4317+179496276+179362693+178813993+178630545+178735701+178992913+179278715
4303+179444977+179063989+178041965+177774392+178789085+179448301+179006108
4290+178581135+179153017+180089596+180362513+180127244+179655452+179233281
4276+179030626+178674839+178565464+178913985+178792392+178179914+178058565
4263+178472298+179014873+179854865+180341368+179542200+178528435+178707339
4249+179448822+179338909+178295952+177650958+178073879+178688833+178860079
4236+178870848+179172615+179819254+180320907+180494988+180826469+181336642
4222+181312809+180953764+180944853+180766683+180047355+179573771+180069315
4209+181046327+181332797+180528221+179131253+178423165+179053514+179757252
4195+179694223+179648365+180034111+180160428+179825509+179634649+179487398
4182+179080280+178922293+179317096+179897758+180314977+180275863+179595796
4168+178986576+179224370+179664184+179604104+179403306+179245238+179079351
4155+178941027+178781656+178902321+179336563+179706702+180038265+180339185
4141+180434680+180295982+179886827+179352772+179163166+179513691+179882575
4128+179713267+179451966+179740521+180033915+179841735+179654474+179680800
4114+179789279+180149562+180693098+180849146+180424515+180044374+180097872
4101+179987373+179478552+179396936+179759630+179928922+180182322+180588626
4087+180647875+180508868+180515873+180506277+180451802+180431960+180142834
4074+179624874+179273307+179261236+179640546+179909373+179457163+178854280
4060+179066302+179936758+180676921+180906684+180773378+180655141+180691420
4047+180759466+180779210+180897122+181318006+181728659+181430899+180314879
4033+179442159+179722504+180395501+180509177+180508281+180838150+180942898
4020+180678045+180579634+180611726+180607312+180501716+180142573+180123204
4006+180480506+180109503+179465145+179680425+179739756+179106573+179206760
3993+180017592+180557251+181127910+181963016+182501632+182002439+180685230
3979+179957805+180088081+179812216+178915842+178624322+179233672+179958978
3966+180417950+180566015+180590011+180606579+180546206+180649423+180843444
3952+180698213+180168785+179593238+178999413+178590714+179258857+180360037
3939+180436831+179635838+178592506+178157189+178997963+179706083+179082609
3925+178292075+178107519+177828102+177816732+178558394+179268208+179504259
3912+179565935+179344480+177813392+174945904+173341459+174626722+177294194
3898+179641833+179884547+177771232+176520097+177957026+178483701+177879304
3885+178175760+177433365+177144728+178930895+178415998+175862967+174227130
3871+173689752+174956623+175785212+175320490+176900841+179428589+179299975
3858+175591647+169576554+168832350+176232715+180996869+181492999+179739479
3844+177109263+174831609+173709594+174824848+176864644+177268862+177425643
3831+178519443+179027677+178633966+176898512+173245865+172187579+174579039
3817+176370973+179049360+181261379+180236929+177263666+175894343+176278866
3804+174978957+174863473+177537103+178619321+179244538+180441718+180757071
3790+180607181+180383348+180230885+180370528+179460356+177941778+178630317
3777+180405145+180414415+178613554+177036037+177442748+178934316+180659963
3763+180948388+178632011+176814468+176857459+175332154+171232542+169290996
3750+172929453+175064206+174345351+176802609+180062147+179322553+175959929
3736+173744586+175498367+179494256+181748941+181211400+180236163+180661234
3723+182067324+184306614+186599908+187236789+185650573+184087229+186861551
3709+192557299+196661407+198618821+201029292+206700800+213141844+217064605
3696+218317759+216768474+213394967+211879599+213390764+214004855+212272415
3682+209084816+204827935+199284846+195283059+196377087+197153449+196568274
3669+198924025+201673455+202329315+202038870+201473619+200243466+199371381
3655+199342026+196917056+192502563+192931804+199005266+203461903+204643004
3642+204427154+204268353+204132831+203678747+202564502+200127982+198258163
3628+201088541+204454668+204211043+201630904+199261518+199845552+201770841
3615+202560283+203025966+203415898+203921168+205449438+206557199+205938889
3601+204895443+204530322+204260305+204440545+205618746+205974223+204522828
3588+204208208+206543140+208542714+209141214+209003184+208424444+207949410
3574+208006671+207592336+205613777+203752136+204974681+207716112+209113846
3561+209284962+209315605+209558026+209497750+209197156+209095047+208765569
3547+208654370+209565617+210648861+211031950+210814145+210556998+210607417
3534+210791990+210891069+210562081+209753969+209193605+209405399+210107198
3520+210653878+210712296+210547533+210245978+209615254+209265446+209670789
3507+209952991+209696202+209735202+210226673+210427683+210169102+209907426
3493+209964655+210130347+210059727+209718521+209508095+209955663+210656924
3480+210739485+210450131+210354082+210355841+210480008+210811636+211060329
3466+211108060+210826852+210191144+209849611+210243029+211071113+211763822
3453+212041381+211988697+211732332+211643483+211790913+211903905+212381953
3439+213240679+213597818+213382293+213444035+213967729+214257881+214044571
3426+213837502+214114800+214947804+215874316+216365640+216598417+217011058
3412+217586882+217984128+218231142+218640721+219159218+219656603+219978114
3399+220087570+220324648+220552178+220580785+220827913+221433125+222203296
3385+222994466+223562340+223686148+223631835+224032030+224893559+225450583
3372+225395537+225337673+225717032+226436458+227386868+228279332+228926265
3358+229575201+230213190+230741869+231307625+231653947+231576730+231743513
3345+232657855+233780034+234575080+235132105+235593862+235819145+235611602
3331+235254349+235185000+235466062+236000964+236582881+237068406+237441086
3318+237697256+237927963+238027303+237830252+237614043+237603976+237632289
3304+237644572+237507633+237346454+237878717+239018098+240240870+241683126
3291+243342682+244863264+246076848+247157388+248350267+249618165+250590648
3277+251289874+252322861+253591605+254477244+254721978+254451847+254608497
3264+255702721+256572541+256430357+255964364+255919435+256401653+256867808
3250+256761138+256201360+255639025+255644221+256137045+256038519+254955520
3237+254088257+254648132+255879572+256162784+255682260+255450656+255309482
3223+255061506+254943286+254684851+254195482+253832462+253559122+253061949
3210+252531657+252350506+252234419+252068076+252084822+251934069+251320565
3196+250564355+250055991+249722652+249465342+249471435+249391872+248843335
3183+248313581+248129757+247773824+246959831+246104233+245434493+244914693
3169+244694982+244811671+244821234+244340140+243737224+243480973+243440345
3156+243287376+243073252+242979532+242692231+242122011+241748647+241619218
3142+241588282+241726915+241800581+241566632+241159970+240538369+239618243
3129+238974227+239024793+239198272+238918350+238169455+237108823+236240029
3115+235832421+235234084+234176970+233173095+232160585+230811250+229455042
3102+228458969+227671204+226884026+226155624+225488834+224753346+224127868
3088+223875445+223764913+223446074+222943688+222551638+222337726+222045180
3075+221804095+221733573+221466879+221057822+220848228+220833973+220769446
3061+220437786+220180736+220450313+220999388+221325982+221168892+220727530
3047+220515606+220613985+220748545+220734845+220464714+220147129+219972380
3034+219593591+218965718+218685878+218906062+219027280+218501811+217617084
3020+217114780+217116556+217332422+217438099+217191118+216989733+216975397
3007+216596804+215989099+215567564+215239927+215143079+215263141+215216322
2993+215186901+215453497+215797929+216161698+216727683+217351841+217624920
2980+217489985+217356158+217581131+217926850+217931330+217726378+217599360
2966+217475389+217175625+216713575+216304941+216013128+215926771+216074576
2953+216150067+216001594+215766113+215787601+216123546+216235739+215922813
2939+215532718+215332735+215371066+215506588+215506767+215265194+214980613
2926+214974406+215123303+214838999+213827906+212673815+212257997+212512522
2912+212721074+212775403+212870475+212953134+213068650+213224356+213193941
2899+212994414+212829846+212708123+212754551+213071648+213420055+213667607
2885+213786496+213800001+213945753+214241606+214523483+214706638+214725095
2872+214703412+214658108+214529005+214612918+214896603+214973869+214931676
2858+215073258+215241882+215169421+214818782+214224078+213656383+213454542
2845+213497712+213539595+213652848+213922946+214127719+214161228+214259412
2831+214435383+214582552+214855143+215216811+215367205+215223930+214967499
2818+214841459+214932865+215102483+215203485+215181281+215127098+215237223
2804+215544952+215928482+216311539+216666006+216980659+217224823+217333481
2791+217314258+217184096+217014967+217042547+217248053+217334100+217266201
2777+217307253+217529294+217669621+217634808+217521507+217445137+217625637
2764+217924162+217993821+217852858+217629595+217522843+217777465+218254568
2750+218594732+218630164+218470989+218399229+218441926+218384616+218347783
2737+218549233+218787499+218832412+218830881+218965995+219160326+219300832
2723+219410452+219582024+219801312+219861245+219711225+219675158+220029592
2710+220583619+220920362+220912494+220754589+220702964+220858442+221036824
2696+221086999+221200593+221510913+221796455+221911075+222012435+222215889
2683+222440569+222585425+222623300+222620010+222705226+222862935+222920132
2669+222880545+222873247+222842588+222729401+222632358+222567212+222487062
2656+222440487+222459482+222535559+222605479+222584268+222504623+222345334
2642+222147827+222138590+222256078+222291950+222266113+222153887+221925085
2629+221756380+221752926+221760371+221582901+221289230+221173209+221173958
2615+220899299+220517626+220502720+220691691+220704333+220546526+220335253
2602+220196620+220191765+220124469+219929030+219784875+219742112+219815224
2588+219957653+219992824+219900652+219723133+219533185+219450021+219381422
2575+219252482+219127810+219003903+218914631+218909108+218939376+218879117
2561+218615095+218253330+217984242+217820766+217716066+217645984+217557396
2548+217444029+217326558+217141040+216870991+216650644+216496894+216299826
2534+216108428+215979276+215864492+215743258+215597718+215497661+215533663
2521+215578902+215521347+215458531+215357561+215106898+214899551+214926805
2507+215066758+215166277+215180792+215058319+214838184+214706947+214715321
2494+214825527+215055371+215248985+215230739+215117422+215187374+215560331
2480+216016500+216248657+216224238+216124490+216085768+216093815+216044064
2467+215957235+215957512+216055988+216243314+216418780+216389995+216267701
2453+216259507+216353927+216506424+216621403+216644552+216729442+216922095
2440+217120644+217335990+217543451+217665581+217781750+217963260+218124765
2426+218226907+218344036+218503847+218706632+218913116+218995123+219027329
2413+219148222+219240883+219348889+219611738+219842837+219907999+219937990
2399+220089085+220391146+220704789+220936343+221122512+221244953+221191503
2386+220812714+219871492+218051913+215322129+212061598+208624020+205154252
2372+201584590+197712053+193696436+190043790+187181661+185403037+185014539
2359+186257544+188957598+192901618+198349814+204026160+206687214+204864051
2345+200729122+198167148+198034933+198910553+200030564+201053077+201715290
2332+202246510+203319670+205038817+206896565+208575930+210338802+212549485
2318+214887985+216700151+217927176+219158697+220704544+222279145+223661631
2305+224864969+225945280+226931709+227764484+228421370+228958455+229413158
2291+229872521+230443213+231059161+231528281+231758240+231839627+231874652
2278+231902167+232018058+232212373+232377119+232557473+232786307+232990917
2264+233144130+233321160+233585736+233814765+233924987+234071896+234322951
2251+234535347+234655377+234762324+234908386+235098758+235278378+235401128
2237+235503319+235622061+235781448+235988632+236166151+236229309+236224927
2224+236251921+236325408+236427778+236526499+236583614+236630596+236681699
2210+236729235+236858013+237110354+237354013+237456904+237509490+237662166
2197+237859868+237992376+238058060+238127442+238289175+238497629+238597377
2183+238574537+238580483+238720338+238941320+239103656+239134934+239109667
2170+239164094+239320924+239469820+239585678+239720157+239821713+239884204
2156+240019807+240221159+240360020+240433702+240531934+240663334+240826436
2143+241008369+241078207+241029172+241105250+241362332+241579062+241657208
2129+241717369+241885798+242040118+242054633+242102104+242273123+242461019
2116+242607162+242700409+242755618+242793233+242811641+242826075+242896906
2102+243027606+243160863+243303992+243453605+243575622+243682993+243768095
2089+243799650+243779645+243727271+243735547+243867484+243983604+244020062
2075+244098746+244259713+244430292+244504773+244473006+244451844+244495780
2062+244592335+244790347+245028238+245085044+244987479+244965634+245051518
2048+245120166+245104951+245046582+245018969+245093890+245270415+245479358
2035+245675594+245809731+245897098+245970519+245990231+245991893+246044544
2021+246102539+246113144+246162993+246369623+246704069+247044787+247308841
2008+247488185+247631542+247801046+247985292+248116546+248230254+248305875
1994+248170989+248066224+248395164+248930587+249392784+249778171+250048008
1981+250230072+250414645+250638575+250798044+250840383+250827742+250750443
1967+250816387+251236212+251729704+252070975+252353503+252598628+252798644
1954+252988234+253094628+253114568+253175820+253175120+253015505+253212588
1940+253980658+254647497+254950763+255173162+255459079+255829478+256214099
1927+256293858+255989794+255879116+256101792+256328378+256917462+257817551
1913+258292161+258338768+258484358+258971414+259639003+260260815+260724266
1900+260956391+260999871+261157303+261512341+261583319+261563803+262255665
1886+263240008+263864134+264332993+264839305+265367691+265825017+266092232
1873+265834628+264882557+264486402+265909337+267877780+269028108+269516451
1859+269884945+270383535+270996404+271649983+272188110+272358282+271962355
1846+271284601+271817531+273845027+275411923+276095541+276754366+277284983
1832+276835330+276164157+276830215+278133822+279562149+281394255+282856272
1819+283651774+284332037+284915241+285018719+285208895+286299649+287737523
1805+288546156+288489725+288236699+288824497+289964383+290214541+289627526
1792+290581503+293509185+295803033+296833543+297344645+297687920+298473779
1778+299690752+299882004+298508934+297712617+299803353+303072453+305459059
1765+306316759+306269777+306963236+308279679+309483229+310571962+310667458
1751+309775938+309827938+311554546+313534702+314758321+315363517+316347111
1738+317270626+316746459+316880596+319884420+323132897+325792696+327659371
1724+328627847+328833272+327388523+324933725+325471022+329633108+333558622
1711+335733156+336053755+335477948+335664443+335708004+334721412+335333874
1697+338083890+342364507+346902449+349221905+349921326+349307789+347254359
1684+348047255+353310814+357528321+359104990+359510724+360773278+361952946
1670+363052594+366800280+370858595+372494171+374074132+377432277+379935816
1657+379136404+375599682+376048846+381740196+383980577+385644793+391326890
1643+396942586+399735936+400084913+398916388+400732074+407204460+412088611
1630+414236364+415958900+418179016+421092166+425556541+429498313+431684674
1616+435552878+441793286+447039512+451290252+455808418+460816377+465883373
1603+470995006+476331253+481797630+487133389+492564904+498400295+504257353
1589+509975941+515796737+522018997+528922368+536028427+541597565+545713190
1576+552351187+560525485+565786438+570820038+578748479+586777400+593176284
1562+597213616+599448948+608003534+622482752+634553697+644974339+654363721
1549+663466649+671350128+676949729+681063628+687793536+702069317+714837696
1535+722265950+730420048+741226126+750011192+756386226+762094388+767064064
1522+773578285+783350757+793487160+803374383+812617085+819393780+823173265
1508+825567723+834098525+849470011+861088534+867503643+871206953+876187772
1495+882453333+886158729+887778862+891440663+898902215+906642272+911919058
1481+915182001+918740064+922934047+925352485+925665916+928177862+934710784
1468+939472006+939288900+939463144+942157740+942080783+937409160+934622228
1454+936444365+937468522+937516547+938144126+938149470+936420450+935167051
1441+934406280+930190077+921353207+913578549+909960667+908332584+908409281
1427+909359479+910607795+913720864+918035137+920741527+922299821+926196338
1414+930764940+933654436+936505422+939374002+941144660+943136023+944925318
1400+945297395+946421381+950397657+957042659+963832452+967364775+966879315
1387+963738162+962279045+963544369+964542657+966029858+968965555+971324434
1373+973491606+977184164+980369954+981352343+981480843+979981521+977167287
1360+977142004+980210437+982640539+982094282+980174597+978439713+976685476
1346+974489829+972111336+969340630+964898509+960734696+959130071+958287587
1333+957241730+957519778+959849530+961711545+961542384+961370355+961836397
1319+962318142+963786708+965805895+966719016+967661460+969712056+971780506
1306+973635810+975381055+977023408+979997291+984102392+985952483+985348753
1292+985922183+988827449+992349672+996122771+1002376669+1010120765+1015360409
1279+1018422586+1021700972+1025005684+1027530206+1030500243+1034461531
1267+1036470945+1034914997+1033303204+1035811240+1040870450+1044280073
1256+1045592900+1045677937+1046629504+1050668921+1054051567+1053111274
1244+1052462386+1055955808+1060021878+1060838363+1060111085+1060091927
1233+1059911036+1060458010+1062567252+1063457957+1061951271+1060179245
1221+1060153831+1060327945+1058340948+1056243175+1056216328+1056901967
1209+1057309688+1057918826+1057831052+1056892062+1056550937+1056899230
1198+1057371136+1057649184+1058783662+1061780220+1063572512+1061025965
1186+1056843581+1053886511+1050249797+1045264807+1042645083+1044632732
1175+1046606306+1043672108+1040303667+1042411997+1047573577+1049208762
1163+1045940020+1040924860+1036039113+1032953934+1032678492+1033753411
1151+1034726156+1035568771+1035406842+1033309916+1030850165+1029179597
1140+1028177529+1027709728+1027089512+1025924930+1024457863+1023308333
1128+1022579687+1020550856+1016206934+1013158897+1014843932+1018163044
1117+1018603021+1016447970+1014671186+1014786328+1014911636+1013369697
1105+1011846787+1011987538+1013788757+1014012134+1010245421+1007975749
1094+1008893496+1007644658+1004719257+1004099172+1008871080+1018920231
1082+1027157738+1027973310+1024211028+1021345967+1022235695+1025169567
1070+1025558000+1025376849+1029861065+1033233024+1030198281+1027749608
1059+1028143058+1027776780+1029794925+1035493443+1039383965+1038812556
1047+1035967500+1034723093+1035929966+1038164581+1043271945+1050953355
1036+1054721698+1051250040+1044459856+1037533678+1031545318+1028050788
1024+1029592205+1036521380+1040254079+1034135459+1024396546+1018038193
1013+1017775719+1022817530+1027609118+1028110021+1026854341+1026305544
1001+1026345097+1029328493+1036450093+1041907249+1038562332+1029703568
989+1025981491+1030361056+1035953099+1037959580+1038433571+1037812052
978+1035806093+1035824664+1038812816+1042680205+1045241675+1045973644
966+1048928564+1054878413+1057600117+1055652152+1054160193+1055434574
955+1057408539+1055918861+1050661819+1048887316+1053800106+1057947628
943+1055902571+1051845364+1051663951+1056049251+1060719441+1062163049
932+1061358684+1062074428+1065645915+1067737172+1065947096+1064673366
920+1065277943+1063641780+1061011629+1060762318+1060978071+1062152232
908+1065230765+1064971419+1060538616+1059182064+1064940271+1072528303
897+1073741823+1068241334+1061008111+1055397627+1053109580+1052228062
885+1049909975+1048362237+1049379813+1050842123+1050528822+1046583629
874+1041105882+1040370328+1045640143+1048770610+1042366383+1034678783
862+1036373201+1041424526+1041226823+1038954545+1037033492+1033488266
851+1029852594+1029897296+1032881604+1034216390+1031824800+1029123753
839+1031906253+1038202896+1038763163+1033277205+1028275208+1024129706
827+1021435501+1023883001+1026881188+1024740603+1021806014+1021064270
816+1020017501+1017188671+1015414233+1018732238+1024727571+1028363763
804+1028934586+1023909717+1014416206+1011829584+1016992988+1017311567
793+1012203290+1009489667+1008578501+1006037232+1002327992+1000437957
781+1000111232+997427649+994063770+994591520+995330201+992023469+989230087
768+988329087+985924854+984892682+986675590+985860734+979740681+970057156
754+962407610+961516775+963624649+964692335+964715598+961670232+956652531
741+953246166+951662133+952305026+953776263+952334935+947966382+941086014
727+931572628+923862351+923847428+929201628+929408649+923239528+919414886
714+919210667+919028668+920683207+926501037+931547996+932294041+933436664
700+936041466+934389142+928356016+924928603+927132135+930280978+929296374
687+925040226+922532972+925345317+929370529+929288620+930497057+937150791
673+942541612+939828314+930339690+928003357+936735445+941458612+938638709
660+933282163+931113298+933149884+933262484+929791934+929721038+932928071
646+933123949+926005673+914290123+912625940+924452070+936926436+945004034
633+947587919+947881541+947388913+936806147+923432735+920503033+923956641
619+927113499+938869449+960969737+962635157+937141016+910438047+901849772
606+927046056+966942849+974450471+965225950
##END=
