##TITLE=Sample description
##JCAMP-DX=4.24
##DATA TYPE=INFRARED SPECTRUM
##DATE=12/9/2023
##SAMPLING PROCEDURE=Instrument type and / or accessory
##ORIGIN=Default
##XUNITS=1/CM
##YUNITS=ABSORBANCE
##RESOLUTION=4
##FIRSTX=4397.6552
##LASTX=599.8556
##DELTAX=-1.9287962
##MAXY=1.8691359
##MINY=0.29320353
##XFACTOR=1
##YFACTOR=1.7407684e-009
##NPOINTS=1970
##FIRSTY=0.31834051
##XYDATA=(X++(Y..Y))
4398+182873555+182923204+182141427+181389439+180949877+180551593+180227011
4384+180633838+181613046+182100424+182079195+182136205+182539061+183616727
4371+184468800+184051768+183094817+182062177+180900571+180253906+180386143
4357+180531459+180338771+180584207+181073742+180822674+180303332+180005937
4344+180046187+181201596+182767907+183249087+182746832+181826329+180944673
4330+180308486+179828315+179724224+180204600+181237908+182376419+183335305
4317+183911434+183458776+182375957+181516231+181007726+181189834+181889434
4303+182212013+182362586+183074769+183518029+182761641+182011364+182070087
4290+181801933+181113084+180956297+181389439+182288986+183028425+182623806
4276+181817803+181797927+182201039+182403041+182300285+181950536+181566701
4263+181466274+181861118+182433857+182760374+182657105+181881970+180726065
4249+180309735+181072903+181705478+181625920+181799519+181928811+181142171
4236+179701934+178540293+178586210+179743142+181145339+182182515+182633581
4222+182533856+182493607+182943817+183335921+183536775+183752935+183902497
4209+184118554+184411515+184591757+183819173+181921997+180768163+180982628
4195+181422053+182135606+183150475+183354856+182516325+181399642+180867529
4182+181468003+182470340+182613140+181929307+181201938+180734265+180727794
4168+181088191+181148300+180936249+181042806+181441604+181671186+181537340
4155+181358006+181119830+180443341+179851838+179896984+180258871+180904440
4141+181636398+181608697+180846779+180249113+180396620+180988107+181133680
4128+180685644+180348650+180640258+181320290+181563209+181259667+181049311
4114+181226026+181491458+180966158+179662574+179082970+179889297+180946898
4101+181124829+180678025+180228928+179957949+180187668+180753714+180861383
4087+180454401+180069214+179924787+180072466+180499753+180922297+181071259
4074+180934401+180519800+179954902+179607344+179658243+179866972+179625526
4060+178935410+178850032+179587879+180066800+179870670+179780464+180096674
4047+180421530+180776621+180940803+180438856+179562952+178985778+178959088
4033+179238044+179570690+179786422+179842148+179948311+180268013+180445327
4020+180049731+179490499+179138901+178952137+178874223+178847207+179498700
4006+180814576+181364152+180756248+179936446+179327241+178976174+179187968
3993+179951991+180783315+181105055+180814045+180253975+179659287+179454393
3979+179934820+180271489+179463449+178401534+178736508+179859268+180181728
3966+180005458+180305284+180860065+180681244+179519295+178579687+178819609
3952+179715390+180421205+180585765+180282857+180026464+180389824+180790625
3939+180319425+179434636+179114916+179630628+180165737+179843244+178981139
3925+178490696+178464844+178096571+177716811+178318278+179364546+179794314
3912+179599640+179021731+177684488+175763258+174825755+175737766+177672418
3898+179293257+179215480+177270419+175730901+176403913+176694546+176248376
3885+176981635+176934657+176389704+177069102+176416531+174570767+173395858
3871+173181376+175174151+176716819+176128963+176770526+178505060+178311002
3858+175234552+169765295+168433394+175215017+179986403+180166919+177920730
3844+175571957+173803747+171944989+172293231+175389318+177092231+177362063
3831+178016278+178320161+177716417+175752472+172569500+172373627+174570407
3817+175465161+178018195+180904543+180487477+177612857+175525407+175243916
3804+173819258+173631655+176733289+178428327+179347186+180955390+181662797
3790+181560743+181094474+180431802+180424680+180380973+180118109+181389233
3777+183067613+183035050+181545215+180580748+181836687+183736825+185092061
3763+185502792+184685524+185077611+187336675+187851274+184982834+183469185
3750+188438994+193082474+195567370+201669201+207922358+210050264+210730244
3736+212749265+216143039+220823019+225203140+227315414+228291181+229553300
3723+230995832+232936425+235281072+237290813+238619718+241541299+250323608
3709+262349820+272879229+281639487+290778221+302570109+314399729+323211981
3696+329354097+332641382+332365576+330271603+328968344+327188835+323107719
3682+316736022+308718353+299923632+292507602+289952719+288321300+285431939
3669+285797815+287733015+287923426+287194019+286516624+285574482+284814036
3655+284985666+283767341+280895408+281332265+286512840+291398144+294162955
3642+295975164+297857737+299548083+300759099+301688349+301934367+302176755
3628+305260344+308137464+307372739+303867444+300270488+299784924+300689967
3615+300269461+300332942+302473654+306031952+309631442+311568355+311820022
3601+312217553+313496672+314672386+315674843+316607415+316538831+315438686
3588+314927717+315216535+315013318+314679234+314717446+314871049+315095324
3574+315252932+315048962+314950760+316011905+318159910+319462689+319071629
3561+317727008+316502981+316090624+316195503+316368280+316716368+317109414
3547+317471985+317791414+317888178+317844761+317961144+318407091+318494713
3534+317939641+317683249+318026646+318603871+319009825+318444174+316829327
3520+315346100+314966785+315459779+315843922+315768353+315535176+315202804
3507+314855093+314736278+314981234+315359728+315275325+314473963+313498248
3493+313069866+312955400+312643915+312397007+312330615+312348660+312503461
3480+312450354+312042653+311613518+311378731+311305936+311142883+310746276
3466+310090264+309108762+308371703+308518218+309000597+308978306+308506850
3453+308169650+307908807+307277619+306727375+306714296+307042661+307750103
3439+308423851+308162837+307096624+306167065+305706155+305482359+305383336
3426+305218777+304779712+304425323+304654666+305235280+305612713+305538719
3412+304950503+304091034+303460291+303103403+302980001+303403589+303805674
3399+303333054+302547613+302266636+302398256+302613731+302844580+303026671
3385+303198660+303685045+304066723+303604717+302850983+302705735+303064472
3372+303289329+303165926+303051289+303097172+303183184+303226806+302944631
3358+302379732+302168537+302662798+303464332+303906204+303924968+304154995
3345+304811624+305003576+304414914+304262818+305025147+305751934+305778813
3331+305488078+305619390+306069583+306159019+305819970+305416344+304885309
3318+304070969+303284775+302820201+302615340+302565521+302746378+302962983
3304+302722684+301826099+300833914+300941258+302136933+303217321+303841456
3291+304082337+304062820+304313665+304893835+305648836+306732991+307890728
3277+308342119+308051932+308161364+308887946+309199054+308999981+309134340
3264+309495782+308911606+307867034+307872991+308311440+308404985+308725818
3250+309046171+308678155+307942465+307328124+307014002+307329493+307933494
3237+307819097+306899160+306304643+306539258+306975995+307254507+307248788
3223+306986404+306675398+306368399+306044895+305593538+305264214+305163650
3210+304948654+304905066+305104482+304592143+303329767+302131249+301257571
3196+301013300+301305507+301554949+301441099+301094004+300816040+300049260
3183+298430202+296660760+295548391+295170000+294472318+292972827+292110447
3169+292994912+294134467+293720295+292407826+291810467+291871038+291397733
3156+290309744+289575081+289887525+290303957+289190082+287022920+286426075
3142+288343111+289216002+286690377+283795195+283791018+285550017+285209256
3129+282516778+281260394+283323311+284918778+282166019+278282025+278063332
3115+280764901+280669507+276041811+272469508+273673624+276399213+274476716
3102+268718470+265789664+267966054+270495086+267926746+262861731+261580797
3088+265391876+268078277+264066823+258423779+257294085+259634743+260317600
3075+257201738+254393767+255468163+258919888+259447533+255717536+252618161
3061+253076110+255466656+255845920+253432501+251277170+250881419+251503019
3047+251419901+250142562+249085834+249070066+249316854+248807733+247629486
3034+246547403+246240472+246575977+246395239+245295025+244429684+246748514
3020+258248091+278577691+291227387+284845298+270733878+260159477+253693927
3007+248979911+245649191+243942649+242935347+241611869+240044839+239071486
2993+239192150+240740450+242502497+242105273+240406332+240001217+241728851
2980+243992263+243571585+240841459+239267872+239845183+241437825+241930596
2966+240396385+238651630+238694705+241474822+243932685+241830528+237783139
2953+236153141+237725530+240484760+240456032+237692744+235899437+236697375
2939+239233290+240014759+237373264+234621961+234315629+236457264+238581318
2926+237289341+234045078+232368958+233015229+234640314+234295410+231444792
2912+229119953+229111838+230827608+231932102+230873354+229274497+228831632
2899+229756020+231195282+231130037+229371415+227953810+227901422+228914510
2885+229815599+229488157+228599944+228415696+229210913+230112497+230009416
2872+229307950+228893709+228767636+228957653+229037108+228267349+227257034
2858+226988607+227311511+227525702+227185831+226357128+225480795+225051883
2845+225146900+225199990+224863749+224495202+224473048+224723380+224935054
2831+225024045+225130276+225292713+225379923+225191036+224757809+224400356
2818+224219977+224007464+223710120+223484630+223475967+223619332+223633730
2804+223498857+223522877+223833300+224183340+224299227+224183255+223991799
2791+223942527+224004965+223824620+223402778+223138973+223184838+223307539
2777+223310227+223144743+222883351+222850463+222996910+222838051+222430453
2764+222139872+221966992+221888701+222053261+222407118+222688198+222728002
2750+222585460+222442078+222372604+222445365+222660360+222747828+222615300
2737+222470925+222403283+222389570+222421773+222464813+222424786+222248345
2723+222065656+221937699+221819621+221797810+221781084+221595809+221355270
2710+221211152+221261742+221545116+221852064+221869287+221632634+221458659
2696+221443182+221561774+221786374+221956395+221974850+221879302+221761327
2683+221738163+221769699+221643814+221402624+221353626+221434519+221293688
2669+221020604+220930945+220915263+220749659+220468391+220173051+219933950
2656+219718800+219499935+219394560+219358180+219237140+219148680+219158165
2642+219054639+218778524+218480701+218238107+218073788+218060434+218073188
2629+217837580+217452307+217127023+216783454+216443961+216265448+216220764
2615+216170140+216022957+215815769+215632257+215454429+215287490+215179616
2602+215133426+215076621+214832144+214506569+214401194+214396674+214292583
2588+214176988+214029823+213702587+213301032+213078983+213032194+212957447
2575+212811583+212697237+212595252+212408333+212193081+212115937+212130301
2561+212000513+211706319+211355423+211010280+210814253+210740225+210588917
2548+210461337+210508383+210451493+210078683+209705942+209600721+209592572
2534+209534569+209493395+209497521+209469683+209269086+208946815+208790952
2521+208826871+208857790+208916478+209045752+209041199+208845138+208659743
2507+208562928+208521326+208489654+208399567+208313572+208315370+208399978
2494+208533755+208631324+208696637+208780766+208834746+208929301+209175644
2480+209437138+209561276+209557253+209417141+209199167+209103550+209146454
2467+209178657+209222022+209332430+209439072+209484407+209423356+209321114
2453+209416765+209764476+210132954+210309721+210314309+210350655+210466336
2440+210601706+210822009+211072751+211268401+211426403+211439620+211302744
2426+211254739+211404986+211622156+211787178+211891183+211950402+211971254
2413+211992517+212116074+212364848+212610334+212749179+212851250+212997234
2399+213132176+213490262+214850497+218329906+225301461+237156967+254714583
2386+277567924+304001050+331712063+358985278+385654184+413015089+442442711
2372+473813545+505864018+536963498+564903271+586105693+598175373+603636721
2359+602516237+588972301+564156624+535612473+508660981+492569147+496229791
2345+515103351+525191983+516787192+504058589+494442920+490574026+493990570
2332+499658455+499509510+494488254+491772236+492294882+489927738+480796023
2318+466521671+452205580+445901918+449294322+451918508+443568502+424873985
2305+403657181+387834922+378222369+370052570+360658916+349457573+335787701
2291+321225283+308236351+297022647+286997993+278474713+271730976+266409296
2278+261846143+257679974+253871498+250401488+247464858+245130261+243032110
2264+240979534+239069860+237321630+235874441+234814272+233787162+232594757
2251+231515704+230710643+229985191+229234984+228574315+227962028+227314901
2237+226760651+226396418+226164816+225998733+225832102+225701886+225781871
2224+225945301+225913611+225797845+225792554+225904486+226083684+226231328
2210+226299450+226379315+226621857+226997235+227280284+227459258+227684098
2197+227927667+228147337+228378477+228579845+228723671+228888830+229083607
2183+229231628+229350888+229488757+229600038+229645543+229668416+229653162
2170+229556963+229495913+229572697+229674066+229593635+229297370+229008740
2156+228894120+228812988+228599978+228334461+228123677+227896200+227628474
2143+227597709+227980740+228535246+229018550+229405484+229761653+230099058
2129+230360141+230604977+230917370+231244451+231568434+231890756+232130833
2116+232368393+232678115+232961232+233211803+233466381+233750337+233973053
2102+234115408+234408814+234797734+235080680+235393483+235984558+236796125
2089+237513359+238061890+238680718+239529914+240556562+241751142+243087871
2075+244478956+246039173+247876719+249936674+252238076+254810404+257442791
2062+260139310+263213894+266623401+270152767+273648474+277113331+280693749
2048+284297965+287843509+291313707+294585482+297559126+300246109+302614210
2035+304526709+306011442+307132234+307864157+308186908+308272783+308217587
2021+307746952+306841807+305659930+304277439+302847285+301368647+299768455
2008+298111184+296470006+294724772+292852780+291084604+289555804+288265967
1994+287103676+285969839+284894570+283848097+282797960+281857153+281127336
1981+280520938+279888055+279288060+278881506+278619482+278386938+278206046
1967+278123646+278138181+278216438+278395378+278736276+279151133+279545856
1954+280000569+280578975+281160669+281638888+282082352+282693236+283629472
1940+284697020+285591876+286362850+287142847+287851692+288461651+289032336
1927+289497732+289931490+290491766+290864884+290954765+291472754+292410736
1913+292894108+292856615+292939956+293373440+293804937+294085195+294350867
1900+294603767+294795170+294995682+295175068+295059130+294900460+295340586
1886+296085384+296610803+297074247+297577376+297838391+297814628+297795898
1873+297608706+296812719+296115584+296788203+298121799+298832801+298812839
1859+298458382+298062528+297740737+297563098+297469108+297152384+296122363
1846+294472660+293775867+294426230+294611299+294052770+293683452+293363099
1832+292004782+290117826+289576725+290018940+290395002+290668755+290761888
1819+290751753+290512002+289795144+288746737+287880728+287776363+288046007
1805+288130615+288051656+287580748+287062194+287103882+286692243+285517780
1792+285677991+287500899+288919411+289573301+289711701+289485714+289594324
1778+289995040+289470648+287534421+286266087+288333900+291707095+293513209
1765+293462876+292986044+293659108+294893577+295716683+296350610+296554238
1751+296102675+295911785+296962384+298562267+299318125+299123091+299593075
1738+300579131+300338078+300756257+303814337+306695052+308593307+309804939
1724+310660093+311023281+309703176+307562260+308663603+312898698+316377559
1711+318158095+318256091+317589019+317884685+318079719+317111365+317661472
1697+320345442+324532258+329038879+331590407+332855351+332745336+330868824
1684+332062685+338010109+342506151+344095797+344730545+346385693+347821634
1670+349272127+353658975+358525429+361166119+363858991+368147364+371697959
1657+372220879+369807135+371290635+378498175+382347347+385665791+392792216
1643+399393838+402934914+403835334+402903241+404701822+411511968+417075763
1630+419639925+421134314+422434492+423884094+426718756+429102232+429442376
1616+431366825+436265465+440069507+442156906+444229821+447002439+449959682
1603+453001258+456378015+460100565+464141859+468479401+472952091+477462376
1589+482267711+487516733+493221393+499449863+505645017+510236691+513430158
1576+519196451+526859252+532089819+537311688+545361064+553686246+560613254
1562+564798940+566369240+574562905+590606254+604292425+615646549+625896213
1549+635824840+644645789+651590568+656342180+662579689+677914467+693529469
1535+703609370+713752068+725844347+735793655+743914181+752114831+759506037
1522+767449952+778164601+790367751+802706903+813322187+821785323+828362635
1508+832705827+841212106+856940238+869317466+875564015+878984838+885222210
1495+893962352+900192260+903669580+907986886+915405964+923421030+930122566
1481+935230483+939140192+942483015+943813735+942891161+944681867+950174647
1468+954028954+954856819+955713925+957149421+955987301+950523283+947112457
1454+949658644+952256190+952628041+950510134+947440823+945005644+943528581
1441+942293460+937537534+927820924+921180269+920689809+919606168+915565182
1427+911519471+908952603+909041491+911880775+916247319+922864760+929689835
1414+934384950+938492979+942528829+944713368+945273267+947146835+951534882
1400+956450231+960245919+962139209+963461095+965980299+968336109+969306825
1387+969111107+968546277+968304745+968734941+970686851+974876783+979155740
1373+981312338+983440860+984995512+984514297+984244414+983854279+983289312
1360+985203214+988267116+989348360+988198977+985978144+982608681+978725954
1346+976588735+976597227+975801137+973291931+971361798+969485902+966645454
1333+963867186+961906032+960864506+960437802+961076181+962438402+963332214
1319+964383052+966156295+968066226+969825499+971442605+974118357+978857985
1306+983310472+984777880+984736655+985581571+986747389+987396245+988207401
1292+990330033+995534851+1002618304+1007257607+1009832829+1013902440+1019507529
1279+1024908271+1030083299+1035127187+1038329283+1039071684+1039295137
1267+1040684613+1042708633+1043257165+1043193067+1046529522+1051672707
1256+1052877764+1050962218+1050295831+1051472264+1053872654+1057324226
1244+1059656683+1059726602+1060608704+1062211429+1060867835+1059154924
1233+1060368131+1061674540+1061365212+1060578641+1060093454+1061318919
1221+1063849354+1064197511+1060944602+1056119100+1053148880+1054222865
1209+1057209520+1058292750+1056613874+1054623341+1054158699+1054529043
1198+1055407310+1055929545+1055000739+1054868982+1055663017+1053744526
1186+1049610817+1045719873+1042875521+1042137024+1042871344+1043203681
1175+1042592900+1042190576+1041470089+1038344417+1034872028+1033047493
1163+1032181073+1031832232+1031105171+1031416895+1034021975+1035470139
1151+1033563085+1030910685+1029930793+1030151095+1029550245+1026419985
1140+1022110760+1019716806+1020178504+1022764683+1025760926+1025852621
1128+1022509250+1019748924+1018062241+1015143039+1014433852+1017689705
1117+1018022590+1013789310+1011677155+1012282937+1012858861+1014328323
1105+1016597367+1017083375+1014391462+1012148303+1013763424+1015908107
1094+1016371996+1019113695+1024983052+1027388030+1022839670+1018737393
1082+1022938556+1032457119+1039315544+1039809428+1035573272+1033240609
1070+1034194136+1032953742+1031421347+1034604542+1041215888+1047319174
1059+1050671380+1051280449+1050373009+1049019348+1046763315+1046075220
1047+1049970205+1053374388+1052943575+1052658146+1051237511+1046003246
1036+1042324593+1042929004+1042130655+1038789064+1039328350+1044182409
1024+1045665841+1039813400+1032035894+1029532782+1031540846+1032267770
1013+1031440453+1030727773+1028908511+1026416082+1026375404+1030344965
1001+1032732481+1030063029+1030456931+1035891502+1038256967+1038216221
989+1041157816+1044257944+1043747898+1041222667+1039906602+1042155376
978+1046647377+1049295532+1049388186+1048980177+1048402130+1047564267
966+1047839149+1049394486+1050970231+1052166454+1052857357+1053568873
955+1056386654+1061156071+1063975907+1063000260+1061309263+1062653131
943+1066274809+1067666682+1065599108+1061876010+1057359630+1054759755
932+1057184593+1061326588+1061054857+1058811287+1061119023+1066843063
920+1069819172+1069107176+1069763702+1072677562+1073741823+1071869214
908+1068486809+1064936351+1062901237+1062901785+1062774958+1061249274
897+1059674694+1056887523+1053696384+1056889852+1066292614+1071010465
885+1066528325+1060641986+1059281682+1060154881+1059412617+1057794347
874+1055757795+1049665534+1040624213+1035084866+1033444202+1031879894
862+1031558308+1033742505+1034859633+1034213584+1034691375+1035167317
851+1034369652+1033996226+1033407702+1032958057+1034696648+1035867191
839+1033289504+1029949282+1028515499+1026171674+1024258798+1028007714
827+1033432218+1034018414+1033336961+1034943727+1034649054+1031703967
816+1030225397+1029013423+1025605885+1021405270+1019313865+1021678714
804+1027082880+1030346814+1028774973+1024815342+1018740475+1011211417
793+1007850994+1008300502+1006932871+1004749633+1005481556+1004668757+996931997
779+988609589+986569407+987837193+988700805+989263033+988680261+986467576
766+983989049+981649470+979325983+976845470+973587631+970685481+970372455
752+971252913+969454401+965892918+964217876+963075479+959585353+954799637
739+950019880+945586156+942239224+939265717+935957613+933575781+932095362
725+929721268+928580445+930839765+930552146+923165049+913304903+906342387
712+904830399+908574726+914733071+921261761+929208415+936653104+938361016
698+936615645+936750416+937370920+937550546+938761219+939242844+938872294
685+938428470+936489367+935556589+939394735+945602386+947865884+947621818
671+949578795+946748482+934790836+930731497+937383795+943901322+941308295
658+936424104+937107543+939718855+940504398+937400778+931397884+925948247
644+921170065+919373607+923102594+926462744+923808837+919344640+919771686
631+929599783+944909566+948202330+928580993+904839370+897012489+902798572
617+915413908+927048529+926251686+918728791+912137373+907335154+906523519
604+907164294+913516988+934784125
##END=
