##TITLE=Sample description
##JCAMP-DX=4.24
##DATA TYPE=INFRARED SPECTRUM
##DATE=12/9/2023
##SAMPLING PROCEDURE=Instrument type and / or accessory
##ORIGIN=Default
##XUNITS=1/CM
##YUNITS=ABSORBANCE
##RESOLUTION=4
##FIRSTX=4397.6552
##LASTX=599.8556
##DELTAX=-1.9287962
##MAXY=1.7585188
##MINY=0.13716385
##XFACTOR=1
##YFACTOR=1.6377483e-009
##NPOINTS=1970
##FIRSTY=0.16191079
##XYDATA=(X++(Y..Y))
4398+98861828+97932172+96423894+95465014+95470182+96178615+96995903+97269151
4382+97033525+97171505+97751493+98002222+97844517+97812808+98103271+98652652
4367+99575910+100375392+100281313+99410298+98432603+97954537+98090615+98641697
4351+99170387+99207910+99074816+99123457+99088828+99118016+99354269+99084069
4336+98495774+98662078+99043007+98535416+97816175+98092262+99002482+99747527
4321+100669021+101729832+101840880+100709337+99198256+98331090+98730826
4307+99856010+100762882+101328185+101320269+100564033+99495233+98774545
4294+98985950+99537787+99816695+100355175+101086309+101508728+101739558
4280+101990115+102042040+101580980+100900370+100356049+100003306+99935631
4266+100084438+100481509+101085244+101536142+101760412+101816651+101713901
4253+101429188+101073716+101246443+102068463+102715807+102628816+102199491
4239+101989414+101808416+101567905+101794332+102024453+101520547+101264386
4226+101889339+102487197+102665547+102685700+102764448+103032365+103165804
4212+103071625+103373151+103827197+103501277+102793700+102350191+102073203
4199+102272753+102943126+102989174+102289048+102285145+103032647+103228921
4185+102685427+102023625+101856475+102110443+102235239+102291277+102391462
4172+102400788+102504530+103148453+103872281+103539446+102550550+102141870
4158+102548849+103120120+102912245+102083029+101856057+102415163+102577755
4145+101945213+101570407+101921694+102394164+102428648+102171103+102400233
4131+103164894+103662413+103435322+102725516+102310057+102619827+103121822
4118+103196084+102961278+102809049+102932963+102967892+102519488+102241208
4104+102482848+102941889+103506327+103658228+103421410+103376755+103441345
4091+103258528+102695718+102202148+102273544+102710849+103041600+103224863
4077+103540046+103915290+104182687+104072595+103510694+103300809+103626992
4064+103720043+103544368+103515107+103560063+103587605+103699681+103921131
4050+104242037+104353113+104198328+104394202+104903585+105027025+104394484
4037+103274259+102654183+102994560+103605265+103905909+103889231+103689454
4023+103470270+103511204+103928992+104101037+103682694+103534469+103845922
4010+103907074+104022898+104548541+104720185+104235323+103794906+103658655
3996+103407863+103079968+103223025+103855812+104485297+105105255+105620052
3983+105283232+104465726+104208254+104119525+103706368+103471980+103754682
3969+104239954+104460103+104303307+103921649+103814268+104093358+104175590
3956+103993956+103718051+103199041+102623857+102793236+103068986+102306554
3942+102219617+103554486+104321413+103670565+101972609+100971649+102266775
3929+103681620+102672389+101006023+101132202+101310334+100467634+101044728
3915+103548181+105194402+105176733+104136148+100762281+95299348+92097007
3902+93174741+96850198+101433783+102947066+99623314+96964185+98843676+99153027
3887+97447292+98306533+98249430+98088677+101021427+100834570+97148859+94350131
3871+93185951+95226905+96875201+96136343+98406262+102571586+102594533+96498939
3856+86135199+83751484+95603340+104373866+105606285+102166945+97202631+92679980
3840+89199869+89958353+94858622+98086411+99531928+101481305+102680323+102405646
3825+99411845+93342574+92171233+96116736+98139674+102059482+106512330+106117843
3809+101501003+98027016+97743978+95672589+95542780+100069271+102295181
3796+103958699+107011068+108487137+108341269+107403643+106166548+105872236
3782+105289464+104257241+106010598+108888129+108935014+106140480+103686415
3769+104387733+106385960+108279581+108495226+105740698+104702525+106932329
3755+106076408+99954056+96501468+102907987+108146205+109951178+119095174
3742+129843283+133008237+131500468+131533869+137317009+147088842+154857853
3728+156815719+155134959+153814302+153630220+154165215+154413169+153034373
3715+150330625+150531557+160741513+177825691+193188457+204196230+212843216
3701+222523945+231133791+234997206+234180100+228413319+217932754+209891950
3688+210791562+212454343+208161530+199719134+189650734+177764476+168273580
3674+168414516+169115197+167041088+170523728+175705907+177034116+176404459
3661+175191329+172688713+170840776+170905686+167131127+158796204+157213089
3647+167018687+176897091+181939772+184350109+186754151+188896699+189808175
3634+189400560+186553727+183509875+187937583+194436070+194305760+187789567
3620+179897526+177074004+176643442+174482241+173830602+176076929+180373381
3607+186356380+190521576+191139605+190916927+191410506+191211411+190899603
3593+191459238+189906076+185173675+182879417+185196986+186571997+185672404
3580+184614623+184068672+183688152+183455702+182544717+179412827+175837800
3566+176639675+180347359+182458463+183042172+183338512+183181435+182168200
3553+181120045+180830456+180258975+179451751+179986491+181596901+182769343
3539+182889025+182565171+182444396+182152514+181209866+180116091+179735280
3526+179953664+180224219+180534225+180877150+181053480+181096498+180767167
3512+179695847+178841273+179083750+179151771+178396663+178405943+179429550
3499+179716428+179067554+178715913+178932168+179089573+178925835+178691220
3485+178429399+178166032+178334665+178782278+178847478+178675279+178783261
3472+179112611+179311596+179225178+178803405+178187450+177911946+178097101
3458+178391695+178822949+179346353+179620402+179208000+178207631+177892839
3445+178618886+179488290+180435069+181205190+181236089+181035411+181080321
3431+181241111+181411090+181285821+180595313+179745525+179664966+180655236
3418+181640829+181767991+181592880+181883706+182542097+183034711+183327339
3404+183739450+184222420+184473431+184685592+185270884+185787992+185898849
3391+186085952+186446255+186799862+187248985+187747605+187998653+187975943
3377+188035556+188413038+189075268+189872084+190685878+191367451+191700404
3364+191865179+192335612+193064479+193635615+194154451+194955416+195790647
3350+196301404+196721848+197342826+198010187+198598137+199232197+200028322
3337+200947241+201776229+202261274+202550681+202963064+203267594+203516603
3323+204108665+204742944+205246040+205637242+205682080+205685738+205817085
3310+205736653+205656495+205957184+206429564+206761225+207145057+207845865
3296+208732320+209738294+210712350+211521467+212381227+213102707+213810211
3283+215195159+216559125+216675059+216165394+216297960+217050975+217747962
3269+218066685+218087302+218120584+218318296+218462945+218509785+218709389
3256+218992300+219040650+218750296+218342899+218099185+218037515+217950951
3242+217762228+217702724+217501081+216959262+216689598+216411855+215801633
3229+215481654+215233118+214735208+214388625+214447020+214835547+214833309
3215+213938465+212891311+212331294+212068546+211967806+211804342+211160636
3202+210175334+209350604+208773991+208014170+207113940+206793725+206927310
3188+206680666+205886561+204772842+203546501+202487974+201771625+201291530
3175+200636325+199605075+198628908+198206643+198174107+198071566+197922986
3161+197861025+197820227+197832947+197746765+197516408+197422947+197293912
3148+196852012+196258568+195711453+195457093+195458276+195119191+194178908
3134+193066863+192289791+191926413+191730011+191552862+191240399+190591799
3121+189656102+188670509+187801705+186842589+185614264+184562470+183934687
3107+183232532+182025134+180576170+179511928+178863237+178092334+177026473
3094+175840966+174715783+173937728+173588798+173200945+172443543+171665907
3080+171166778+170738236+170255575+169965767+169903842+169786216+169585738
3067+169429825+169345172+169333799+169280554+169128717+169033765+169061734
3053+169053108+168880345+168649641+168620690+168827555+168797311+168263389
3040+167632804+167107271+166486057+165778935+165325444+165390899+165546721
3026+165292070+164869497+164546097+164322727+164271302+164288626+164118337
3013+163771736+163349963+162644515+161740682+161271942+161258003+161081017
2999+160625998+160039577+159395854+159150556+159581137+160349292+161086167
2986+161597470+161809394+161845643+162017278+162350122+162407861+162044974
2972+161495985+160962627+160646160+160530154+160300888+159896275+159519248
2959+159173830+158929880+158901947+158843753+158590139+158362384+158433917
2945+158803373+159169773+159305978+159251277+158986273+158409842+157739041
2932+157315194+157079395+156763275+156489571+156401497+156172869+155710534
2918+155151518+154475749+153961826+153910110+154227704+154673516+155059714
2905+155369356+155576785+155577422+155502231+155624516+155912213+156077661
2891+156058227+156056170+156143753+156253409+156402607+156542871+156536174
2878+156384319+156120206+155836640+155720178+155586229+155195901+154876068
2864+154819584+154701812+154405527+154105201+153805822+153386778+152866049
2851+152361088+151909462+151524739+151286220+151244139+151373530+151597682
2837+151840268+152026179+152105709+152154268+152279001+152503954+152667646
2824+152558536+152359514+152352381+152421794+152422303+152414715+152430392
2810+152475075+152550675+152589871+152645127+152914108+153376770+153674057
2797+153643212+153615280+153850823+154218442+154367804+154141887+153919900
2783+153923466+153848039+153683392+153681936+153731505+153668561+153518598
2770+153299723+153132746+153160934+153346017+153549679+153689469+153819634
2756+153993307+154168090+154262570+154294470+154355466+154344548+154222100
2743+154223646+154369169+154405690+154302149+154281459+154439555+154612883
2729+154657393+154690767+154818765+154899797+154904783+154963123+155020808
2716+155029907+155123513+155347174+155523286+155486837+155416887+155553165
2702+155767946+155848778+155761286+155633032+155676014+155945932+156279413
2689+156460420+156441149+156365285+156367760+156458946+156445480+156225549
2675+156097551+156173633+156115766+155843355+155625499+155540955+155455865
2662+155298988+155147315+155099147+155081077+154941469+154708109+154569337
2648+154633246+154725359+154596851+154317034+154064858+153829351+153598247
2635+153447466+153344870+153148014+152901534+152783252+152714267+152485920
2621+152192628+152080697+152063783+151865180+151537085+151371628+151405311
2608+151409396+151237542+150908784+150549409+150294212+150216938+150364508
2594+150550801+150442009+150105899+149880555+149847291+149859464+149820113
2581+149759717+149657094+149445543+149257521+149203640+149140114+148984028
2567+148784560+148505343+148171926+147935709+147780597+147557582+147301384
2554+147206231+147275362+147270950+147123662+146934976+146677377+146397851
2540+146285266+146334907+146381128+146365369+146323570+146248880+146117379
2527+145934334+145695151+145459598+145356047+145394061+145475375+145496010
2513+145399256+145304695+145326322+145354409+145384871+145556479+145742354
2500+145722310+145605330+145661723+145875230+146040851+146177220+146415284
2486+146714126+146950462+147133852+147319345+147434169+147454977+147440419
2473+147379213+147281831+147184786+147094346+147116429+147367149+147695343
2459+147858071+147838864+147785319+147810622+147933935+148167531+148427823
2446+148595655+148787581+149050147+149225394+149392171+149651480+149803963
2432+149801761+149844506+149982040+150151164+150330934+150493307+150653496
2419+150845885+150969189+150974776+151041204+151275647+151585981+151885497
2405+152153795+152357130+152505810+152754737+153263329+154221808+156451867
2392+161859381+173005453+192171310+220319671+256293383+297450256+341791973
2378+389023249+439735273+494281942+551023440+606695966+659066513+705454934
2365+739902616+757782172+761518407+753999352+727950229+682533535+628095648
2351+577220360+549228184+556119001+591303557+620071586+619455286+607094956
2338+597388606+592099827+591094072+592797651+591831675+585669325+576105167
2324+563281065+546318863+526300052+503421052+479988786+464459681+459515192
2311+454057508+436504227+407688412+377629551+355153946+339756041+326004250
2297+311660906+296263803+279165286+261583780+245494895+231311122+219079646
2284+209691982+203505612+199599234+196687456+194041647+191536102+189286282
2270+187436852+185945161+184584998+183212952+181877665+180611290+179314781
2257+177967847+176687970+175519951+174354552+173132942+171990872+171098284
2243+170426901+169825795+169224325+168674990+168252853+167859850+167470231
2230+167256706+167227681+167261091+167184663+166943770+166754010+166685843
2216+166648685+166669666+166734866+166753537+166777411+166940148+167224442
2203+167474962+167608238+167693309+167777235+167848131+167905997+167943866
2189+168012687+168137993+168275436+168440757+168622255+168736114+168792052
2176+168890863+169053745+169237009+169445675+169678653+169861752+169936506
2162+169897182+169783978+169801247+170050984+170291569+170429667+170585234
2149+170721021+170813645+170929742+171065584+171178533+171277380+171431983
2135+171658119+171900250+172095669+172227871+172368535+172512420+172592887
2122+172695337+172892776+173101424+173302394+173597023+173981347+174331587
2108+174592625+174847021+175226376+175719137+176194555+176621405+177134164
2095+177863705+178710418+179577966+180596514+181858703+183357547+185081361
2081+187044195+189215331+191345178+193258170+195126251+197050416+198835191
2068+200412591+202057466+203949677+205932072+207920200+209931383+211846377
2054+213659612+215502690+217383346+219176145+220746813+222034788+223110729
2041+224194769+225343281+226323233+226955256+227290101+227538037+227759678
2027+227751999+227400794+226790918+225933796+224783101+223599104+222708173
2014+221925659+220927383+219784203+218695195+217669041+216618975+215581211
2000+214707621+214030524+213288718+212182405+211205638+211145878+211654525
1987+212069092+212287002+212434545+212715072+213136062+213615411+214192824
1973+214877146+215431558+215660787+216098592+217295272+218829035+220216912
1960+221499210+222719473+223961737+225390430+226905068+228269799+229378532
1946+230089585+230521839+231761992+234230324+236602084+238135010+239142694
1933+239974176+240791136+241540167+241795090+241234564+240710723+240624214
1919+240308712+240589585+241767194+242177285+241410931+240601286+240469284
1906+240559323+240292153+239765400+239099076+238131079+237148998+236562286
1892+235666096+234563313+234862692+236116347+236961422+237509575+238012361
1879+238558421+239267909+239946243+239666244+237826423+236744203+239260594
1865+243313150+245985089+247207154+247978276+248889534+249839424+250513955
1852+250708974+250113127+248297908+245673027+245145928+247569550+249078147
1838+248557636+247756434+246700619+243778469+240142208+238848847+238890355
1825+239038461+239897293+240275884+239505145+238482484+237319105+235377053
1811+233547913+233315791+233845709+233462332+231672262+229658804+229388558
1798+230246498+229482383+226878955+226642520+230389273+233427776+233937714
1784+233564946+233202732+233453434+234333247+233594407+230171908+227466650
1771+229606505+234236402+237882525+238876343+237828716+237934823+239249293
1757+240332732+241350079+240409015+237288425+236269604+238874596+241827536
1744+243193849+243399786+244183628+244834485+242542174+241013159+245555564
1730+251207757+255452748+258030317+258868241+258259092+254589931+248808265
1717+248401523+255110132+261825893+265322982+265162774+263047649+262104637
1703+260868215+257531370+257230699+261491685+268633259+276272378+279672986
1690+279807845+277672666+272628730+272408982+281312748+288908613+291566741
1676+291817315+293277617+294705000+296147942+302396418+309714177+312949627
1663+315805012+321789285+326803432+326288671+320657059+322294473+334405830
1649+340223817+344390633+356115992+368557735+375948864+378392230+377502863
1636+381743486+394762115+405249014+410517775+414283562+417814680+421187991
1622+426142124+429576979+428575190+428610274+433062821+436150584+436231488
1609+435996417+437013601+438371653+439891295+442476707+445809985+449017776
1595+452583977+457242079+462363771+467354262+472662329+478884111+486189059
1582+493903296+499474785+502315321+508547220+518675453+525166225+530218076
1568+539449300+550111618+558655827+562259369+560266637+567382990+588484640
1555+606784258+621241880+633508713+644581522+652878760+657186239+659201899
1541+664583592+682768059+702714082+714782711+725287625+738136038+748401259
1528+755447771+762456651+769098677+776621518+787343486+798551100+810246325
1514+822467228+831648336+834765578+833852300+844007246+866929446+882776965
1501+889615229+892164356+896603947+904501867+910121359+911910429+914851085
1487+922850982+932080130+938955080+943659912+946932557+948645417+948402449
1474+947690213+951906707+960132320+963937486+962033266+960780284+960871488
1460+956901019+950028326+951452871+959608461+964359223+963908662+959416227
1447+956163817+956271326+955631296+950844941+942690005+934509229+929543887
1433+926705134+923081794+920161591+919475413+919242563+919634165+920525170
1420+921630463+925648245+932056693+937584545+941220550+943747841+946367209
1406+948990798+951169796+953890049+956729602+959315633+963394630+969494454
1393+974603481+975140369+972641684+971515428+973134463+975959968+978618351
1379+980767359+982243074+983205265+985417600+989429413+993043145+994285354
1366+993221841+991252911+990206867+990151402+989765550+989786440+990793324
1352+990629841+988671684+987640926+988224326+987611810+983748486+977226124
1339+970089791+964936509+963604697+965156185+966777840+967607120+969162757
1325+971605613+973427946+974442545+975231719+976076939+976995676+977688550
1312+978902881+981655234+985439291+988813622+991662710+994726088+996656295
1298+997206430+998562117+1000573555+1002320480+1004172802+1006457998+1010128724
1285+1015787522+1022917960+1030290855+1036240226+1039536309+1040494060
1273+1041596079+1043882658+1045943665+1048726734+1053055250+1055492647
1261+1054616054+1053633992+1054388954+1057150769+1061328904+1064105932
1250+1064352030+1064262427+1065514026+1067678611+1069791371+1071842697
1238+1073073406+1072757722+1072761289+1073741823+1073371402+1071047410
1227+1069701186+1070653697+1070190325+1066159733+1062983969+1063536725
1215+1064277494+1063465320+1063885746+1066649236+1069202585+1068753407
1204+1066697349+1064072595+1059618592+1056236691+1056183774+1056651658
1192+1056201389+1056181153+1056281674+1054832236+1052725736+1051931832
1180+1051501724+1049654279+1046626203+1043593978+1041938258+1041493593
1169+1040223287+1037164204+1032896175+1029236805+1027412724+1027182858
1157+1028007406+1026764251+1021775980+1017099390+1015603586+1017465080
1146+1021497564+1022856235+1019964419+1017734616+1018062164+1017398187
1134+1013440893+1009605447+1009682894+1011291739+1009846668+1006443368
1123+1005186528+1004570883+1002182909+1001053231+1002272439+1002727440
1111+1001525119+1001108551+1002230149+1003079300+1002136398+1000292810
1099+1000111493+1000746282+1000759603+1001385220+1002217921+1003497179
1088+1006979601+1010358372+1010082794+1008528031+1010733160+1016596640
1076+1020592657+1022376559+1027663845+1033524923+1033251820+1029981067
1065+1029202012+1030565559+1032230015+1034403699+1035352497+1034740054
1053+1036157757+1038828077+1040080694+1042301909+1044770678+1042989906
1042+1039861528+1039062165+1039360379+1039531287+1037317205+1033309905
1030+1030557043+1029517841+1030057714+1030333728+1027091508+1021976658
1018+1021017233+1025054085+1028816961+1028958316+1026971698+1025484483
1007+1023975941+1022889718+1025369041+1030275060+1031940462+1028908965
995+1026621877+1027250697+1027943862+1029181413+1031940535+1034311767
984+1037090178+1041710066+1045104923+1045536777+1044711064+1043594270
972+1044260503+1046891808+1047523394+1046754456+1048707081+1052402337
961+1055219107+1056341798+1054870159+1053226303+1054149480+1054928827
949+1054867975+1057865334+1061782158+1059768754+1054305466+1053983522
937+1058700000+1061747802+1061898838+1062063850+1062303033+1061272929
926+1058530403+1055498470+1055067780+1056893025+1057120562+1054539554
914+1050827630+1047844246+1048117130+1051365610+1053267428+1051872291
903+1049386126+1047699543+1048159421+1051872218+1055579702+1055576863
891+1054040879+1053050228+1050684673+1046035015+1041126447+1038162353
880+1036942854+1033982180+1028721753+1024991050+1022307919+1019228746
868+1017828513+1019306630+1023246309+1026879767+1027406901+1023876002
856+1018596359+1017616625+1020182276+1020682187+1019447839+1017173343
845+1013120769+1010558758+1011845296+1013514846+1012222122+1010124356
833+1009867777+1010740730+1010927287+1010278013+1009092725+1005945057
822+1003254284+1005618382+1011002332+1014472670+1014149708+1011685743
810+1009693812+1009067685+1009232115+1007356136+1003724643+1002077075
799+1001634375+1000252776+998146276+995738722+993273084+991429205+990551593
785+988719433+984289014+978838609+975400006+975170722+975725734+974873818
772+972974910+969562948+965599176+963734188+962500277+960045993+956940179
758+951671964+944488173+940289439+940861484+941482953+939567086+937916024
745+936783652+934366855+931132278+927828480+924707162+921954955+920796525
731+921045025+918260937+911776134+905230771+899653495+895998710+893548139
718+890275931+887884755+887659183+888849348+891227131+894766255+898311348
704+901412066+904872287+907244466+906867275+905439601+906702482+911380019
691+915215028+916215142+917016617+919235284+921594142+922012021+921010742
677+920751032+920810719+921765049+925833928+927319469+919028201+913102632
664+914415082+917095592+917956171+918746800+919434870+918313636+917439373
650+916394639+913392258+909189448+904321497+900177209+898870727+901012676
637+903283823+902497052+904151099+917669748+930580614+916209392+889512233
623+876920182+874034407+876219883+886385384+893985525+890110701+883084133
609+879418284+875736640+872808867+875588734+879095685+874547494
##END=
