##TITLE=Sample description
##JCAMP-DX=4.24
##DATA TYPE=INFRARED SPECTRUM
##DATE=12/9/2023
##SAMPLING PROCEDURE=Instrument type and / or accessory
##ORIGIN=Default
##XUNITS=1/CM
##YUNITS=ABSORBANCE
##RESOLUTION=4
##FIRSTX=4397.6552
##LASTX=599.8556
##DELTAX=-1.9287962
##MAXY=1.9703103
##MINY=0.33496824
##XFACTOR=1
##YFACTOR=1.8349945e-009
##NPOINTS=1970
##FIRSTY=0.3486748
##XYDATA=(X++(Y..Y))
4398+190014088+189704565+188910732+187980605+187838658+188190748+187943478
4384+187521339+187770429+188155132+188389962+188490445+188401136+188803736
4371+189501843+189350590+188661854+188541605+188738268+188482097+188072789
4357+187674346+186843744+186259991+186788784+187865813+188712120+188884357
4344+188394201+188393356+189536762+190506696+190323383+190042802+190079198
4330+189739158+189507170+189686326+189701414+189419355+188938748+188586105
4317+188624775+188861360+188907533+188631710+188564440+189114997+190087920
4303+191083353+191696974+191912997+191524639+189966761+188139686+187455546
4290+187830976+188976606+190531984+191966267+193428567+194090180+192843108
4276+191052186+190231134+189691637+188965985+188603029+188717204+189200392
4263+189792332+190018326+189760012+189373636+189392378+189754409+189862152
4249+189792315+189927652+190002199+189967524+190016881+190036322+189909657
4236+189408896+188828552+188746860+189138741+189836475+190707323+191726191
4222+192384541+192073572+191313294+190715541+190416509+190538431+191253592
4209+192187276+192402714+191940022+191405901+191145085+191352841+191485401
4195+191307626+191342674+191420404+191207175+190960115+190663309+190347371
4182+190458541+190633523+190354322+190372399+190894306+190711318+189763098
4168+189370469+189776058+189914416+189239907+188735475+189450586+190763111
4155+191447218+191376163+191243165+191643541+192474467+192680470+191965325
4141+191772673+192236292+191697493+190532974+190748331+192200561+192977925
4128+192530987+192122539+192703581+193516642+193408574+192589763+191742806
4114+191166442+191279772+192018905+192668354+192843693+192573148+192191060
4101+192061651+192161063+192457853+192692261+192399791+191844102+191463134
4087+191227427+191380613+191946599+192063081+191599625+191516389+192164717
4074+192806094+192513479+191738470+191514505+191684825+192152991+192860713
4060+193095153+192987345+192861720+192413206+192023257+192112502+192030988
4047+191525841+191315357+191750245+192619744+193225082+192756478+191803434
4033+191624782+192074953+192126258+191699848+191636654+192119177+192714901
4020+193258506+193247560+192525400+192116075+192439257+193079806+193680596
4006+193558512+192798851+192385629+192341437+192077421+191609727+191471888
3993+191860229+192213895+192505780+193105580+193413609+193040941+192553058
3979+192270414+192079403+191967664+192126291+192585313+192985559+193157600
3966+193247869+193321359+193415265+193188247+192324432+191601638+191868561
3952+192589113+192747156+192375819+191820146+191256028+191337883+191862682
3939+191986747+191640032+191237318+191458360+192337474+192623090+191580363
3925+190726649+191234492+191211706+190184327+190583517+192610860+193564651
3912+192498326+190733032+188705510+186531867+186164688+187987118+190071191
3898+191519053+191294308+189020116+187640273+189390819+190401389+189461890
3885+189182852+188657956+188658378+190736816+191002310+188917537+187264324
3871+187075700+188733948+189635556+189094468+190240196+192397127+192402065
3858+189040336+183348059+182544547+189328648+193434852+193169992+190923898
3844+188783337+187241018+185804590+186352240+189275410+190931823+190889872
3831+190981911+191210179+191078789+189543908+186565339+186516730+188651898
3817+189342356+191558941+194095605+193582809+190935348+189350363+189142574
3804+187389900+187269862+190466824+191938950+192472616+193622632+193968177
3790+193489081+192932434+192933457+193565236+193313824+192446939+193241632
3777+194610967+194197599+192083155+190388802+191045040+192856182+194278447
3763+193832207+191280211+189928952+190592108+189224965+184777503+182720861
3750+186383943+187764907+186164136+188746178+192365636+191462501+188143795
3736+186585868+188305248+191446179+193574493+193650112+193015767+193184268
3723+194120032+195796551+197712660+198599164+197436853+195580269+197460240
3709+202723379+206708928+208068990+209341106+213901947+219878898+223840069
3696+225124658+223789932+220943973+219963173+222495533+224312441+222811634
3682+219171452+215043339+210693973+208418985+210202599+210204710+208643177
3669+210752928+213625475+214371168+214264724+213749248+212239606+211267803
3655+211796565+210131690+205709954+205196817+210819663+215467053+216849170
3642+216888814+217196031+217621288+217595546+216775062+214561076+212707950
3628+215593831+219418381+219622971+217487997+215837577+216711738+218198545
3615+218701564+219354473+219835014+220050517+221351218+222465877+222018841
3601+221176123+220882094+220782845+221077815+221972164+222033084+220658860
3588+220630601+223090542+225164741+225809902+225444624+224738900+224479383
3574+224772145+224963611+224339044+223627684+224438374+225753432+226150088
3561+226226405+226656616+227143930+227038574+226743652+226918503+226817727
3547+226689066+227660754+228834742+229211584+229300764+229628915+229868163
3534+229603920+229074525+228555346+228265443+228433002+228825663+228963241
3520+228655570+228397044+228604475+228606912+228063842+227940734+228558416
3507+228911984+228719105+228875556+229481706+229531728+228899381+228497609
3493+228588153+228588283+228315027+228094879+228098565+228403021+228847735
3480+228838071+228334191+228045295+228351861+228893908+229094242+228946773
3466+228800976+228627505+228407390+228280920+228332648+228685161+229203317
3453+229556480+229426389+228997153+229145077+229831750+230165294+230256179
3439+230709451+231383165+231731552+231663080+231528019+231556473+231826888
3426+232179790+232207936+232121420+232508494+233124226+233573098+233972759
3412+234342049+234648876+234909756+235111146+235367398+235804413+236358998
3399+236831370+237064820+237030632+237013368+237240873+237532596+237927043
3385+238568112+239283613+239864704+240226588+240481541+240770291+241087447
3372+241404051+241834148+242465423+242897501+242828265+242826755+243269698
3358+243609917+243715240+244059340+244504493+244830695+245217802+245672861
3345+246215833+246951604+247866464+248739716+249216083+249269582+249120115
3331+249094746+249414891+249690193+249806155+250245135+250757347+250819892
3318+250657627+250541471+250557046+250748886+250908097+250837741+250472300
3304+249870859+249432740+249690794+250566742+251522644+252544794+253825599
3291+255095149+256022093+256899697+258432483+260504084+261994464+262232283
3277+262025875+262607712+264083021+265399849+265523330+265160325+265631382
3264+266275439+266285557+266464599+267024137+267128259+266700030+266541923
3250+266939878+266987318+266305111+266064987+266597694+267063343+267139774
3237+266685120+266011635+265935269+266429534+266755737+266595453+266273327
3223+266085775+265958120+265714422+265486755+265581733+265742227+265364362
3210+264604441+264261023+264312962+264060543+263720146+263708793+263513770
3196+263091242+262998635+262871337+262279496+261724813+261357164+260655678
3183+259679913+259066990+258998339+258861589+258091859+257321511+257351216
3169+257711362+257774816+257654210+257566735+257310418+256705259+256237483
3156+256298095+256595485+256748444+256643738+256317990+255997813+255919563
3142+255899035+255864587+255781530+255260873+254651410+254520312+254457313
3129+254182578+253888566+253427383+252689567+251900509+251277939+250767612
3115+250046133+249178485+248467206+247773565+246940365+245900918+244606828
3102+243493322+242920888+242334438+241157917+239820642+239021515+238735606
3088+238555314+238472484+238516027+238399789+238087181+237573134+236688026
3075+235837204+235611485+235759978+235907820+236222605+236526606+236223109
3061+235332252+234822054+235202226+235732027+235895428+235814044+235622318
3047+235385247+235166983+235224834+235496157+235558994+235310181+234889926
3034+234479140+234218551+234030268+233741128+233396931+233048738+232605843
3020+232220880+232173391+232493893+232913807+233067155+232737250+232012312
3007+231277565+230761049+230414724+230316758+230413896+230295839+230016119
2993+230071794+230396762+230802464+231546615+232594442+233398522+233589599
2980+233441886+233406838+233459134+233353047+233038197+232650766+232388472
2966+232253574+232078901+231795185+231428786+231216677+231412220+231670096
2953+231483112+231108382+231128878+231472393+231527889+231135277+230953783
2939+231297168+231555970+231395053+231128163+230969488+230826192+230713431
2926+230779759+230704336+230119721+229270734+228612434+228406789+228415673
2912+228285354+228258524+228509400+228758798+228947422+229063075+228957833
2899+228749281+228566374+228447814+228521110+228783176+229107771+229429296
2885+229707571+229913475+230156085+230514250+230765711+230729915+230644357
2872+230687299+230676238+230677327+230880032+231070475+231045707+230858918
2858+230647963+230441717+230090520+229633008+229308462+229133172+228973749
2845+228910360+229105919+229462964+229716325+229829395+229983491+230178790
2831+230284942+230355834+230480273+230514363+230359683+230251972+230397509
2818+230648807+230780961+230776722+230658649+230449724+230295401+230389323
2804+230890637+231615364+232103880+232275093+232396479+232575602+232759419
2791+232856476+232720180+232511710+232603066+232893034+233037564+233016808
2777+233075503+233322823+233524277+233472371+233190994+232849849+232756219
2764+232972583+233151235+233122001+233092849+233191497+233300816+233382395
2750+233600367+233883952+233989503+234069150+234273122+234316680+234139197
2737+234108989+234314748+234510924+234648827+234816679+234941751+234910747
2723+234790482+234737406+234855349+235105348+235283334+235402868+235658731
2710+235936795+236082250+236227331+236476064+236760510+236971953+237020417
2696+236961884+236904455+236896302+237161990+237761920+238248731+238266125
2683+238010360+237964560+238193755+238346015+238423745+238523335+238437469
2669+238228381+238193511+238273921+238178033+237894642+237701227+237744152
2656+237902893+237937503+237776034+237677109+237771616+237864434+237824854
2642+237699424+237641444+237718248+237795620+237750486+237517427+237125042
2629+236806245+236750214+236802510+236705226+236497681+236381086+236410970
2615+236426512+236355506+236428364+236602241+236479816+236009116+235491123
2602+235209989+235204857+235300095+235431014+235562551+235587887+235551637
2588+235500770+235379546+235248724+235191832+235162890+235065801+234848397
2575+234623783+234546151+234507675+234340214+234196886+234169779+233981902
2561+233620067+233379293+233261675+233160623+233113718+233125802+233103714
2548+232947004+232664993+232359953+232139594+232048968+232045152+232021618
2534+231892112+231732056+231636591+231479085+231156829+230878343+230791972
2521+230729379+230625436+230554170+230461093+230340827+230280378+230310018
2507+230397590+230454385+230414172+230321955+230246288+230221926+230309450
2494+230449383+230492714+230469587+230468515+230565182+230816594+231125418
2480+231335757+231307124+231077150+230911751+230960831+231089526+231099481
2467+231105621+231307676+231541223+231604677+231531738+231440122+231406763
2453+231418733+231531495+231812043+232108801+232270903+232379296+232558955
2440+232750032+232861429+232958843+233027332+233012260+233054308+233205546
2426+233347671+233461213+233593221+233749606+233924571+234099764+234279147
2413+234479221+234631563+234675722+234688471+234808006+235059288+235321338
2399+235558003+235872122+236220640+236387225+236377935+236435055+236496187
2386+236153158+235081652+233089097+230139162+226508075+222620979+218748664
2372+214823337+210770046+206777368+202866203+199443701+197508574+197361202
2359+198668286+201318703+205390443+210992647+216849803+219869283+218351504
2345+214120114+211081973+210485291+211199526+212408237+213573065+214398502
2332+215102765+216419788+218597313+220793742+222336078+223868929+226190626
2318+228853224+230990780+232460323+233697862+235117886+236764148+238419246
2305+239935840+241219065+242185621+242938510+243633158+244273934+244844890
2291+245426337+246062745+246674092+247154715+247422433+247503232+247593419
2278+247785308+247953484+248047959+248167282+248350287+248514387+248650666
2264+248813337+248920479+248973782+249162407+249542627+249957278+250189932
2251+250248920+250419549+250756746+251015207+251113969+251137015+251155092
2237+251209012+251322911+251524382+251763743+251986295+252189666+252322794
2224+252328478+252252048+252291416+252496655+252626860+252600176+252594248
2210+252767248+253034008+253147663+253162897+253279979+253436868+253565368
2197+253692178+253788569+253879243+254033030+254257677+254498273+254624677
2183+254609849+254643046+254850883+255111049+255199937+255128687+255136028
2170+255299819+255559271+255806071+255925426+255994614+256082998+256194704
2156+256347679+256446717+256527760+256706298+256882547+256988682+257083498
2143+257189195+257268029+257276150+257313488+257529722+257838952+258038880
2129+258133127+258250047+258368526+258415040+258457576+258563760+258696515
2116+258826362+258907941+258893308+258906187+259059861+259243255+259351518
2102+259382555+259366330+259410149+259597392+259836688+259997151+260071713
2089+260049967+259944334+259926729+260087516+260291894+260417291+260437512
2075+260377582+260406881+260600605+260743007+260761895+260827282+260965087
2062+261048453+261056801+261067049+261135586+261308002+261526997+261665761
2048+261709937+261718447+261702417+261642601+261604824+261670211+261813798
2035+261947365+262027531+262104417+262217714+262371144+262533799+262658823
2021+262732525+262726077+262741896+263009582+263452265+263721380+263757581
2008+263802358+263948431+264126254+264329187+264569929+264763490+264805473
1994+264709586+264704990+265032134+265562942+266003660+266259457+266428365
1981+266594235+266827311+267148300+267416733+267597854+267620672+267381701
1967+267246867+267566378+268065419+268383387+268571313+268816407+269089452
1954+269260568+269395158+269640220+269868944+269839775+269639035+269779829
1940+270414125+271027957+271433822+271749451+271991704+272237935+272526214
1927+272656046+272550933+272622589+272872215+272977067+273442472+274358405
1913+274944351+275133040+275447273+276025391+276626052+277114714+277476890
1900+277684906+277770302+278015055+278530093+278735835+278659729+279164210
1886+280063870+280775749+281394178+282002569+282553435+283003476+283287727
1873+283104040+282298774+281955665+283181088+284927266+286043159+286621245
1859+287087429+287700336+288446744+289173078+289708320+289837404+289418384
1846+288830748+289488253+291468887+292928442+293622716+294310917+294782818
1832+294346745+293848565+294675984+296077915+297534742+299192990+300454826
1819+301270844+302007020+302508870+302561394+302775419+303838593+305167245
1805+305910470+306019285+306091493+306892894+308119129+308495663+308083301
1792+309011643+311630844+313659454+314680013+315422068+316022502+316832023
1778+317856674+317972278+316875354+316353203+318163630+321037492+323353050
1765+324279670+324387088+325315722+326791810+328026751+329030126+329085118
1751+328301680+328490044+330305864+332343374+333583025+334138178+334994019
1738+335855219+335469558+335767712+338742496+341848476+344263624+345928954
1724+346836441+347038903+345796524+343881049+344851779+348944698+352738911
1711+354982521+355484111+355064343+355160198+354997690+354008542+354657829
1697+357432328+361792542+366210705+368329746+368984132+368510899+366736657
1684+367818021+373089784+377129172+378701537+379359074+380701953+381704256
1670+382659623+386210089+390041753+391668754+393377837+396698069+399087427
1657+398357617+395170626+396124044+402048211+404433995+406184428+411745315
1643+417321663+420122472+420445703+419410593+421321942+427676304+432671253
1630+435163092+437058233+439172044+441946218+446208109+450045003+452579426
1616+457010582+463525990+468954642+473433546+478000315+482882909+488009930
1603+493482010+499092952+504474537+509722847+515262425+521134783+526902354
1589+532511639+538445161+545033654+552143291+559280864+565019882+569339429
1576+575832685+583928871+589596494+594776624+602300669+610599285+618211162
1562+623152483+624821223+631652034+645434943+657568341+668364707+678447050
1549+687825893+695287508+700693519+705097649+711045594+723830975+736825281
1535+745007155+752658596+761856903+769847717+776793450+783536363+789141295
1522+795849258+805653813+814916825+822575087+830097378+837134190+842687930
1508+846510695+853983483+867475676+878496754+885129033+888277208+890895402
1495+895695166+900513315+904322371+909153188+916154920+923038871+928392066
1481+932756763+936037854+937739077+938147833+938702174+941514287+946272799
1468+950196582+951673873+951661984+951270898+948260644+942358369+942694560
1454+948603201+950702915+949540832+947075823+944694099+943260530+941369741
1441+938282569+932688810+924222912+919371761+917999518+914486764+911727922
1427+911988364+911962313+911834333+913630339+917883037+924610879+932619623
1414+940463943+946540842+949517055+949076856+946822072+946970061+951311306
1400+956815544+960044079+959504420+959118466+962994307+967657450+968763274
1387+966077971+964898218+969294163+975664960+979250410+980850028+983638624
1373+987608792+990138506+992009805+994670291+994309024+988824341+983855020
1360+983164644+984537341+985371809+984227851+983324781+984527986+985135144
1346+984025747+982471994+979510527+974117509+968489904+965743599+964346670
1333+961775705+960491099+962454063+965438072+967446316+968564028+968394016
1319+966994943+968006374+971586756+973208982+974239512+978090406+982185046
1306+984158404+985555203+987204844+988304756+988248822+988012871+988931532
1292+991367697+997559063+1006548315+1011824202+1013805096+1017709326+1023278658
1279+1027699419+1029832070+1030658092+1031385953+1032853758+1035219177
1267+1037407242+1039640653+1041466932+1042007565+1044647393+1050382709
1256+1053801849+1052641391+1052238806+1055762280+1058406785+1057992507
1244+1059100605+1061907066+1062593999+1062150358+1064094742+1067493289
1233+1067767568+1065003399+1064086556+1065371747+1065230449+1064124300
1221+1064706511+1065286448+1063701707+1061818000+1061482654+1062850674
1209+1064501809+1063939542+1062501750+1063475566+1065644272+1066587295
1198+1066442490+1065747501+1065730155+1066285860+1064328743+1059394958
1186+1055217813+1055340856+1059750898+1063059209+1060721141+1056949179
1175+1056933458+1057867386+1054216387+1046980329+1042448024+1042667993
1163+1044938758+1048450993+1050665109+1047121172+1041792403+1039686388
1151+1037715173+1033526335+1029344382+1027291703+1027274487+1028238234
1140+1030361465+1033677117+1035957367+1033225225+1026762373+1024182702
1128+1026442098+1026851894+1024106109+1022314716+1021625184+1019747259
1117+1017492410+1015740840+1013194431+1008871896+1004950580+1005960387
1105+1010242449+1011324561+1009537716+1007524859+1005956879+1007072577
1094+1010431496+1012766965+1012727662+1013613062+1018961969+1023049463
1082+1019167452+1014138753+1017744796+1029350424+1041429317+1044345568
1070+1035644693+1028981751+1032528287+1038307584+1040153742+1041275871
1059+1047799010+1058363194+1062222728+1055478970+1046225768+1041989050
1047+1042233771+1041094491+1034749289+1028044640+1028528040+1033462345
1036+1036139917+1034658079+1027551041+1018582772+1017375539+1026090056
1024+1034634302+1033893059+1029207632+1028132407+1027936214+1024904781
1013+1021312121+1019600764+1019368841+1019890245+1023156460+1028976424
1001+1032429866+1031711425+1030256742+1031432533+1032495545+1029489968
989+1025830978+1024746723+1025598406+1027595541+1030797571+1036791250
978+1043761084+1047787512+1050685248+1053340927+1052996291+1052732341
966+1055738633+1057514564+1055213006+1052512501+1051742933+1052369710
955+1055351185+1060940331+1065107407+1063842940+1061367472+1063437887
943+1065618676+1063794087+1061434450+1059594009+1058306025+1059473305
932+1062339664+1063290677+1060402231+1056210989+1054521005+1054570768
920+1052308123+1050136169+1052839402+1056810155+1058111327+1058540222
908+1058760581+1058516965+1058960866+1060685411+1061829628+1059568413
897+1056794434+1060068834+1068732484+1073741823+1069832266+1061488111
885+1055712517+1054495214+1051490611+1045645766+1045714563+1047495627
874+1042821049+1041171019+1047236419+1049301507+1044671625+1042591400
862+1043326277+1041724256+1039105801+1038642345+1038189543+1035246397
851+1034200145+1036874469+1037398602+1034103933+1030523746+1027380314
839+1023580092+1021035697+1023558524+1029536677+1032609687+1031562981
827+1029951410+1028926726+1028113372+1028635686+1031364255+1033420248
816+1031856425+1029451704+1028880537+1028064259+1025980591+1022319524
804+1016133485+1012186898+1015062807+1019917141+1020113203+1017868943
793+1017843542+1018283806+1016971136+1014131802+1010321836+1007232844
781+1002559696+996855953+997402953+1000971577+998331424+993414595+993792168
768+997515277+997800145+992074964+985208034+982316534+980697167+972697972
754+960328818+955948139+961597442+966755874+965158660+958851333+953805549
741+954340336+957494422+958122497+955772346+952012532+948640231+948847012
727+950617422+947138189+938233066+928998509+922256700+917516898+913829714
714+912875647+915340786+918930263+922674356+924198095+922466794+923312371
700+928665176+934633259+937335583+935921698+935872260+937015893+933933528
687+930612679+932086201+934820812+933040463+927915942+925124163+926029246
673+927118114+922887569+914468704+917518522+932157337+939522999+936852768
660+931574931+928492631+926890284+924966559+920502141+914342608+911806334
646+916669178+926139686+931901507+930705123+925577679+914247955+895870050
633+888004032+910812249+944872361+953072426+958248853+976296804+976896165
619+961003668+942450034+924705077+919466479+921118523+917254247+909184241
606+897663132+889081532+887567732+888429029
##END=
