##TITLE=Sample description
##JCAMP-DX=4.24
##DATA TYPE=INFRARED SPECTRUM
##DATE=12/9/2023
##SAMPLING PROCEDURE=Instrument type and / or accessory
##ORIGIN=Default
##XUNITS=1/CM
##YUNITS=ABSORBANCE
##RESOLUTION=4
##FIRSTX=4397.6552
##LASTX=599.8556
##DELTAX=-1.9287962
##MAXY=1.8087443
##MINY=0.18359604
##XFACTOR=1
##YFACTOR=1.6845244e-009
##NPOINTS=1970
##FIRSTY=0.20904103
##XYDATA=(X++(Y..Y))
4398+124094984+124893089+124563039+123614279+123144074+123832817+124714852
4384+124636539+124091481+124149404+124906464+125373192+125435405+125446100
4371+124797270+124231441+124813980+125248296+124681698+124117045+124266656
4357+124759073+124904845+124629587+124313239+124443911+125142561+125529287
4344+125064346+124664555+124830318+124817297+124728510+125269580+125834993
4330+125549712+124852114+124671782+124998974+125414759+125822945+126193403
4317+126497809+126316972+125605592+125081294+125024760+125473301+126192023
4303+126628215+126881500+127169682+127046176+126408341+125999430+125998545
4290+126087597+126422742+126805142+126935522+127108663+127256877+126843065
4276+125756141+124723681+124855281+125996316+126608020+126338697+125977580
4263+125687824+125741748+126400990+127030182+126852565+125838770+125073183
4249+125664576+126785089+126594158+125531534+125469374+126220525+126552282
4236+126375001+126131358+126086244+126505717+127410283+128093028+128181691
4222+128105651+128103210+128498932+129521334+130018819+128899271+127448444
4209+127073722+127407257+128031558+128489644+128402927+128221135+128160549
4195+128168431+128386040+128651665+128552618+128166378+127990787+128162663
4182+128292831+128034742+127513753+127148523+127306794+127545581+127296958
4168+127307298+127835240+127828004+127116695+126440664+126249743+126907339
4155+128167900+128967456+129180793+129417155+129531542+129222165+128752394
4141+128500904+128601146+129145515+129702118+129480554+128742946+128212846
4128+127883663+127525624+127319692+127625840+128378981+128967199+128895671
4114+128493996+128315379+128265152+127989044+127572879+127696156+128582349
4101+129102206+128532732+127793461+127557125+127661409+128084368+128609727
4087+128795013+128594565+128479533+128779993+129040647+128770722+128515978
4074+129001212+129523138+129271959+128844046+128608028+128336556+128101184
4060+127935173+128056512+128662749+128965651+128516234+128298819+128545045
4047+128587762+128629064+128974603+129568014+130005029+129563600+128608002
4033+128139885+128219763+128498321+128831175+128983069+128893592+128810335
4020+128950073+129213567+129268234+129156449+129060294+129190682+129946716
4006+130605516+130002861+128946721+128766901+128879103+128251202+127356933
3993+127432645+128483071+129209453+129251356+129276196+129432512+129561211
3979+129605105+129484588+129137297+128737506+128616025+128815368+129245023
3966+129528826+129362302+129313526+129283865+128763814+128602942+129064053
3952+129066203+128405908+127972228+127582610+126951993+127628281+129375960
3939+129945186+129079135+127731212+126912549+127417059+127975970+126814643
3925+125446153+125772329+125846103+125078322+126004012+128678672+130389162
3912+130237941+128893062+125595508+120334762+117034121+118315328+122363634
3898+126755066+128120486+125131893+122457985+123993052+124448988+122729519
3885+123154336+123091883+122922404+125575401+125531039+122120522+119244954
3871+118032303+120576786+122875822+121807138+122927579+126567647+126836837
3858+121349663+111708747+108989839+119655510+128100600+129574675+126473712
3844+121958987+118056806+115102783+115622489+119720873+122635319+124240428
3831+126166503+126943696+126297484+123568661+117903037+116632304+120789283
3817+123117174+126668146+130733039+130110587+125311049+121992398+122225320
3804+120520668+120236501+124856874+127671547+129514806+132169031+133233505
3790+132925490+132040642+131085265+131090069+130454118+129059913+130552246
3777+133639851+134015041+131107858+128312646+129040549+131444374+133678507
3763+133902371+130908258+129460385+131281883+130523435+125218751+122480056
3750+128747175+133951820+135784092+144035536+153976912+157119530+155597289
3736+154814709+159014997+167447738+174806514+176855069+175202776+173968417
3723+174115754+175361100+176994746+177283423+175603159+175568413+184386605
3709+199956267+214425000+225214912+234331124+245563084+256695758+263381784
3696+265321410+261890133+253097823+245933799+246815825+248199981+243916788
3682+235904653+226535112+215528688+206302910+205039820+204233851+201310895
3669+204115351+208897541+209946384+209113116+208110184+205915707+203668437
3655+203182531+199893425+192338482+190653088+200158909+210101187+215260603
3642+217515675+219088603+220153633+220595381+220172900+217160494+213340243
3628+216330959+221823671+221676900+216129113+209697548+208074482+208501669
3615+206699880+205614362+207003419+210627785+216502234+221008732+221870148
3601+221300365+221164421+220882413+220974021+221730984+220294726+215961819
3588+213825513+215916103+217503061+217291679+216656754+216063211+215748031
3574+215924312+215402757+212403797+208687982+209124881+212485869+214437172
3561+215042233+215561594+215697008+214828958+213859711+213811253+213566203
3547+212874382+213181654+214353083+215221557+215356387+215036872+214706354
3534+214342521+213576129+212684443+212501438+212662452+212741039+213313706
3520+213849202+213720211+213576482+213542320+213244867+213057192+213083517
3507+212484065+211343543+211055219+211813615+212411900+212502730+212443674
3493+212030871+211155585+210490072+210436660+210440358+210170610+210268305
3480+210775529+210888067+210729920+210858026+211146845+211351381+211377883
3466+211160822+210861936+210711078+210660532+210462472+210142445+210128327
3453+210332614+209934672+209075079+209022092+209671311+209915016+210117517
3439+210720579+211102793+211243496+211603525+212129238+212384548+212039628
3426+211246999+210513248+210379816+210908501+211689967+212444984+212937436
3412+213048240+213075574+213269795+213552705+213857323+214043529+213896280
3399+213856385+214406176+214976720+215216869+215578632+216007358+216157296
3385+216123186+216196678+216571179+217017844+217248564+217501575+217962376
3372+218467549+218965149+219346461+219553880+220048331+221013527+221957422
3358+222504223+222627057+222807514+223529978+224330622+224666696+224882235
3345+225493683+226313894+226953436+227463757+228048843+228836395+229467144
3331+229663223+229932599+230412189+230601721+230375000+230275378+230613840
3318+231014189+231310261+231400791+231184543+231197918+231717386+232217446
3304+232313866+232108694+231898975+232155188+233134855+234510749+235720941
3291+236457222+237089688+238228493+239692510+240764670+241088378+240985730
3277+241109112+241681390+242557702+243289896+243403708+243491795+244274393
3264+245194227+245274460+244434151+243305819+242435133+242545088+243704504
3250+244548652+244343126+243722532+243029632+242106472+241139065+240440556
3237+240288618+240685269+240730047+239959232+239308739+239484312+239994032
3223+240080598+239646051+238841586+237986699+237855178+238297580+238217984
3210+237468912+236642120+235982197+235324644+234602110+234083686+233657348
3196+233270711+233356233+233456546+232814492+231720093+230509618+229318462
3183+228385483+227537372+226796049+226497765+226336964+225626991+224545206
3169+224080353+224271655+224392490+224331365+224096877+223657854+223425419
3156+223582151+223528792+222857281+221979572+221273774+220747902+220657054
3142+221009104+220851169+219868016+218934383+218534088+218403416+218017628
3129+217299693+216491371+215725686+215124659+214417941+213391585+212365247
3115+211450703+210404691+209345658+208473150+207661006+206740571+205311814
3102+203450439+202068494+201566701+201176684+200030608+198604841+198113415
3088+198763200+199032275+197804374+196282345+195722417+195938575+195928173
3075+195068190+194059685+193776917+194138467+194190534+193560846+193060645
3061+193112641+193312205+193134915+192681881+192455868+192607858+192842823
3047+192611945+192085578+191872037+191897991+191937373+191835857+191327076
3034+190479301+189716765+189322273+189163754+189032321+188770217+188671408
3020+190006469+192700316+194040472+192620915+190171905+188342747+187074225
3007+185941965+185063990+184446262+183882777+183380436+182834076+182243629
2993+182247256+183121498+184033034+184388180+184527945+184765388+185141481
2980+185528259+185445267+184840896+184413090+184529361+184852467+184832670
2966+184340837+183813479+183665769+183903141+183918143+183191876+182131552
2953+181444808+181499033+182045587+182377256+182195649+181780563+181568916
2939+181739890+181817185+181374430+180692091+180130871+179983409+180124785
2926+179934014+179515637+179205499+178858085+178468405+177913713+177131557
2912+176624244+176746246+177190860+177404099+177217574+176925642+176775261
2899+176766910+176840544+176929905+177015109+177087823+177137218+177266528
2885+177494929+177658703+177643364+177567997+177642143+177712344+177556302
2872+177454645+177603309+177812197+177965231+177910953+177625460+177395006
2858+177294552+177165844+176803904+176107801+175294614+174671985+174484027
2845+174639273+174771909+174877175+175054801+175212099+175366372+175601284
2831+175967452+176310302+176367004+176251105+176143132+176021890+176002234
2818+176127032+176152491+175941657+175735282+175770719+175947071+176178763
2804+176402423+176467989+176548009+176800100+177042779+177254603+177461775
2791+177498733+177331457+177105603+176971180+176969500+176996515+176996179
2777+177108929+177346672+177423826+177246164+176977408+176688306+176477101
2764+176506292+176746282+176984361+177100225+177189462+177340338+177529198
2750+177699748+177737573+177595844+177402507+177275480+177161261+177028095
2737+177064894+177269429+177389822+177455990+177578824+177694794+177787075
2723+177878258+177968327+178048383+178105474+178123042+178179656+178373470
2710+178553785+178617494+178686899+178741283+178759046+178874415+178996240
2696+178932055+178825320+178871708+178933505+178909250+179046698+179384364
2683+179524129+179372263+179196583+179084204+179085460+179169833+179070298
2669+178839332+178799083+178912576+178924465+178701441+178277244+177887387
2656+177755990+177761014+177678500+177576896+177520176+177440492+177359481
2642+177238044+177024787+176836988+176784532+176754915+176542030+176261225
2629+176210131+176297298+176175773+175823529+175511410+175383551+175386311
2615+175336986+175099968+174808425+174618220+174454924+174239243+174104449
2602+174130828+174129111+174009178+173880347+173779645+173754558+173831340
2588+173846042+173688390+173426356+173142438+172984698+173023602+173060631
2575+173000479+172915239+172764841+172528018+172273539+172029463+171744447
2561+171451948+171284336+171135494+170891117+170752661+170760251+170660150
2548+170427803+170322962+170357779+170243384+169964985+169764873+169682747
2534+169638376+169625266+169614262+169542522+169387011+169190543+169074555
2521+169084533+169121686+169146809+169173983+169142032+168979975+168750936
2507+168649827+168742532+168870038+168911525+168920070+168988467+169121014
2494+169213984+169207704+169222830+169382499+169653273+169933458+170197650
2480+170429590+170456694+170302616+170299201+170462532+170520385+170403512
2467+170267091+170344333+170640158+170858352+170855362+170796430+170831549
2453+170931667+171076527+171303655+171579842+171872448+172135861+172275839
2440+172338928+172456756+172579272+172627376+172727158+172925448+173056243
2426+173069300+173140173+173371972+173636765+173845352+174011478+174137232
2413+174288002+174489388+174653851+174718338+174766194+174956098+175268253
2399+175624018+176212732+177590536+180932841+188140193+201285047+221814702
2386+249702654+283011101+319048619+356214027+394324922+434427457+477968364
2372+524325527+571082314+615298625+653537183+682972712+701857822+709065970
2359+702278817+678264066+641212063+599182357+559596105+537207552+543096490
2345+571200248+590906365+585231144+570675544+559468440+554630644+556547130
2332+560683445+560083196+554122040+546859614+540020624+531133274+517658891
2318+499019485+478960557+467725784+469032078+470534256+458342567+432801047
2305+404703800+383956482+370660929+358997200+346331795+332053248+315252412
2291+297463417+281506606+267923879+255935327+245821721+238093381+232347091
2278+227778300+223775010+220046350+216675702+213879756+211570989+209489952
2264+207549919+205824612+204306865+202867210+201462478+200126780+198869033
2251+197690774+196592076+195553813+194676440+194067770+193562226+193013815
2237+192482635+192022895+191652959+191395366+191210203+191031764+190874890
2224+190718689+190558861+190478328+190443528+190367453+190287362+190316253
2210+190469323+190633804+190715398+190768704+190949302+191246224+191486656
2197+191587464+191590012+191585182+191670545+191864713+192060915+192196718
2183+192364932+192616686+192819293+192903542+193009746+193144823+193147158
2170+193100487+193183550+193279900+193297132+193358027+193476368+193588410
2156+193659213+193677241+193714518+193780632+193825605+193927952+194149684
2143+194395388+194600790+194764174+194888424+195060636+195320405+195573133
2129+195765496+195943034+196129683+196297224+196473417+196670575+196855136
2116+197091181+197379274+197611816+197814723+198092131+198474929+198907229
2102+199321908+199709572+200118430+200651892+201338229+202093493+202897799
2089+203796880+204786172+205860792+207067834+208449443+210007668+211640147
2075+213281595+215077917+217099970+219148684+221122314+223333032+226009683
2062+228918043+231912297+235076233+238360810+241605651+244781088+247925616
2048+250933245+253747060+256381374+258824651+261098105+263083800+264657454
2035+265887054+266820917+267489084+267982916+268181719+267901003+267265194
2021+266360682+265136141+263818507+262704930+261659803+260332579+258688424
2008+257022013+255510352+253990765+252376969+250882965+249665042+248477053
1994+246907964+245394499+244764386+244720192+244647443+244415964+244015137
1981+243599079+243303342+243132563+243117277+243264190+243332038+243082760
1967+243025616+243724478+244678634+245409271+246160290+247011744+247823145
1954+248632405+249538545+250496823+251275069+251632939+251749900+252647194
1940+254663373+256584777+257840012+258803863+259690277+260515053+261287460
1927+261727439+261517401+261330505+261508697+261538136+262227074+263796233
1913+264643937+264423196+264264235+264747576+265454471+266029084+266481464
1900+266756253+266693783+266595081+266892693+266934162+266768018+267793525
1886+269505953+270602404+271228359+271789650+272404211+273009042+273287388
1873+272393738+269828210+267795507+269137273+272014000+273549439+273656669
1859+273299365+272995030+272754952+272381813+271646700+270280431+267898332
1846+264753379+263618943+265592980+267005620+266602918+265992479+265178584
1832+262495317+259047020+257994267+258457298+259152162+260482854+261262444
1819+260965717+260404072+259611018+258047007+256569102+256603566+257392144
1805+257275537+255719434+253823984+253539040+254422464+253784991+251278466
1792+250976095+254560973+257547036+258114395+257754844+257298660+257416806
1778+258270472+257631850+254283317+251577086+253657292+258132352+261636379
1765+262657180+261690303+261740884+262966203+263982952+264902503+263961368
1751+260915030+259802567+262283847+265308159+266758836+266957975+267752569
1738+268512380+266465594+265042339+269273624+274554123+278549151+281031474
1724+281939047+281480262+277971972+272253742+271669010+278100220+284616989
1711+288024613+287849870+285589067+284395629+283167586+279930387+279368990
1697+283308430+290398892+298282690+302015667+302215054+299880511+294509217
1684+293792999+302394944+309913584+312406009+312313905+313433727+314565792
1670+315386198+320715296+327358367+330088782+332184663+337117216+341086556
1657+339659250+332884941+332338971+342317589+346779504+349274335+358776901
1643+369059429+374315389+374644068+371682243+373416857+383924814+392408826
1630+395547534+397083220+398925258+401274592+405895663+409682352+409644633
1616+411466821+418125602+423306053+425689072+428244268+432137992+436062182
1603+439738792+443977260+448677803+453166928+457859793+463504371+469534385
1589+475491331+481879922+488945367+496399219+503600184+508579125+511177029
1576+517258773+527066558+533384771+538503797+547807825+558313518+566533780
1562+569904357+567732189+574114729+593944584+611241604+625158495+637351351
1549+648876447+657880670+662657960+664540158+668581397+684907136+704301559
1535+716625548+727423580+740117540+749944716+756895837+763589152+768538123
1522+773950338+784152793+796178072+809271726+822665150+831786705+834236316
1508+832927474+842367340+864483262+880014143+886825356+890242569+896692799
1495+905766514+910287627+909978303+912528191+922221192+932417207+938788601
1481+943753354+948841737+951263041+949015400+945725003+948581809+955949183
1468+959607995+958936413+959236962+959783852+956042030+949353031+949657260
1454+957058461+961508806+960873810+957461198+954348355+951813753+948056361
1441+941610166+932324714+923649984+922425426+925336511+923954213+919385050
1427+917153544+917550407+918625292+917625703+916325353+921522648+930552063
1414+937597304+943586414+948977186+950317731+948546637+949641833+953349828
1400+956258224+959800128+963366165+966170603+971699230+977256659+977521541
1387+974434458+973188174+973927339+976002733+979904206+983403226+985639827
1373+989876172+994391906+994984511+994756428+995713627+994423609+991688664
1360+991204191+992353099+992282048+990362343+988871134+988709360+989050812
1346+988998798+987355581+983002470+976455997+971058007+969089402+968719218
1333+968182731+967872557+968084859+968384842+968312235+968880213+971891363
1319+974834859+974568420+974037524+975814279+979419308+984114791+987181493
1306+987697529+988710421+990727219+992214183+993981597+997241281+1000561401
1292+1002097406+1004134726+1009116959+1014261531+1017901802+1023058264
1281+1030282971+1036461171+1039743642+1041052555+1043165030+1047195159
1269+1050737983+1052076194+1052013140+1051680675+1051914632+1052996593
1258+1054580932+1056875280+1059965264+1062570280+1063826188+1064375272
1246+1065557369+1068400871+1071603517+1072410477+1069854432+1066393768
1234+1066582293+1070867820+1073741823+1072732327+1071340263+1070456945
1223+1068107682+1065099222+1063208673+1062485430+1061750724+1060612290
1211+1060715115+1063207045+1065988130+1065508045+1062390461+1060953106
1200+1062022895+1062969125+1063799226+1064363808+1061759924+1057413465
1188+1054874404+1054572723+1055021600+1053027802+1048190218+1043809508
1177+1042161691+1042780622+1043199565+1042553105+1041969345+1042350711
1165+1043116484+1042473350+1040011567+1036950456+1034990342+1034480252
1153+1033670461+1031531660+1028885599+1026610854+1024639418+1023365464
1142+1023985528+1025563639+1026306696+1027107924+1026911757+1022572375
1130+1016819487+1013885049+1012513153+1011272107+1011369624+1012045947
1119+1011320795+1009767664+1009267905+1010266857+1012731400+1016370114
1107+1016429063+1010719626+1006228590+1006314289+1007541536+1007949793
1096+1008214251+1010358430+1015037778+1017687306+1014668726+1012529784
1084+1016227660+1019509211+1018822556+1018213603+1020993910+1027666349
1072+1034146442+1036933118+1038338982+1037884514+1034952553+1036098276
1061+1041792498+1044346986+1044826647+1048791953+1054416540+1059713616
1049+1063573195+1060326107+1050854962+1045377995+1046341634+1045429939
1038+1039835711+1034772450+1032247826+1032722957+1036290834+1038634223
1026+1037210101+1034195696+1030552453+1027118539+1025720884+1026321203
1015+1028238998+1031052424+1034487682+1036428901+1033710374+1030342274
1003+1032773981+1039290519+1043245847+1041602134+1037940066+1036488841
991+1036742966+1036100328+1034354427+1034928138+1040164000+1046792493
980+1049664868+1048701441+1047807933+1049099861+1051836292+1054363323
968+1055794450+1056974213+1058918686+1060902861+1061176023+1058877358
957+1055890269+1055352084+1057273629+1060148623+1063839776+1066767986
945+1067007746+1066295897+1066683631+1065949279+1062066912+1058040393
934+1056467094+1057210929+1059698896+1061253017+1059988971+1058572351
922+1058420838+1057076542+1054528281+1053702498+1054189235+1053825350
910+1053845164+1055341469+1056417061+1057695190+1061888225+1066010422
899+1065844897+1063446592+1060201486+1057200951+1058208112+1060531545
887+1058698529+1053781049+1049702445+1050525611+1055165824+1055991537
876+1050361289+1043058172+1038948854+1038604076+1038484479+1037584390
864+1037071043+1035965092+1035213684+1035696459+1033943269+1028900036
853+1024558389+1023812431+1025687482+1027440601+1026645105+1023303685
841+1021502444+1023051470+1023544718+1020876295+1018547342+1018609688
829+1018598577+1017174314+1017282164+1019452031+1021262967+1022019965
818+1021375204+1019637442+1018343815+1017189388+1013734456+1009231672
806+1008819453+1012672168+1016518584+1018189613+1018068459+1017725379
795+1016384126+1012070787+1007013329+1002519675+997465472+994858545+995298010
781+993137413+989261345+989003257+988171882+981997716+976920726+976449133
768+974831321+971326498+970259327+970563627+969567506+967124830+962403092
754+956837879+954455709+954590096+953969962+952054857+949503907+947354137
741+945078189+941006096+936968749+936009073+936924590+936063422+932413385
727+927020561+921795668+919277979+918386098+915921697+911452598+905364344
714+900474463+901294019+905960275+910460370+915428661+919576688+918968513
700+914689637+912087240+915099876+923254536+931408418+933963331+930746885
687+926905706+927330451+930134890+928639718+923031548+920311040+922786410
673+929070691+937819372+939847068+927359324+920705497+924033331+926052039
660+925177426+926942859+929291202+926013047+921337237+922799502+928300671
646+931610671+930852400+929602224+929921809+927455497+922153326+920725383
633+924563732+928021636+924331898+912599808+899113112+891479440+897034251
619+913774262+919410172+904338996+894857731+902096096+908804273+906936157
606+904181114+903635640+903539325+900233783
##END=
