##TITLE=Sample description
##JCAMP-DX=4.24
##DATA TYPE=INFRARED SPECTRUM
##DATE=12/9/2023
##SAMPLING PROCEDURE=Instrument type and / or accessory
##ORIGIN=Default
##XUNITS=1/CM
##YUNITS=ABSORBANCE
##RESOLUTION=4
##FIRSTX=4397.6552
##LASTX=599.8556
##DELTAX=-1.9287962
##MAXY=1.8652205
##MINY=0.23571515
##XFACTOR=1
##YFACTOR=1.737122e-009
##NPOINTS=1970
##FIRSTY=0.24501072
##XYDATA=(X++(Y..Y))
4398+141044048+140996396+140765629+140915351+140888278+140379616+140295765
4384+141087770+141841037+141623214+141845403+143140023+143662170+143263787
4371+142736244+142309554+142472743+142595658+141968189+141212838+141237500
4357+142018285+142601320+142944872+143146757+142801738+142758033+143338597
4344+143727063+143980485+144494861+145315834+145997156+145966704+145516372
4330+145094486+144596357+144274919+144481822+144393348+143744408+143762997
4317+144219934+143902554+143380586+143461992+143685520+143758047+143830009
4303+143746922+143580893+143927353+144751740+145177590+145226536+145588085
4290+145920794+145879294+146089233+146952994+147666707+147089917+145619532
4276+144397569+143776953+144123087+145287904+145831256+145269358+144854849
4263+145288196+146281674+147444398+147941583+147276387+146131232+145282037
4249+144977172+144906265+144508226+144134359+144716742+146068560+146943558
4236+146608413+145750520+145448949+145654222+145978542+146601241+147045654
4222+146298864+144999269+144816882+145670949+146217544+146260949+146735180
4209+147677978+148113796+148019986+147877281+147525134+147145572+147205206
4195+147283627+146963888+146919282+147346556+147428734+146960954+146570635
4182+146600658+146751203+147219858+148242536+148709200+147871277+146571973
4168+146067840+146680537+147432697+147740907+147931666+148013192+147989620
4155+147933965+147581201+147058144+146990394+147490736+147921493+148137266
4141+148440243+148567147+148539080+148621069+148418146+147886940+147538876
4128+147166897+146356440+145786547+146186337+147198378+148347823+149213591
4114+149217108+148681596+148048483+147108429+146608842+147196989+147758338
4101+147560733+147393650+147717232+147791844+147637095+148154010+148602901
4087+148148863+147936916+148484523+148681459+148139994+147664013+147706252
4074+147943710+148021445+148458703+149636353+150142425+149236168+148409671
4060+148522404+149040983+149451427+149438268+148828161+147975106+147526575
4047+147824149+148655021+149131396+148878857+148443812+147958138+147524637
4033+147409811+147421957+147668560+148362835+149049647+149257579+149177168
4020+149234024+149467897+149709541+149743493+149426293+149095831+149222083
4006+149652239+149600239+148938338+148593859+148660906+148334270+147877985
3993+148249244+149342519+150348058+150977054+151292058+151181110+150428486
3979+149461978+149098233+149154677+149127810+149201067+149320988+149128016
3966+148627005+148327905+148914113+149725222+149495398+148707948+148367055
3952+148476786+148878137+149372491+149023003+148077322+148484523+149652291
3939+149480129+148036182+146406382+146138797+147794211+149227556+148905381
3925+148453282+149083136+148962562+147936110+148219478+149765007+150528267
3912+150197530+149262778+146636412+142446717+140006744+140886520+143780959
3898+147467919+148925625+146611123+144890465+146958570+147409519+145379089
3885+145204594+145135146+145606751+148310354+147876767+144565956+142496642
3871+141968558+143627180+144438400+143152890+144610562+147984919+148107328
3858+143524578+136234673+135692916+145197851+151302026+151615932+148579483
3844+144360185+140687114+138561244+140244837+144645063+146911253+147354637
3831+148171938+148849761+148773622+146405953+141434625+140556298+143692116
3817+145401306+149251952+153252732+152610543+148598715+146170742+146500329
3804+144901307+144736042+148486925+150048100+150871990+152973464+153967800
3790+153847878+153332628+152619687+152627150+152125676+150913662+152208282
3777+154829227+155009693+152431192+150017082+150486629+152260454+153945188
3763+153891283+151022106+149337990+150193070+148810490+143714642+140663593
3750+144320314+146329591+145269564+149390316+154610624+153482264+147893408
3736+144201971+147651232+155254974+160416899+161018273+160292414+161716014
3723+164879213+169077854+173658734+176404164+175438513+173005943+176390851
3709+185953928+195199805+201689153+207922753+217729791+227986114+234096293
3696+236292126+235179498+231709032+231078904+236639709+241696793+241865335
3682+238383426+233305806+227383607+224090519+227479373+230143379+230823346
3669+235447408+240533348+242636109+243539449+244259612+244072576+244534934
3655+246631072+245699579+241369179+242336460+251652471+260192132+264345121
3642+266153945+267752881+269302733+270216727+269934303+267639513+265814734
3628+270623053+277256753+279473567+278286790+277122900+279542964+282912603
3615+284390622+286021245+288017140+289941888+293215693+296247082+297082723
3601+297166891+298139096+299423611+301122138+303826874+304945043+303034191
3588+303054916+307557169+311379593+312726763+313578737+314838341+315677998
3574+315790611+315453630+313805336+312151860+314683970+318943019+320300619
3561+320119244+320601984+321279583+321333419+321633240+322682750+322980169
3547+322431241+322706117+323992725+325128222+325527102+325823183+326374650
3534+326135047+324710264+323375206+322990840+322874213+322682647+323015819
3520+323527931+323327958+322872669+322656158+321983019+321165392+321192190
3507+321155578+320465867+320355484+320672564+320361626+319883930+319670817
3493+319249976+318122131+316844307+316648693+316801245+315946148+314796686
3480+313944197+313110752+312695573+312835498+312878252+312349087+311400284
3466+310378429+309303528+308577102+308501821+308244479+307348173+306297016
3453+305534631+305002653+304237112+303315861+302663618+302491473+302891864
3439+303173156+302659947+301771361+301146569+300859958+300411325+299507539
3426+298575754+297950413+297612505+297655430+298101421+298540378+298676015
3412+298862125+299140809+299055818+298659579+298362366+298459710+298617169
3399+298320711+297980539+298061859+298400796+298552113+298410884+298505448
3385+298632095+298268316+297895993+297815154+297718359+297496770+297472236
3372+297743647+297580320+296917372+296765643+297025010+296706111+295992176
3358+295745916+295975397+296162914+296160786+295957486+295541552+295081356
3345+294446235+293725917+293645283+294083931+294380733+294450421+294277487
3331+294151595+294370405+294599748+294284899+293030304+291389524+290484846
3318+290791255+291776567+292137669+291426787+290703107+290789093+291144397
3304+290917799+290486116+290762776+291741740+292630943+293080434+293810462
3291+295032804+295975500+296628703+297146373+297206762+297127878+297284445
3277+297481466+297358903+296831626+296346313+296158247+296203814+296460298
3264+296671662+296519864+295960025+295178631+294353146+293638901+293256216
3250+292972865+292034355+290554843+289807796+289937702+289911865+290011645
3237+290910353+291509000+290794034+289756122+289138637+288303408+287148027
3223+286248050+285864644+285849049+285779755+285398769+284776515+284036022
3210+283373280+283204995+283453862+283302047+282524599+281926090+282049048
3196+282390352+282216097+281355905+280018789+278463396+276997678+276142598
3183+275983938+275966799+275743820+275180224+274412383+273791039+273109237
3169+272067824+271001432+270273034+269792215+269286589+268690396+268435336
3156+268762246+268893370+268174202+267206732+266739399+266683813+266595304
3142+266044523+264995820+263875523+262939878+262408381+262328570+262099450
3129+261325845+260492519+260107021+259852681+259257654+258366838+257490262
3115+256704476+255703638+254549407+253604721+252926658+252218281+251045075
3102+249629006+248281820+246755472+245281776+244398680+244049501+243841997
3088+243653057+243384614+242664365+241721223+241164901+240847134+240456317
3075+240097943+239819275+239622151+239525854+239346503+238968244+238645091
3061+238555605+238508014+238326982+238067118+237901544+237717252+237315747
3047+237172785+237531125+237699118+237345496+236855105+236449001+236067980
3034+235810758+235775520+235817569+235885576+235839975+235438985+234990214
3020+234831468+234701545+234392202+234031683+233726252+233384141+232809565
3007+232186591+232041982+232349317+232510996+232380970+232232380+232201963
2993+232496208+233124740+233864170+234715510+235556590+236192877+236574550
2980+236690817+236783546+237002562+237034283+236503095+235628063+235008159
2966+234578810+233976474+233509621+233380436+232989293+232235280+231898985
2953+231927653+231784022+231864793+232349334+232487492+232041827+231728727
2939+231884591+231971779+231605306+230971575+230314100+229792605+229631131
2926+229686031+229299691+228396918+227502207+226735825+226230045+226059581
2912+225694773+225165917+225088389+225247615+225162366+225041655+224970663
2899+224670551+224268119+224080740+224267004+224690075+224836811+224587292
2885+224311387+224288844+224535206+224729345+224707917+224622582+224557509
2872+224593931+224704348+224734389+224663740+224454898+224038518+223533201
2858+223092117+222827329+222625830+222026222+220983351+220092604+219850874
2845+220227434+220801702+221131443+220965320+220497112+220144056+220012159
2831+220075534+220294343+220431129+220359537+220266688+220129301+219877106
2818+219850891+220005777+219945079+219776914+219708324+219682692+219746908
2804+219994042+220205046+220167714+220054260+220022813+219933258+219711566
2791+219625082+219726423+219693449+219596671+219661196+219672330+219512589
2777+219406118+219393423+219343052+219270670+219059650+218529816+218073892
2764+218135088+218344050+218249193+217977371+217758733+217757687+217996518
2750+218210077+218198377+218029423+217902004+217961931+218159501+218284312
2737+218132137+217754650+217478024+217532186+217788585+217987957+218061711
2723+218060287+218004770+217943316+217913327+217891385+217997341+218322004
2710+218534586+218427926+218262798+218075213+217780899+217634849+217670568
2696+217657375+217650650+217728470+217772304+217726926+217671717+217669710
2683+217586880+217331906+217051179+216837448+216688927+216520231+216199977
2669+215874868+215744790+215666490+215413436+215028830+214796947+214824517
2656+214822424+214593321+214351934+214304429+214304840+214172549+214026225
2642+213961203+213809920+213542867+213339275+213231535+213098060+212812684
2629+212407405+212087528+211993598+212042871+211984969+211799408+211686572
2615+211619663+211512163+211369990+211186779+211041278+210951963+210796425
2602+210587532+210437827+210331133+210265357+210295020+210312725+210208192
2588+210038450+209804920+209484563+209175049+208930900+208758172+208636295
2575+208501327+208352309+208191796+208053020+207944250+207702554+207261229
2561+206779588+206379043+206064914+205885975+205894485+205971379+205934098
2548+205797724+205659223+205515265+205409446+205347633+205273741+205162363
2534+204995039+204932660+204975825+204879407+204704483+204578728+204492828
2521+204539286+204732087+204888037+204873934+204747356+204606762+204505352
2507+204482894+204508131+204524189+204559153+204576481+204486154+204407544
2494+204437345+204450263+204437190+204512008+204622974+204660409+204688270
2480+204844786+205065963+205161677+205150920+205111049+204981589+204770706
2467+204615357+204648880+204780673+204850756+204936863+205067027+205159893
2453+205272043+205458753+205653904+205808996+205964379+206144845+206329874
2440+206540071+206805802+207021730+207109140+207169959+207246835+207321979
2426+207388511+207461699+207621577+207810089+207957512+208121216+208237243
2413+208280236+208407689+208594571+208702861+208828684+209051045+209314546
2399+209646998+210015306+210274467+210373835+210347861+210255217+210085114
2386+209550992+208249715+205962252+202708571+198818998+194781864+190714313
2372+186279020+181559570+177191477+173298026+169896803+167635485+167074102
2359+168374143+171560194+176380249+182598443+188891644+192000132+190176296
2345+185682209+182735040+182195925+182675303+183543575+184501008+185375217
2332+186214856+187448091+189261960+191147300+192802937+194669046+197179196
2318+199982339+202269013+203853727+205339003+207063265+208819162+210464385
2305+211935062+213141859+214169187+215138526+215999816+216688756+217298142
2291+217903703+218479206+219058054+219600892+219934013+220011730+219962183
2278+219970281+220114067+220265144+220336959+220398601+220460638+220514577
2264+220647348+220913097+221200171+221354216+221446979+221614406+221833679
2251+222073024+222244002+222236951+222244517+222499938+222830382+223011294
2237+223112721+223217871+223311595+223427056+223566244+223690832+223825216
2224+223917482+223958897+224085560+224229089+224276148+224319073+224410052
2210+224523077+224653446+224835027+225069431+225238677+225271085+225305517
2197+225503499+225803234+225994491+225985604+225946076+226038153+226196590
2183+226376438+226571401+226683911+226732977+226844389+226989033+227088109
2170+227242978+227539573+227843666+228049694+228197941+228265982+228261967
2156+228326595+228477654+228619965+228739715+228819456+228879863+229063383
2143+229336903+229470309+229464459+229575648+229868984+230106339+230192103
2129+230282447+230442514+230606904+230774399+230976087+231066208+230949976
2116+230852151+230943165+231146842+231348599+231479088+231528481+231551745
2102+231600108+231637765+231651147+231735470+231916398+232110898+232294743
2089+232458430+232544073+232582297+232617639+232625136+232666311+232772439
2075+232870160+232976683+233087100+233104736+233048721+233045599+233131363
2062+233195732+233209063+233242397+233281959+233321744+233393903+233478586
2048+233541120+233574712+233550882+233464672+233436193+233557693+233756584
2035+233872886+233907335+234018524+234186912+234293246+234325362+234342295
2021+234294944+234092090+234000013+234290792+234732872+235037188+235211048
2008+235332102+235405719+235472971+235605262+235806040+236055988+236163506
1994+235813074+235360821+235522981+236151702+236745563+237163984+237447472
1981+237649451+237791967+237980582+238263418+238548005+238630629+238394886
1967+238302552+238812827+239511734+239903666+240073512+240191907+240376387
1954+240697327+240981844+241106192+241130468+240870999+240284344+240381225
1940+241611355+242745153+243193443+243394376+243611384+243882263+244228131
1927+244348087+243917690+243571548+243644376+243678808+244314032+245675835
1913+246444654+246389994+246463954+247135068+247975874+248588108+249044616
1900+249434696+249588192+249656096+249933391+249847936+249554960+250349256
1886+251783098+252732553+253306958+253824388+254359145+254827405+255061535
1873+254498333+252779458+251721679+253477439+256356258+258086970+258750038
1859+259222501+259901919+260646942+261251679+261601476+261448460+260493000
1846+259155987+259723684+262648464+264900963+265741168+266418099+266873320
1832+265926661+264581636+265132022+266719584+268556921+270949621+272830569
1819+273861534+274684960+275172195+274922161+274836689+275992344+277634394
1805+278488615+278205522+277684129+278405425+279937160+280104107+278759648
1792+279376600+283094303+286091877+287093316+287423640+287758648+288603846
1778+289899787+289769366+287392090+285703239+288056771+292331808+295743514
1765+296999379+296685936+297373280+298922343+300232592+301501632+301194366
1751+299104884+298507541+300733517+303423018+304940308+305484329+306541868
1738+307541866+306202142+305488927+309400254+314073177+317719030+320029346
1724+320938038+320752958+318226372+314229401+314638850+320415188+325922792
1711+328967802+329310170+328153468+327926012+327508672+325498863+325835501
1697+329679027+335918238+342511757+345637059+346189555+344931838+341469967
1684+342011381+349534558+355742819+358083981+358682422+360224451+361409906
1670+362381734+367239051+373037006+375607271+377807959+382360926+385983241
1657+385085460+380150047+380938578+389705782+393409588+395815635+404151464
1643+413030183+417837198+418656850+416891208+419322166+428935716+436569036
1630+440028779+442668081+445691337+449037335+454423199+459433515+461751344
1616+466006481+473871271+480416925+485122342+489871712+495288011+500735363
1603+506070891+511821426+517915907+523652854+529128754+535062619+541538516
1589+548152211+554744187+561756385+569484578+577209682+582703493+585647282
1576+591332898+600261369+606438406+611739175+620384570+629937800+637586354
1562+641053474+639917394+646163879+663780223+679209365+691503872+701996641
1549+711495314+719029265+724387679+728375317+733520240+747542783+763529911
1535+773485281+782001456+792515978+801204264+806829284+811035217+814426370
1522+819366723+828286890+838125667+847241209+855986658+862671723+865518683
1508+866085659+873747595+889150316+899706837+904417023+906607863+910790601
1495+917575789+922085179+923439005+926302023+933651374+941527144+947567892
1481+952562596+956000551+956728795+955016817+954334483+959292953+966122061
1468+968668719+968000179+969453991+971752365+967487759+956860211+954865157
1454+962503555+966058857+964432523+961379964+958626608+955566089+952981755
1441+950120933+943330049+933816828+928632858+926525122+921673912+915644007
1427+912482472+911752374+913493655+917623895+922044005+927197849+933467460
1414+938395255+942305416+947860988+954308543+958264476+959381410+960328979
1400+961983449+964639770+967815578+970798964+974993985+978629099+978193881
1387+975053551+974079974+976139536+979038170+981730107+984509403+987922927
1373+991935338+995267337+997115878+998450900+999027484+996297255+991770639
1360+990634902+992357791+993000049+992453042+992395741+991580892+989451471
1346+987322393+984782254+981295301+977944088+974529740+969959068+965938559
1333+963972395+963263915+963842558+966196518+969415492+971952749+973033106
1319+973509361+974175980+974830933+976138643+979428918+983903585+987451545
1306+990350728+993147523+994732065+995497504+996506354+998174892+1000678112
1292+1002644000+1004264501+1008442229+1014315671+1019018102+1023488377
1281+1028373556+1033174532+1037714324+1040725777+1043093806+1046237018
1269+1048971159+1051109844+1052583695+1052129949+1050197961+1049812977
1258+1053952687+1060575234+1064146595+1063113452+1061454247+1062607963
1246+1065404347+1068089902+1069781910+1069300851+1068446475+1068604586
1234+1067494652+1066064721+1068959581+1073741823+1072443995+1067161479
1223+1065989577+1068632310+1069278136+1066163884+1062759555+1061341016
1211+1060633840+1059759494+1058408619+1055622323+1053498598+1054667069
1200+1056183398+1055156979+1053631112+1053072370+1052196515+1049822859
1188+1047228300+1046994839+1048854566+1049983371+1048735776+1045503558
1177+1042276761+1040615840+1040165869+1040110763+1038841689+1034923911
1165+1031272396+1032112292+1035231143+1035627656+1033983822+1033563908
1153+1035401057+1038601708+1040639035+1038274781+1032599184+1029397229
1142+1029834642+1030117101+1029623690+1030445813+1030826473+1027691496
1130+1025347829+1026993035+1026799857+1023471701+1022840492+1025201521
1119+1026260467+1025091997+1023425586+1021286626+1018398422+1018152060
1107+1022016723+1024028933+1021606210+1019667085+1019408165+1018718693
1096+1018256026+1019834049+1024476846+1030651618+1034657647+1036184613
1084+1036694562+1035660801+1035025818+1037410797+1039580775+1036199024
1072+1030118748+1028830458+1032852958+1038852051+1045686031+1051876930
1061+1055184978+1054008616+1050264595+1049802203+1052774951+1052478493
1049+1048641829+1047345442+1049492843+1050744281+1049113006+1047698722
1038+1047265151+1044560656+1041249794+1042279918+1046648216+1048481865
1026+1045902267+1041679590+1038148923+1036633212+1036800930+1038418755
1015+1040808950+1040030472+1035617980+1032342185+1031837657+1032111881
1003+1032128488+1033067890+1036438524+1041232569+1044707307+1046023389
991+1047249574+1049237559+1049863484+1047864930+1044172859+1042108905
980+1043407626+1045158445+1046906039+1051017956+1055928663+1058125268
968+1057064537+1055004015+1055472721+1060198142+1064708631+1063843549
957+1059846784+1058955694+1063073924+1067286994+1068725434+1069979823
945+1071655635+1072006307+1070279918+1066251311+1060387340+1056601733
934+1058555475+1064246238+1068852321+1069500068+1068556617+1069396445
922+1070618375+1070773535+1070441255+1070495537+1070550505+1068757001
910+1066955057+1066875795+1067270661+1067990533+1067337433+1065290910
899+1064722081+1064405447+1062102543+1058936548+1056620673+1056057266
887+1057982940+1059749955+1056236101+1049442472+1045999165+1046831032
876+1048155899+1047945358+1045865690+1041285685+1037702795+1039816089
864+1044423819+1045818614+1043507063+1039247260+1036537481+1037206776
853+1037993077+1036654691+1034181804+1031740484+1029894346+1028866624
841+1028402035+1027680036+1027725397+1030565700+1033530763+1032400173
829+1030262242+1030670696+1030233282+1027695408+1025808506+1025332526
818+1025365534+1023733367+1019770091+1017702569+1019796305+1022365679
806+1023464839+1022854629+1018841600+1014542612+1013798996+1013883061
795+1012551676+1011677742+1010814444+1008700601+1005805604+1001658345+998325660
781+998763829+1001482254+1004334842+1005080379+1001430100+996458866+993398758
768+991157136+989245049+986565807+982695998+979718034+977437776+978157922
754+983471044+984990598+979344304+972700826+966129747+960361095+958758779
741+958470419+954540357+948636720+943813372+940344605+938901087+938262192
727+936460865+935215740+934172852+930475908+925043791+920877455+919967973
714+921243430+921160806+919557598+919690524+920843898+919875742+920474492
700+925535281+927509610+923340460+920018618+919371008+918979505+919050874
687+920298813+923057453+925822543+925238754+921671442+918139608+915394419
673+914771513+915495160+914107227+916384809+924845741+930781150+931099706
660+925398169+919567686+920511823+926460066+929464245+927582215+928816291
646+932267147+930191391+925773065+926463428+934028741+940661170+938188558
633+931547893+932457992+944061725+952018129+943629390+932115762+934224870
619+943368136+940943904+926129638+913342681+912297597+924050107+942410754
606+959412085+967352843+959350460+942155745
##END=
