##TITLE=Sample description
##JCAMP-DX=4.24
##DATA TYPE=INFRARED SPECTRUM
##DATE=12/9/2023
##SAMPLING PROCEDURE=Instrument type and / or accessory
##ORIGIN=Default
##XUNITS=1/CM
##YUNITS=ABSORBANCE
##RESOLUTION=4
##FIRSTX=4397.6552
##LASTX=599.8556
##DELTAX=-1.9287962
##MAXY=1.8989953
##MINY=0.27336359
##XFACTOR=1
##YFACTOR=1.7685772e-009
##NPOINTS=1970
##FIRSTY=0.28656784
##XYDATA=(X++(Y..Y))
4398+162032984+162566571+162398819+161709444+161187400+160580814+159939414
4384+159850154+160284421+161095714+161973247+162511570+163139961+163746732
4371+163756708+163888045+164482970+164900521+165010895+164365097+162618911
4357+161209475+161334155+162186749+162458000+161827216+161121327+160919351
4344+161015435+161559504+162476553+163109646+163523170+164378612+165367851
4330+165354252+164580891+163966571+163173242+162329006+162110094+162178779
4317+162409115+162937226+163186150+162762869+162351552+163091700+164637544
4303+165459149+165069149+164005530+163184532+163428872+164409668+164942615
4290+164530574+163989033+164263924+165108412+165376849+164693759+164183477
4276+164371787+164140844+163389727+163193884+163223508+163092003+163317739
4263+163334118+162923863+163218621+164105490+164472708+163993111+163071344
4249+162697537+163426394+164603842+165377826+165097847+164052005+163544352
4236+163695236+163863779+164118668+164158942+163694309+163481244+164095178
4222+165075654+165748161+165866573+165658598+165690042+165970780+166153327
4209+166511917+166929047+166544304+165104065+163534056+163211965+164061223
4195+164490839+164219926+164468933+165214675+165298087+164564074+163933694
4182+164209697+164887378+164644689+163814423+163780148+164404832+164828972
4168+165094915+165595474+166091282+166092326+165643011+164859304+164080130
4155+164238950+164919715+164662299+163987887+164199081+164873475+165036088
4141+164879474+165226824+165657857+165188488+164423991+164481571+165049046
4128+165099161+164683969+164690541+165210074+165376495+164650705+163761814
4114+163737211+164602579+165513797+165472040+164505281+163990128+164482633
4101+164761197+164362890+164133379+164422357+165239530+166129112+166189557
4087+165513359+164974127+164956568+164975643+164595619+164356840+164908913
4074+165590419+165151517+164079894+163898273+164641892+165347629+165476742
4060+165260560+165307221+165417864+165087197+164788715+164990438+165433738
4047+165906746+166198370+166200089+166256775+166343187+166022209+165427823
4033+165044715+164865151+164790349+164880469+164665180+163907390+163395759
4020+163802796+164844357+165759451+166287343+166636058+166734114+166646506
4006+166607074+166058911+164918434+164269552+164158773+163884978+163578930
3993+163655703+164315218+165364952+166215035+166334880+165918019+165524986
3979+165256802+165283225+165493121+165479792+165613892+165839190+165480163
3966+164990371+165237356+165891108+165954704+165429458+164932791+164240501
3952+163233332+162940546+163906598+164793838+164754035+164881766+165367075
3939+165365340+165131178+164935100+164766286+165090955+165453167+164752435
3925+163743564+163614772+163620282+163570420+164503798+166232375+167105123
3912+166625476+165505658+163255913+160268413+159455604+161139476+163419570
3898+165680454+166258595+164390593+162950235+163996599+164306759+163475751
3885+163589074+162963986+162801525+164386818+163551260+160939336+159552059
3871+159432501+161104004+161753779+160622369+161862502+164437287+164189156
3858+160306530+154589064+154566956+162082189+166314541+166000168+163475010
3844+160730687+158929954+158010293+159115028+161684623+162737575+162933890
3831+163796662+164399659+164057802+162104533+158807042+158690534+160977672
3817+161851145+164111944+166366812+165440276+162585866+161147716+161313917
3804+160044126+160358380+163375892+164358609+164768932+165867197+166147193
3790+166191629+166188461+165762013+165505608+164725321+163846575+165003329
3777+166632250+166407727+164507404+162988976+163731870+165036947+165694592
3763+165244417+163456861+162904771+163697696+162160091+157596330+154885086
3750+158158986+160232739+159296379+161966338+165365559+164264985+160945419
3736+159519099+161933243+166267122+168862953+168458967+167424686+167915286
3723+169320981+171521724+174437101+176393150+175871830+174512712+177026816
3709+182742916+187437508+190551121+194552985+201707471+208932226+212924434
3696+213887234+212116849+208225141+205962370+207639012+208417327+205932055
3682+201816531+197033538+191168020+186772989+187561953+188195838+187275958
3669+189148223+191509202+191999196+192058883+191732259+189810216+188300938
3655+188990801+187874051+184069108+184040782+189574908+193924189+195234187
3642+195327002+195256666+194606874+193635329+192746252+190778761+188834929
3628+191424914+195095790+195371236+193240948+191367587+192169695+193649838
3615+193806855+193864604+193966873+194153548+195350324+196240951+195767522
3601+195217724+195331957+195172226+194794510+195003294+194790938+193635599
3588+193992672+196204873+197416697+197485382+197542962+197695716+197606220
3574+197410310+197069364+195889034+194731117+195897241+198060945+198932142
3561+199109769+199455720+199641553+199281296+198891447+198876635+198807158
3547+199000423+199974260+200994825+201208395+200678228+200174281+200053915
3534+199868183+199256457+198534004+198428921+198974388+199561343+199959599
3520+200115370+200008181+199938603+199981169+199951174+199938333+199937845
3507+199743098+199532763+199628174+199722624+199431640+199047454+198930407
3493+198999007+198964530+198777349+198744911+198892222+199004518+199306184
3480+199907884+200391862+200335158+199796566+199584867+200071659+200601674
3466+200693242+200399832+200097963+200010945+200023414+200150370+200314667
3453+200442128+200583340+200729169+201032975+201530182+201922659+202019838
3439+202019097+202154124+202354432+202629289+203164629+203668087+203685612
3426+203531947+203663706+204071500+204621062+205087077+205346482+205639100
3412+206239131+206790530+206943267+207243839+207963310+208501447+208543423
3399+208556432+208863255+209313329+210038243+210852400+211180051+211301075
3385+211738510+212250545+212446860+212546483+212899478+213413737+214047538
3372+214830992+215446324+215731561+216023707+216686912+217629609+218461476
3358+219029911+219406750+219730947+220164642+220759365+221390317+221755293
3345+222000341+222633821+223499593+224211851+224928036+225773334+226447998
3331+226856652+227158993+227299480+227432637+227916328+228629901+229236268
3318+229483641+229125102+228464745+228196392+228343400+228416146+228386202
3304+228632513+229091653+229403919+229899609+231386441+233476776+234663205
3291+234863396+235394540+236722871+238318039+239758144+240957026+241613710
3277+241801987+242378730+243640281+244846156+245408188+245522860+245392753
3264+245101433+245071623+245570632+246485390+247605494+248444640+248284472
3250+247237046+246282032+245782163+245464488+245327809+245414575+245557573
3237+245568324+245241953+244625021+244121007+243971488+244098325+244386124
3223+244754015+245108914+245262090+244860733+244131100+243953794+244182024
3210+243893147+243264790+242943812+242654092+241974676+241243207+240822471
3196+240637261+240388726+239623622+238486330+237746520+237445258+237112770
3183+236692860+236061250+235281436+234854347+234652674+234198994+233501126
3169+232976823+233095336+233352955+232794411+231913339+231700645+231960269
3156+232112181+232060802+231824635+231391732+231046843+231031154+231163671
3142+231226104+231114853+230754292+230146021+229432987+228853851+228442232
3129+227957933+227288190+226711615+226572544+226697848+226429310+225655933
3115+224830958+223920160+222875465+221810935+220488164+218984852+217759934
3102+217098751+216750104+216043709+214914438+213942876+213482944+213368981
3088+213207498+212817565+212154697+211393637+210941238+210726944+210464877
3075+210293552+210201259+209822819+209383614+209469673+209706901+209540615
3061+209292686+209200006+209126721+209085453+209243599+209526461+209513485
3047+209231281+209138516+209198573+209038624+208627745+208233785+207972662
3034+207706905+207405255+207112249+206731939+206433406+206389509+206350128
3020+206221572+206026825+205729067+205418874+205127317+205007119+205132912
3007+205163042+204864745+204308645+203676900+203137364+202745072+202599749
2993+202773028+203177554+203794587+204573509+205196221+205436618+205441909
2980+205406674+205495933+205874727+206195335+205924455+205347392+205038765
2966+204864003+204566600+204345380+204107882+203682916+203559937+203811657
2953+203816241+203526269+203319018+203258860+203268347+203350563+203471149
2939+203546995+203564537+203508238+203372621+203253838+203153322+202928209
2926+202623779+202415551+202136633+201461598+200588614+200057403+199973299
2912+200059071+200147724+200268479+200536443+200896263+201055539+200815715
2899+200367798+200161138+200445094+201025561+201470141+201637084+201663642
2885+201543106+201433086+201583734+201802241+201910307+202054450+202259477
2872+202427650+202553948+202671299+202793940+202809410+202670844+202583657
2858+202604181+202573563+202300711+201702163+201105367+200820417+200761893
2845+200830308+200969312+201160656+201450611+201722283+201854665+201979278
2831+202214316+202401784+202389415+202343900+202444400+202565457+202581331
2818+202566233+202566351+202586049+202727413+203014116+203233381+203268516
2804+203313491+203497116+203733149+203991525+204296495+204565707+204797341
2791+205046921+205051623+204737469+204554652+204646288+204830285+204993402
2777+205050258+205157177+205317936+205206264+204868250+204638402+204663982
2764+204897116+205126357+205152206+205101923+205207393+205339927+205361395
2750+205456081+205627472+205691287+205712705+205798392+205929342+206041148
2737+206051141+206088078+206231952+206255156+206185612+206332856+206701236
2723+206994494+207091034+207110952+207111777+207172104+207364121+207524172
2710+207565845+207661491+207903556+208179576+208348389+208382057+208399380
2696+208545597+208840961+209170297+209441380+209671126+209833655+209932115
2683+210056189+210114426+209998306+209875344+209839738+209789471+209837345
2669+210003867+209986257+209843866+209803913+209744428+209639531+209623539
2656+209655405+209619765+209489978+209341487+209287429+209370959+209462460
2642+209342195+209128962+209151997+209229664+209041471+208789279+208690920
2629+208671743+208698317+208738018+208592341+208242851+208014587+208013104
2615+207973471+207817481+207716847+207683044+207578112+207338188+206999330
2602+206672168+206489385+206508646+206633984+206713571+206678875+206592176
2588+206552661+206472551+206316999+206263935+206322038+206342731+206267508
2575+206140687+205978260+205805807+205747115+205760461+205694523+205493810
2561+205184375+204835862+204371768+203887319+203716112+203806804+203889206
2548+203855908+203726796+203610187+203505576+203385917+203291888+203116401
2534+202863939+202748813+202747465+202706905+202599126+202415264+202211856
2521+202072582+201993281+201967246+201961921+201849609+201628238+201506826
2507+201535068+201531209+201443129+201413370+201505596+201596322+201621160
2494+201660305+201738207+201846829+202016856+202201846+202333217+202468514
2480+202659621+202797934+202784571+202711219+202695530+202746673+202815931
2467+202823480+202832613+202954126+203098674+203194270+203212958+203137583
2453+203104707+203212520+203416720+203673782+204021823+204376419+204481283
2440+204422591+204543767+204803862+204955622+205017954+205126997+205273972
2426+205382054+205474482+205601421+205697910+205730078+205755405+205808166
2413+205940328+206211529+206565889+206809723+206853670+206863949+206991191
2399+207214686+207489998+207782751+207991754+208097124+208216513+208289882
2386+207975324+206886210+204878832+202141503+198925419+195380521+191606467
2372+187652140+183629128+179770077+176295414+173449497+171647533+171374260
2359+172747854+175590789+179766471+185237035+190767471+193419518+191714667
2345+187709298+185053831+184417941+184779092+185813913+187062860+187986194
2332+188709457+189959212+191793361+193519141+194931458+196618582+199009152
2318+201560429+203512636+204944568+206363272+207891524+209441380+210971621
2305+212267026+213144913+213826098+214577502+215286475+215824241+216369574
2291+217031431+217654059+218162859+218645893+219067203+219326236+219475031
2278+219582827+219642564+219650989+219630498+219663813+219824976+220062019
2264+220289592+220502825+220680991+220741418+220747384+220877693+221116910
2251+221366827+221642779+221926500+222152303+222290279+222373995+222466609
2237+222577219+222722407+222907920+223069167+223183788+223301762+223430857
2224+223516595+223556448+223627745+223773540+223851054+223743208+223670479
2210+223819863+224059232+224217496+224283536+224376385+224515355+224601497
2197+224699671+224934457+225177280+225246824+225236444+225305651+225401499
2183+225459770+225611783+225853899+225984983+226065126+226205343+226291924
2170+226399939+226684907+226970447+227048332+226951843+226849659+226969048
2156+227276445+227458857+227507202+227607432+227711032+227791327+227931612
2143+228104133+228201043+228178159+228145603+228219596+228399396+228629834
2129+228822171+228958058+229070286+229150143+229258815+229460977+229640979
2116+229644215+229530453+229486135+229569110+229690066+229799396+229943101
2102+230096664+230176757+230197198+230226805+230297073+230401078+230469156
2089+230464286+230508014+230623124+230679676+230701515+230806311+230989128
2075+231114668+231152684+231202260+231206523+231138799+231208174+231474184
2062+231686794+231737903+231791472+231903363+231976092+232011277+232061021
2048+232024825+231901627+231937284+232163728+232338709+232339990+232277017
2035+232303170+232460879+232672797+232804993+232870308+232998898+233191101
2021+233307625+233288702+233329532+233555875+233799574+233962372+234101730
2008+234259455+234411687+234511546+234633531+234848617+235058513+235150351
1994+235101163+235093766+235334853+235725696+236113623+236393249+236574347
1981+236829572+237151325+237386279+237508264+237606690+237641740+237532344
1967+237536556+237913632+238436030+238778089+238926765+239052474+239308542
1954+239666323+239910696+239970500+239972893+239890155+239726683+240026934
1940+240951819+241732156+242061290+242273916+242545184+242824355+243087028
1927+243204868+243042154+242966190+243130689+243324021+243935629+244874652
1913+245362438+245401044+245592319+246189233+246855472+247300962+247624737
1900+247937223+248165183+248409051+248793692+248914817+248857473+249409597
1886+250338408+251023503+251555439+252071737+252509459+252869296+253190106
1873+253058718+252160306+251688562+252987371+254922542+256136657+256727724
1859+257176095+257728792+258352718+258936841+259441108+259674326+259313478
1846+258655177+259266397+261259046+262676284+263321526+264026168+264541388
1832+264112041+263548139+264276473+265612169+267054026+268772645+270098213
1819+270884785+271593656+272142730+272222823+272453564+273578133+274975841
1805+275756818+275794193+275686381+276373043+277602038+278008973+277626034
1792+278582127+281245076+283320784+284257094+284728518+285112283+285958069
1778+287154525+287329506+286089608+285521324+287669391+290850357+293148802
1765+293919972+293912827+294762523+296122332+297314811+298405173+298438066
1751+297537447+297723887+299556569+301587825+302803019+303278656+304204787
1738+305209108+304713284+304906969+308055649+311215181+313518142+315120842
1724+316093314+316343417+314991325+312959564+314007765+318205555+321927237
1711+324013393+324387249+323880607+324009180+323941203+323032899+323838243
1697+326672685+330976940+335417284+337645561+338431358+337968663+335977142
1684+336759872+342030398+346305231+348039302+348610787+349726965+350634459
1670+351675953+355292889+359162523+360923218+362670028+365840614+368206092
1657+367670432+364720729+365823898+371684749+373821693+375453579+381205269
1643+386968283+389938747+390266870+388810133+390379974+396873883+401880859
1630+404280410+406361241+408707105+411474042+415817829+419805454+422313694
1616+426768563+433411672+438737975+442918611+447337116+452304188+457373075
1603+462415978+467666215+473294185+479216272+485460180+491855478+497925517
1589+503785525+509852801+516321333+523333243+530750825+536943775+541591387
1576+548506875+557012931+563115560+569240669+577539053+585589929+592692430
1562+597690846+600083488+608228056+623097594+635650590+646214964+655874371
1549+665489628+673771296+680123387+685503917+692416945+705798472+718971652
1535+727985800+737177153+747432075+756001356+763600288+770708046+776077387
1522+782190396+791379053+801396712+811785364+821852093+830225229+836809190
1508+841807067+849974148+863150564+873833703+880298832+884184676+888959310
1495+895283429+900335970+903353313+906951679+915203959+925038751+930921441
1481+933182038+935533901+938694140+940552066+940784678+942461084+946370655
1468+948021784+946156175+946802041+951454404+953278358+949786423+948512216
1454+951482781+952621842+951686341+950118320+949024353+947764166+945853194
1441+944679756+942918488+936310261+927241044+921533672+918446364+917353205
1427+916615939+915265162+915920869+918034795+919368115+922367326+928761141
1414+935285045+939640898+943415795+947088912+948836497+950071744+953145707
1400+957147351+960043165+961305306+964481722+971186539+977338643+980873110
1387+981931489+980979945+979888067+980430872+982269115+983646315+984937238
1373+987512478+990948198+995030120+998232420+996404624+991077074+989606924
1360+992408641+994633919+995084178+994606081+993520202+991672656+990575453
1346+989946236+986074008+979406600+973934064+970973138+969814799+969403702
1333+968600717+967206599+966309046+967532565+970499422+973395168+975015832
1319+974456445+974322379+977483292+980252993+979447110+978807243+981589548
1306+985872469+989461331+992369277+993714258+993648404+995497500+999255007
1292+1000704060+1000681614+1003596570+1009847354+1017453026+1023556194
1281+1027105288+1031561168+1037446217+1040770316+1041317637+1042150617
1269+1043779705+1045043464+1045159804+1044636411+1046745552+1051885853
1258+1055113025+1054964534+1055390662+1059259386+1064201856+1066227011
1246+1065934815+1066483956+1068535263+1069874245+1069999010+1071432425
1234+1073741823+1073170102+1070184169+1068245022+1066911230+1065762125
1223+1066580209+1068136097+1069101929+1070774898+1072254485+1070875398
1211+1067195877+1064967634+1065791783+1066929092+1067143639+1068467118
1200+1070150332+1069767342+1068270635+1067496769+1066527768+1064892883
1188+1064861675+1066921408+1067810333+1064768724+1059884693+1057792134
1177+1058734578+1058771515+1056024530+1052654664+1051861318+1053992769
1165+1055380821+1052989797+1049537293+1048438877+1048224060+1047358726
1153+1046126041+1044461160+1042580048+1039429177+1035542727+1034314961
1142+1034758345+1033494991+1031490529+1030409435+1029775904+1028404029
1130+1024882235+1021984736+1023636742+1025842675+1024271014+1021887944
1119+1020577946+1019452837+1018527716+1016984298+1014644299+1012912621
1107+1011998689+1013015075+1015454900+1014126703+1009158417+1007008834
1096+1009783050+1015637632+1021764999+1022384442+1016188728+1011149870
1084+1013194572+1021130524+1028765585+1029507501+1025985235+1027146876
1072+1034102369+1039435581+1039241457+1035556747+1032295131+1033443023
1061+1038506011+1043804510+1046017790+1045010841+1046064771+1052599797
1049+1060968079+1063732117+1057147751+1046304729+1037971834+1036438392
1038+1041293911+1043983872+1040286759+1035736715+1034023978+1034166201
1026+1032609234+1029684504+1028825709+1027901060+1025058294+1023988389
1015+1026087621+1028330761+1029410979+1031059480+1034874213+1038331233
1003+1036616608+1033049585+1034752144+1040795390+1045808500+1048675600
991+1051029754+1051278879+1048730399+1047031480+1047403078+1047307634
980+1046511727+1047326372+1049228043+1052503679+1059234109+1064640387
968+1063942351+1060479332+1058419868+1060037566+1063961156+1065361476
957+1064141732+1065530525+1070102138+1071163752+1066497167+1062837463
945+1063656153+1065036790+1063821562+1061691931+1062457035+1066846455
934+1069265654+1065577910+1059944548+1057556826+1060225893+1066717443
922+1072162209+1073533747+1072457236+1070515460+1067473110+1062945310
910+1059929045+1062696791+1068947911+1071882414+1071042964+1070894473
899+1070948936+1069616492+1069252645+1069646082+1068878552+1067248789
887+1064382499+1061913623+1061936675+1061919150+1061619943+1062591506
876+1061144408+1055576360+1048960921+1042469842+1037658675+1038317482
864+1042043714+1041913893+1039202228+1037669864+1037169187+1039946301
853+1045052496+1045175104+1039643927+1034111334+1029805023+1028060538
841+1030723066+1033289948+1033523031+1036033024+1040639957+1040096613
829+1032774239+1027346729+1028380168+1030087648+1029418393+1029729935
818+1029121007+1023776538+1019056097+1020483715+1023539276+1024353989
806+1027432602+1033143411+1035612827+1033704820+1028759451+1020426354
795+1011144140+1005085930+1003230364+1005414795+1009708838+1010403100
783+1007513757+1005732538+1004601093+1002416864+998511540+993242565+990425075
770+992094067+994595769+993703878+989261546+984740014+984267039+984869227
756+978362241+967297797+961362262+962014868+963628859+963354659+963468774
743+963452799+960404450+956725739+956135953+957748730+958123766+954754844
729+947316468+938427423+932425360+930066488+927344307+922117594+917658073
716+916737604+919291813+924755789+929311899+928889141+926534852+927043415
702+930243558+932630673+930802675+926526494+924655492+925782488+927655309
689+927386637+924218107+923187498+926293815+929251370+930036425+929782582
675+928435309+925597261+922258401+919666243+922639503+930866304+934513875
662+932274510+933417144+939011681+937814585+932249233+930485674+928605774
648+926632925+933025459+950800450+965166952+955210024+931643608+919318640
635+922479014+929389077+935972701+947635424+959842166+960334148+940334823
621+914122461+903166469+895731801+880556922+878783251+891961622+901883568
608+909927029+917391490+919376675+920513579+917980737
##END=
