##TITLE=Sample description
##JCAMP-DX=4.24
##DATA TYPE=INFRARED SPECTRUM
##DATE=12/9/2023
##SAMPLING PROCEDURE=Instrument type and / or accessory
##ORIGIN=Default
##XUNITS=1/CM
##YUNITS=ABSORBANCE
##RESOLUTION=4
##FIRSTX=4397.6552
##LASTX=599.8556
##DELTAX=-1.9287962
##MAXY=1.9735934
##MINY=0.32987705
##XFACTOR=1
##YFACTOR=1.838052e-009
##NPOINTS=1970
##FIRSTY=0.34897107
##XYDATA=(X++(Y..Y))
4398+189859188+189395530+189650578+189597704+188932343+188759128+189457938
4384+189981458+189213965+188120033+188401915+189560444+190052606+189731291
4371+189620419+190071625+190513296+190924177+191102694+190163851+189130041
4357+189322534+189511704+189329182+189886995+190592340+190369186+189385056
4344+188584632+189208533+191041178+191732984+190647176+189818572+189583095
4330+189082161+189078480+190033554+190771230+190435923+189550358+188948686
4317+188923133+189290301+189621976+189680574+189870100+190640707+191503458
4303+191878279+191914485+191779892+191424106+190865482+190522846+190847679
4290+191566514+192010359+191813552+191492951+191559364+191404957+190768409
4276+190299352+190499595+191530941+192694852+192785311+191877225+190935349
4263+190181735+189955386+190910736+192194259+192568836+192135807+191502988
4249+191277239+191572319+191601650+190979419+190497277+190575331+190681128
4236+190572818+190191966+189757396+190019707+190720366+190993720+190980505
4222+190839199+190575283+190787428+191508160+192228454+192794066+193056329
4209+192929389+192741224+192646632+191969969+190664071+190122375+190921551
4195+191962657+192316529+192391098+192775452+193222750+192893248+191540345
4182+190627816+190789341+190935316+190862953+190719896+190391188+190306551
4168+190889463+191796381+192188065+191999528+191611817+191168329+191120043
4155+191622988+192259553+192813815+193213832+193301729+193056151+192781695
4141+192984500+193471361+193333768+192540024+191964230+192113123+192571009
4128+192432492+191714062+191345662+191687180+192159950+192275832+192266557
4114+192376375+192718055+193292292+193632350+193428491+192834828+192222536
4101+192074258+192489144+192830564+192642627+192621094+193283877+193739428
4087+193090930+191790836+191020554+191434094+192603243+193518252+193747243
4074+193446829+192854318+192536068+192773944+193105214+192945279+192142909
4060+191342355+191278909+191960387+192808999+193110727+192810021+192443810
4047+192408820+192862295+193233630+192585991+191421236+191007583+191454151
4033+192110529+192581581+193169309+193977548+194139494+193436338+192477146
4020+191758035+192029994+193067776+193529310+193504470+193800101+194100353
4006+194146029+193860596+193222604+192801768+192653620+192560113+192734188
3993+193046487+193236808+193501503+193911459+194004723+193677069+193242596
3979+192815517+192748407+193225036+193919080+194454955+194267180+193343286
3966+192411203+192192459+193145020+194312385+194376317+193577887+192705472
3952+192286533+192298612+192303655+191770520+190803707+190929674+192298175
3939+193125822+192756158+191905129+191629409+192234275+192811480+192349849
3925+191469408+191384219+191162962+190406592+191034936+193208774+194492215
3912+194333788+193742914+192138271+189244837+187140427+187193707+188976899
3898+191464852+192168041+190087985+188726310+190531943+191012820+189409604
3885+189416073+189532669+189550861+191098835+190875649+188903109+187662991
3871+187624726+189496366+190125520+188453135+188980823+191534670+191791209
3858+188032721+181240124+179471005+187458175+193616898+194502868+191795327
3844+188044135+185582141+184703532+186128944+189147584+190848620+191526401
3831+191936682+191555181+191081681+189615977+186073476+185351982+187637810
3817+188589577+190936079+193521414+192969762+190201629+188377529+188056636
3804+186095446+185687743+189152011+191095771+191935158+193287720+193748816
3790+193539865+193304258+193008141+192920617+192162722+191003643+191803532
3777+193524251+193625897+191833674+190318954+191259355+192795833+193648678
3763+193072883+190346340+188764835+189443297+187944548+182997681+180203444
3750+183708117+185512388+184101893+186883937+190759653+189478692+185031965
3736+182383314+184485761+189051727+191927051+191925008+191261122+191850650
3723+193502848+195954482+198370737+199478012+198161867+195462742+196604505
3709+202053360+206536488+208171775+209291017+213623046+219630930+223366378
3696+224175461+222394020+218702252+217153662+220475683+223333999+222600863
3682+219264767+214733418+209781541+206844474+208266968+208666985+207862913
3669+210633413+213821620+214634253+214492866+214013011+212702637+211953336
3655+212348554+209936742+204728358+204368617+210554450+215340214+216645221
3642+216708812+217280975+217856866+217810073+217084492+214511350+211585568
3628+214221135+218876246+219616710+217285855+215085215+215946345+217641738
3615+217574141+217341064+217574223+218100726+220014442+222008352+222274019
3601+221674325+221240356+220641181+220606774+221731999+222008352+220403028
3588+219934068+222388102+224567501+225146684+225309538+225469425+225438100
3574+225391760+224839962+223022105+221249241+222230322+224799897+226239724
3561+226740804+227178714+227337401+227115657+227020237+227134238+227069301
3547+227150939+228030196+229120723+229495916+229452414+229543813+229454036
3534+228825205+227935182+227444981+227710649+227995984+227695327+227505119
3520+227941002+228602440+229154026+229385677+229205020+229073994+229043527
3507+228332654+227340757+227653251+228992291+229685913+229569318+229263034
3493+228861427+228364595+227933366+227866450+228231234+228623729+228772606
3480+228769753+228701151+228571584+228537778+228863973+229407825+229653063
3466+229381315+228907329+228787831+229216175+229833040+230253925+230310901
3453+230005865+229508547+229273703+229590850+229835861+229639217+229775593
3439+230560128+231166891+231143867+231070563+231223024+231151893+231003939
3426+231342716+232010039+232636000+233240412+233907703+234499549+234805476
3412+234982664+235212774+235308502+235199543+235191355+235681134+236354164
3399+236568125+236721672+237274637+237842195+238183891+238318630+238471431
3385+238907768+239387105+239782145+240267740+240732452+240997682+241067435
3372+241041995+241250751+241940774+242667505+242977940+243166947+243554318
3358+244007696+244435878+244949880+245448674+245823657+246031911+246052016
3345+246289974+246736996+247001204+247362762+248167937+249077677+249375043
3331+249273721+249563742+250016099+250228925+250331739+250488821+250781922
3318+251080148+251148474+250801331+250285253+250197859+250505991+250633191
3304+250334317+249972872+250325869+251423643+252343111+252863275+253388871
3291+254150592+255354050+256974015+258958829+261068037+262558338+263095997
3277+263385402+264346395+265508798+265656071+265236012+265425879+266050219
3264+266472806+266485453+266087560+265801170+266212635+267029857+267560122
3250+267653353+267410094+266981393+266911851+267211601+267125131+266658376
3237+266575133+266976335+267168147+266784717+266144309+265641024+265471846
3223+265610574+265838544+265987811+266137515+266374403+266365777+265883781
3210+265411027+265195169+264798427+264327667+264271048+264468730+264549265
3196+264318523+264004407+263815092+263214230+262247141+261507650+260795462
3183+260049955+259719853+259796675+259675880+258925995+257984346+257479683
3169+257364466+257385074+257731358+258335462+258418446+257861022+257455086
3156+257358986+256931890+256119987+255678266+255712754+255795835+256012341
3142+256137644+255728400+255219100+255074130+254867822+254186295+253511239
3129+253306844+253145238+252545836+251828055+251564527+251548086+251150728
3115+250329096+249404261+248602588+247887661+246959956+245696766+244342776
3102+243289202+242607983+242026790+241409082+240702099+239961262+239413939
3088+239025823+238623892+238141783+237459851+236840959+236770688+236992107
3075+237062201+237063676+236989967+236674003+236269624+235981030+235696813
3061+235462276+235501887+235676870+235816084+236056879+236533395+236881430
3047+236547436+235885772+235697624+236012615+236260836+236032444+235405397
3034+234660150+233937245+233358840+233166995+233348301+233380437+233013577
3020+232674346+232519891+232375942+232431492+232769150+232999714+232796471
3007+232347179+232022719+231694254+231174349+230792946+230807327+231058370
2993+231291026+231376539+231466284+231901924+232789110+233770418+234274546
2980+234208539+234032746+233920252+233683932+233220388+232649020+232349870
2966+232423352+232487333+232404641+232249083+231956095+231796127+231986188
2953+232044024+231770541+231653573+231769844+231741664+231593402+231570670
2939+231677472+231722272+231529843+231244362+231020316+230784271+230623103
2926+230610180+230586994+230346004+229719265+228870296+228308235+228310440
2912+228686866+229084127+229267120+229247922+229222044+229242036+229060585
2899+228678338+228579156+228924257+229322637+229504964+229570404+229709423
2885+229956542+230222421+230434371+230603500+230768316+230929241+231122432
2872+231294544+231282254+231161735+231107466+231082318+231149736+231421825
2858+231574724+231232769+230551307+229994289+229813729+229808783+229731604
2845+229592779+229451684+229481000+229808167+230202023+230401748+230435668
2831+230454882+230525332+230648024+230881280+231172971+231135922+230744530
2818+230629573+230881410+231023396+231026234+231117665+231298095+231374285
2804+231324394+231448384+231905231+232429303+232702543+232750001+232788883
2791+233028138+233359261+233331227+233068073+233090643+233285877+233390117
2777+233522229+233678776+233696595+233561954+233300891+233035077+233015491
2764+233194916+233281661+233272597+233407498+233686737+233869616+233960480
2750+234125052+234282280+234301364+234214424+234200043+234413031+234647908
2737+234676672+234695350+234859323+234988063+234964326+234911127+235023864
2723+235314842+235504384+235517809+235629492+235811706+235914454+236087572
2710+236274375+236287054+236271894+236401266+236732698+237158982+237301683
2696+237139185+237164803+237592287+238117397+238375330+238294227+238088098
2683+238020436+238116375+238157251+238113846+238175962+238277819+238249752
2669+238232646+238374568+238565911+238672210+238608018+238346145+238007579
2656+237784943+237774031+237874494+237957007+237993910+237944149+237821846
2642+237726459+237704683+237751007+237812621+237821538+237738571+237540840
2629+237265801+237021892+236888645+236788880+236660675+236661778+236802094
2615+236767639+236503334+236372583+236463042+236462750+236252437+236013539
2602+235903883+235804588+235565122+235438409+235680210+236042076+236142506
2588+235961589+235710222+235513983+235415661+235379666+235304124+235148891
2575+234950868+234767989+234622760+234547008+234509942+234390363+234253581
2561+234152098+233901817+233517754+233252281+233206590+233278353+233258167
2548+233006621+232660208+232439194+232330446+232216315+232088110+231967704
2534+231887980+231887347+231843472+231661809+231450913+231262878+231175257
2521+231236563+231232542+231157843+231162383+231064467+230782277+230569256
2507+230549491+230608851+230591080+230483078+230503849+230699958+230824498
2494+230887409+231008139+231037778+230950822+230882804+230894981+231158508
2480+231639742+231841705+231641542+231516094+231610232+231651368+231625571
2467+231672705+231705863+231649000+231627938+231711149+231775195+231766293
2453+231798267+231937465+232164316+232384001+232498910+232590293+232778246
2440+233032207+233305593+233517106+233483413+233341167+233449136+233722895
2426+233865011+233910216+234083690+234398389+234655220+234775691+234841553
2413+234901269+234950138+235093714+235397598+235654802+235702180+235607976
2399+235569046+235777624+236136993+236400034+236536459+236644072+236659751
2386+236260771+235027188+232700500+229366674+225369125+221024206+216553838
2372+212138550+207857433+203631038+199514494+196137555+194110131+193563051
2359+194675045+197594504+202252420+208665575+215256290+218399795+216355443
2345+211550757+208409846+207938617+208678968+209801160+210860556+211664888
2332+212502394+213980112+216017476+217892148+219478064+221476303+224186762
2318+227053006+229530809+231457074+233076228+234772967+236583285+238274171
2305+239665468+240796465+241836582+242858053+243756183+244456259+245081522
2291+245723827+246324104+246831167+247250739+247516877+247584911+247676115
2278+247924904+248108885+248147540+248248651+248506520+248854879+249166449
2264+249333648+249494216+249756074+249979585+250125917+250224807+250313984
2251+250540495+250811886+250826154+250739458+250963844+251355447+251541957
2237+251595691+251695537+251773867+251868331+252112547+252387814+252579659
2224+252684175+252675840+252639099+252624442+252623939+252737616+252976758
2210+253160317+253206706+253260309+253392941+253537424+253694328+253881746
2197+254056388+254169838+254222907+254275019+254393009+254581757+254733861
2183+254839577+255108034+255479660+255629057+255616442+255658777+255681542
2170+255681428+255807963+256011498+256156387+256249634+256323927+256383076
2156+256477377+256645274+256853074+257027878+257110067+257127919+257151348
2143+257214972+257347587+257521321+257713555+257938996+258091100+258121582
2129+258160399+258255300+258385240+258588629+258812870+258941091+259017232
2116+259090568+259103556+259143345+259344043+259593124+259686646+259647879
2102+259624319+259622633+259621741+259671113+259775240+259937284+260142019
2089+260261598+260276547+260349056+260502896+260592576+260547387+260462717
2075+260504744+260681688+260848093+260926034+260947956+261001933+261119144
2062+261253299+261425234+261602032+261656171+261629223+261637460+261685145
2048+261742511+261791461+261834866+261871607+261899106+261962357+262116472
2035+262335038+262492882+262503421+262424734+262408650+262570304+262848327
2021+263024201+263016386+263053241+263302467+263595407+263771541+263875213
2008+264004196+264232166+264509151+264682172+264755914+264891723+265029850
1994+264942619+264855290+265175323+265750210+266268006+266627862+266879034
1981+267121872+267301119+267373401+267463016+267663601+267765830+267612316
1967+267640804+268118000+268624642+268926807+269110415+269232005+269409095
1954+269688431+269940106+270049130+270014675+269783332+269473011+269764005
1940+270712561+271452280+271823550+272193409+272626422+272995779+273243465
1927+273274110+272982419+272756913+272788498+272863245+273448411+274530053
1913+275141259+275144696+275329796+276058262+276815719+277289138+277727566
1900+278179874+278365039+278369676+278539243+278566094+278508826+279200940
1886+280250834+280927285+281448017+281993750+282523270+282966919+283211914
1873+282845443+281620989+280947521+282409804+284685579+286130513+286805505
1859+287253857+287800628+288503476+289164589+289562191+289573768+288989315
1846+287983620+288359657+290700160+292681391+293626574+294417562+294949643
1832+294308344+293369970+294018566+295438562+296871433+298725092+300310504
1819+301245538+301990542+302533746+302512733+302573925+303610232+305044529
1805+305883121+305844110+305580242+306251246+307572045+307880307+307067138
1792+307864482+311127111+313761478+314771518+315195419+315515549+316236200
1778+317419244+317457607+315624508+314364317+316409107+319999521+322866527
1765+323978910+323804187+324441627+325991823+327481897+328726652+328597263
1751+327098856+326795231+328845858+331321910+332671019+333051304+333874233
1738+334781605+333974339+333819267+337223057+341042186+344039099+345973406
1724+346734074+346596189+344687889+341742634+342251075+346961265+351610004
1711+354305206+354667266+353768812+353602163+353228331+351653750+352053751
1697+355121941+359943263+365080532+367611517+368167044+367295408+364710267
1684+365126385+370891658+375705067+377461376+377787895+379029148+380197664
1670+381139378+384921117+389292563+391004121+392341945+395633565+398316347
1657+397423146+393130274+393174538+399708585+402298266+403864286+410091466
1643+416583778+419718673+419621777+417528248+418847069+425867571+431448165
1630+433988879+436003803+438332890+441206025+445944752+450172314+452107270
1616+455862937+462824485+468703224+473087024+477634360+482718609+487786904
1603+492934647+498359683+503734813+509067299+514867692+521033744+526954640
1589+532576969+538326417+544681850+551637106+558577057+564149123+568363097
1576+574821165+582943187+588304664+593065118+600624576+608992922+616542586
1562+621467581+622598675+628674609+643190167+656387520+667316588+676595711
1549+685319210+692813747+697837258+700637624+704916195+717889924+732088399
1535+740872020+748973741+758892283+766545264+772051501+778474611+785141711
1522+792105788+801279649+810882924+819854953+828310985+835200153+839193356
1508+840793167+848467421+864482197+877167185+884535706+888594609+892394151
1495+896960231+900353967+902464781+905720439+913031302+922497341+930054335
1481+934210457+935971307+936085713+934035864+931430975+933440029+939722077
1468+944701616+947683969+950775345+952440661+949928840+944513338+944460545
1454+949631020+952380928+951298995+947171993+942673818+939989999+939007620
1441+937426942+933033056+926653140+920814255+916130656+911987959+909927279
1427+909959448+910338727+911230242+911882113+913734020+921045273+929660981
1414+934975697+939563633+943866720+944752204+945729459+952024932+959259524
1400+962794064+964923102+965571666+963226396+962344739+965570563+970695704
1387+974142169+974440897+974236081+976355455+979898880+981005070+980483949
1373+982065730+985372754+988769409+991144188+990961488+988304584+986301107
1360+988386562+993193453+995495982+992622328+988265086+985371327+982823965
1346+980328943+978393111+975743277+971466067+967712119+966363367+965812347
1333+964431816+961759281+958598055+957907270+961111691+965894974+969025070
1319+970058166+970946957+972401425+975008519+979467910+983238657+983248904
1306+981526255+982644767+986484067+989676814+992142651+994026273+993248386
1292+992921121+997105456+1002230014+1005771363+1010573260+1017835092+1026305717
1279+1032886947+1035110286+1035409079+1036609310+1037177452+1035964768
1267+1035505132+1038568296+1044417428+1047711415+1046306627+1045165091
1256+1046176007+1047211243+1048695480+1051921693+1056074119+1060491418
1244+1065026301+1067958326+1067709991+1064758185+1061454729+1060536298
1233+1061642358+1062176450+1062787072+1065166326+1065602550+1062098233
1221+1060371044+1062932350+1065339687+1064694496+1062736873+1061113714
1209+1059838379+1060392317+1063286790+1065486911+1065746790+1065660726
1198+1064931092+1063008945+1061859173+1062103811+1061647676+1060216427
1186+1059638752+1059651917+1058889921+1057292834+1055646391+1054807150
1175+1054448625+1054909040+1056081123+1054158912+1048269828+1043289446
1163+1042822416+1046605809+1051172278+1050751231+1044336098+1038831223
1151+1038592876+1040419425+1039867757+1036176719+1032372636+1032873262
1140+1037179981+1038603772+1035411414+1031720701+1028469064+1025237014
1128+1022558643+1020836708+1020414169+1021061694+1021450962+1018953734
1117+1013407287+1009917692+1013068023+1019263423+1020589929+1015769030
1105+1010540443+1010237888+1012150955+1008757607+1002667988+1002651255
1094+1011569777+1024786133+1030718606+1024280124+1015051265+1010318310
1082+1010412546+1015320418+1022579527+1028413547+1032409086+1034629571
1070+1035032848+1033484598+1029247145+1027675093+1034400823+1043514238
1059+1046921076+1044796772+1039688494+1036107063+1038909894+1043973356
1047+1044466913+1043076134+1044306329+1046471362+1045534059+1039171330
1036+1030023151+1025554097+1028952827+1034977201+1038177407+1038648004
1024+1038849318+1039250908+1037357234+1032511169+1028539822+1026713079
1013+1023566899+1019615009+1019367258+1021760002+1022030583+1022525177
1001+1027527804+1032647627+1032811389+1029514353+1027092619+1029884359
989+1035611496+1038137001+1039136502+1041849312+1043758941+1042940260
978+1040944826+1040754148+1043182498+1045790955+1048014100+1050530849
966+1051568161+1051452846+1053765169+1057247694+1057265010+1054771090
955+1053335690+1053697978+1056612102+1062679864+1066897341+1063954875
943+1057247499+1052905563+1053827625+1057881988+1060215649+1060943142
932+1064178240+1070389530+1073741823+1070909937+1065375877+1062343714
920+1065279371+1069646471+1069349948+1066537972+1064333701+1061530027
908+1056838256+1054364506+1055560327+1056112578+1056614307+1059437178
897+1064130700+1067890810+1064632104+1055500464+1050935812+1055052502
885+1062255120+1066132880+1062302660+1052914643+1047329736+1048777199
874+1051959634+1051524902+1046172699+1039599057+1037680867+1042453773
862+1050281087+1053423506+1048927147+1044438830+1042262706+1037411194
851+1033689998+1035132143+1037395823+1038380212+1038650793+1036541860
839+1032985204+1031633145+1031891662+1030961557+1030704597+1031688856
827+1029235082+1025265551+1026616119+1030193594+1030481750+1030635784
816+1031278186+1029857897+1027952419+1024825825+1022121771+1024334928
804+1026298453+1024659534+1025305957+1027048646+1023054145+1014532025
793+1009515778+1011438962+1015064820+1015322623+1012627714+1009946489
781+1009119635+1007260335+1004339141+1004376563+1003820874+999472582+996201684
768+996286775+996218546+992123259+986350398+983577466+982316205+980145983
754+977951699+975083039+971233752+968880635+969024875+970577990+970312662
741+964989386+958164361+954035607+951426632+949862363+950280232+951589811
727+950963623+944414302+932241160+923525703+923113866+922700861+918245750
714+916750423+921531566+928872977+933274970+932538656+929310627+927002391
700+928491492+933389182+936239682+935343368+933707497+931354509+929201409
687+930029625+931996976+930747454+927632146+928921165+934324734+937245214
673+936693352+933699714+929896604+933743168+938672637+936854066+935662720
660+934951571+930782931+927463195+926647822+925684511+921061552+916299477
646+919034922+918341738+910177689+915868507+931848844+934041636+931273958
633+938246661+951639620+965001384+967927507+948853717+920723002+910622149
619+915411724+912721678+909643727+923827480+944122838+952867480+963556320
606+978869805+974703111+952410049+933818336
##END=
