##TITLE=Sample description
##JCAMP-DX=4.24
##DATA TYPE=INFRARED SPECTRUM
##DATE=12/9/2023
##SAMPLING PROCEDURE=Instrument type and / or accessory
##ORIGIN=Default
##XUNITS=1/CM
##YUNITS=ABSORBANCE
##RESOLUTION=4
##FIRSTX=4397.6552
##LASTX=599.8556
##DELTAX=-1.9287962
##MAXY=1.8548276
##MINY=0.27362305
##XFACTOR=1
##YFACTOR=1.7274429e-009
##NPOINTS=1970
##FIRSTY=0.28693894
##XYDATA=(X++(Y..Y))
4398+166106181+165286732+163594870+162718489+163842337+165779423+166706612
4384+166890400+166718326+166263021+166368053+166918780+167090095+166937603
4371+166949455+167432639+167710349+166814042+166018125+166756005+167834997
4357+167987800+167367201+166485472+165910333+166213818+167261290+167782205
4344+167456586+167262825+166986875+165937730+164870935+165039024+166343141
4330+167332645+167491211+167875074+168179749+167133243+166020937+166462458
4317+167016790+166004858+164343291+163557864+163773621+164697739+166475776
4303+168471226+169086253+168196915+167421667+167494472+167835877+167829821
4290+167603213+167697289+167976638+168213253+168590629+168577535+167777840
4276+167107486+167064389+167313116+167940546+168384171+167586633+166196238
4263+165499850+165833060+167115473+168305950+168178058+167347775+166903322
4249+167054280+167520419+167630782+167703069+168615128+169297386+168537406
4236+167468783+167242864+167248747+167011356+167156206+167571658+167431759
4222+167221385+167681503+168218308+168443019+168796880+168969679+168450144
4209+167910786+167726049+167269088+166480193+166011155+166346540+167364924
4195+168336900+168922753+169226428+169031339+168805455+169138527+169290537
4182+168783889+167918394+167096134+166894679+167217745+167395806+167268398
4168+167490400+168152335+168054135+166976886+166155453+166292816+166956235
4155+167441214+167609423+167502063+167333715+167423254+167459501+167455240
4141+168000688+168778093+168688519+167611235+166768220+166800067+166905393
4128+166398469+165738656+165676979+166353337+167278835+167666874+167596726
4114+168088260+168883021+168462583+167012978+166340881+166809711+167375655
4101+167591378+167651398+167842950+167948724+167533393+167204978+167506272
4087+167684850+167445009+167278214+167049415+166811161+166927596+166947247
4074+166457817+165898308+165887612+166219942+166065690+165503265+165522623
4060+166323370+167103362+167832944+168700181+168690365+167609165+166540990
4047+166262366+167145303+168547499+169157988+168471192+167025210+165842152
4033+165565408+166083235+166832916+167295794+167194989+166717636+166506744
4020+166629149+166601356+166533192+166760422+167001626+167046620+167199147
4006+167431121+167312270+166898785+166783609+166975368+166766477+166123192
3993+165935625+166328787+166348247+166195772+166765390+167472958+167595208
3979+167451824+167306939+166869698+166248012+166217096+166626389+166814680
3966+166946108+167361802+168100130+168499606+167929350+167103794+166960168
3952+167569933+168502160+168963882+168184166+166661980+166169134+166884189
3939+167091269+166434716+165926429+166410787+167588703+167889669+166988376
3925+166314450+166376679+166521167+166839886+167470784+167960645+167968512
3912+167629264+167166799+166154798+164776427+164690407+166020040+167330868
3898+168327584+168210786+166384270+165214048+166368519+166721708+166381700
3885+167563256+167695081+166792080+166843198+165915940+164464178+164061165
3871+164010512+164762366+165027241+164246385+165025705+166677973+166473102
3858+163621197+158862071+158397743+164650485+168428475+168511010+166829396
3844+164702639+162832699+161438577+162243137+164916723+165840979+165395007
3831+165848069+166484057+166335446+165106843+162895066+163037760+165088055
3817+165950203+167590808+169180640+168532213+166186128+164542279+164460279
3804+163273805+163256795+166235021+167824801+168503247+169629441+170040373
3790+170018497+170285769+170837462+171291042+170567430+169337757+169964376
3777+171519773+171747572+170542949+169615725+170666354+172385613+173705239
3763+174078544+173130877+173383381+175355351+175555494+173432136+173682967
3750+178904989+182703354+184981707+190981221+196968624+199201845+200054901
3736+201867528+204984549+209525089+213886344+216164559+217010645+217644132
3723+218577238+220353930+222571399+224540402+226240786+229249014+237083083
3709+248403044+258874002+267856573+277908370+290824874+302749682+310917462
3696+316348168+318422410+316599603+314405183+314553414+313556716+308999975
3682+302110727+294634142+286827418+279804430+276714772+274464764+271686389
3669+272288441+273711875+273162528+272421439+272342562+271535276+270520600
3655+270917299+270025236+266966442+267612470+273782885+278940022+281299581
3642+282373587+283124993+284278670+286259301+287900820+287591401+286863820
3628+289506593+292084359+290879391+287076420+283501317+282814694+283606090
3615+284000650+285217539+287760318+290890398+294059158+295784628+295431957
3601+294862459+295636603+297153320+298595093+299386972+298987375+297854763
3588+297795622+298840696+298933824+297968766+297061779+296673016+296691511
3574+297051359+297336642+297104427+296959542+297716331+298434267+298576736
3561+298694431+298727901+298579427+298290038+297931501+297905761+298470842
3547+299801268+301075211+301118652+300506541+300226985+300063054+299543105
3534+299184361+299204650+299188812+299361059+299893913+300043973+299403258
3520+298725968+298413944+298155608+297992367+298093776+298485403+298992447
3507+299268380+299191090+298858604+298280135+297286680+296162970+295405871
3493+294966421+294743142+294753286+294844965+294934608+295200845+295438409
3480+294958451+293984214+293134126+292562420+292746812+293516712+293863173
3466+293558014+292913055+292510214+292682323+292620215+291892307+291139418
3453+290854755+290805862+290562950+290297334+290087167+289993935+290360443
3439+290597834+290403746+290318313+290153208+289533748+288732535+288209360
3426+287810953+287393793+287655752+288444767+288643927+288232185+287824513
3412+287606324+287580859+287590728+287640414+288048155+288640080+288749943
3399+288184862+287639258+287630304+287723984+287392551+286843221+286891320
3385+287571129+287960755+287933858+287868144+287753451+287773171+288041944
3372+288209325+288296725+288601090+288853939+288880629+288895155+288885701
3358+288927762+289214098+289597582+289911677+290147308+290098657+289977649
3345+290479207+291203078+291300450+291221952+291734656+292420848+292139774
3331+291172473+291092560+291921360+292510629+292605240+292470603+292214717
3318+291808323+291366941+291007127+290628854+290350574+290031959+289430718
3304+289112223+289186167+289105943+289361743+290531068+292020284+293313757
3291+294231785+294610610+294928535+295559830+296284116+296828666+296832289
3277+296326556+296004284+296479135+297584316+298626871+299269001+299648413
3264+299819935+299580474+299028504+298470807+298208711+298468978+298702057
3250+298466701+298205398+298216025+298233692+297910384+297437810+297314767
3237+297572550+297769226+297495191+296955505+296762832+296588860+295817924
3223+294915078+294206665+293773116+293682610+293634442+293635615+293479344
3210+293061804+292885935+292671627+291838790+290841402+290234432+289969058
3196+289753611+289371732+289076183+288841949+288323863+287588295+286747247
3183+285669807+284315366+283521830+283473403+282893416+281433597+280138659
3169+280079414+280668528+280013614+278169484+277547211+278521758+278712465
3156+277566396+276834140+277594017+278233472+276612379+274276369+274471148
3142+276937947+277481756+274697842+272131704+272421336+273786543+272370027
3129+268873008+267824380+270436030+272374099+270142327+266802338+266562411
3115+268878770+268747722+264298550+260681610+261773075+264250864+261971476
3102+256068937+253147799+255488502+258208651+255536032+250521692+249709093
3088+253427993+255112057+250635937+245715122+245493740+248172001+248757526
3075+245534007+242610419+243281895+246271180+246924127+243806071+240932428
3061+241181706+243601769+244050208+241328954+239115039+239379533+240646196
3047+240473983+238983438+238026161+237921285+238110732+237979942+237085119
3034+235904563+235357786+235395327+235022436+234028136+233421753+235848889
3020+247096063+266939252+279313844+273097780+259272616+248722383+242178267
3007+237669557+234631603+232968553+232044693+231096318+229572425+228057589
2993+227891467+229678716+231713536+231417866+229603324+228878280+230141474
2980+232135026+232177363+230227304+228899327+229099885+230251405+230716717
2966+229176433+227228513+227348641+230357127+232931150+230934009+226853466
2953+225159361+226920129+229882000+229750779+226748986+224784780+225430636
2939+227885204+228872483+226624701+224095258+223622736+225349775+227495941
2926+226854725+224024300+222134192+222391389+223839856+223534559+220731806
2912+218363810+218306947+220104513+221433025+220490171+218712548+217949635
2899+218623492+220025498+220190723+218797895+217785928+218128852+219233170
2885+219692098+218806107+217846139+218019058+219010926+219728707+219458778
2872+218700075+218278170+218364639+218678889+218681684+218050802+217251815
2858+217056864+217470626+217601708+216873507+215697195+214773974+214548487
2845+214852644+214979328+214705172+214507443+214737020+215211457+215585124
2831+215782231+215837525+215760252+215722263+215789167+215673025+215271719
2818+214848849+214577350+214491744+214538066+214511066+214371547+214336404
2804+214405707+214497178+214735329+214965716+214913424+214772990+214861805
2791+215082048+215066952+214764830+214494297+214371513+214243846+214089093
2777+214012131+213997984+213874647+213654249+213532000+213346141+212944922
2764+212624651+212621511+212904741+213229326+213329700+213198807+213098226
2750+213308790+213584585+213549079+213377195+213283498+213244422+213227894
2737+213209675+213216801+213280065+213396173+213566349+213686408+213579892
2723+213353076+213304873+213419687+213486471+213453571+213394292+213376746
2710+213391204+213446532+213561070+213540591+213270058+213089082+213161473
2696+213214282+213269368+213413287+213404264+213280047+213315777+213487040
2683+213589916+213535985+213357527+213134766+212979823+212912488+212850983
2669+212806110+212831609+212855486+212751075+212477437+212128648+211913132
2656+211908923+211863049+211655763+211589514+211698445+211622656+211353710
2642+211174511+211123047+211019102+210795702+210598630+210437700+210168392
2629+209919442+209825641+209713329+209526884+209334573+209076323+208777652
2615+208515676+208321674+208278129+208317758+208212985+207910035+207581034
2602+207373506+207210317+206979050+206794037+206759808+206743902+206632366
2588+206490103+206388867+206324240+206239704+206077895+205875232+205650228
2575+205375123+205133712+204989397+204894182+204770155+204518410+204142448
2561+203789846+203616150+203586010+203475596+203324742+203369149+203444628
2548+203310422+203119992+202952662+202688512+202488731+202582411+202745428
2534+202712666+202633029+202596937+202483435+202259949+201972129+201788013
2521+201820240+201866338+201748660+201587645+201480508+201373182+201354446
2507+201435790+201391521+201239701+201201728+201315093+201455665+201539062
2494+201575240+201586471+201646716+201796259+201978271+202209520+202478207
2480+202653266+202665860+202543645+202391842+202326301+202310722+202300629
2467+202360650+202487144+202644002+202807915+202878960+202814747+202749051
2453+202774153+202810762+202884257+203104016+203387212+203653950+203913234
2440+204118209+204304430+204512578+204644179+204695953+204735374+204697782
2426+204606948+204663605+204930670+205265761+205506551+205619640+205653748
2413+205603250+205577682+205760694+206096268+206370925+206481270+206565047
2399+206800248+207335534+208790902+212362002+219443337+231471331+249365945
2386+272606073+299251507+326983438+354382572+381558600+409504667+439023554
2372+470392679+502847351+533455892+559813921+580601845+593819435+600356875
2359+599279298+585211239+559721449+530686281+503928379+488077401+491566743
2345+510487177+521243385+513044620+500400668+491281218+487513079+490664863
2332+496130177+496075039+491313411+488185159+488050350+485871525+477479224
2318+463765286+449596819+443480403+447461918+450406157+441807795+422726812
2305+400927801+384572228+374892459+366810940+357146560+345468390+331635790
2291+317190804+304207914+292828381+282633804+274003076+267037625+261379620
2278+256681186+252541623+248718294+245317715+242523105+240157853+237915712
2264+235890778+234241978+232795581+231376547+230017137+228813152+227788954
2251+226794118+225711969+224675073+223863094+223263716+222731034+222290860
2237+222031317+221757437+221381389+221122001+220911903+220591976+220420955
2224+220514031+220652135+220765293+220849622+220871015+220931450+221154935
2210+221462733+221675678+221810591+221983338+222175718+222368944+222638148
2197+222995357+223299221+223397128+223393298+223602516+224039827+224403764
2183+224664445+224922367+225039303+224999657+225001969+225038406+224969224
2170+224918382+225004281+225075101+225090059+225055589+224812573+224458712
2156+224284395+224230344+224127675+223978012+223763428+223467896+223174349
2143+223165637+223581106+224141960+224644139+225050206+225355244+225662973
2129+226049941+226467929+226825276+227089546+227311963+227593002+227937271
2116+228272776+228525246+228673167+228852763+229112755+229365570+229611760
2102+229943780+230320070+230592983+230885616+231389538+232074488+232790820
2089+233388059+233891101+234496518+235334979+236369684+237537646+238739715
2075+240031135+241697687+243777536+245999888+248167567+250413865+252838932
2062+255404708+258291272+261586129+265103575+268592106+272069182+275688278
2048+279350195+282948347+286409344+289713206+292787493+295468669+297799797
2035+299849368+301546750+302789363+303598253+303959930+303923493+303650700
2021+303148244+302496074+301568488+300178334+298586777+296989906+295381580
2008+293750791+292079770+290345640+288592188+286960261+285499786+284159026
1994+282866796+281575031+280351862+279292245+278360484+277559685+276940466
1981+276352025+275696577+275117228+274693581+274364494+274101552+273926976
1967+273819115+273787492+273880999+274094358+274446615+274916222+275361814
1954+275787721+276321264+276886466+277390267+277911286+278579001+279451811
1940+280362334+281204728+282032510+282782484+283442746+284144413+284922784
1927+285606026+286123301+286614163+286950599+287136700+287707750+288573314
1913+289069489+289193016+289344732+289640609+289992107+290399053+290807656
1900+291053225+291143627+291326087+291690007+291911940+291977568+292370954
1886+293039135+293530135+293874490+294347306+294833648+295080459+295174691
1873+295088843+294554092+294075376+294618374+295681977+296325141+296402225
1859+296084679+295641813+295285347+295054511+294951619+294834372+294167020
1846+292889316+292315816+292669936+292486337+291790691+291448199+291157947
1832+289874515+288121960+287640811+288117647+288511723+288700636+288733570
1819+288730499+288477357+287777673+286912454+286303708+286219396+286337591
1805+286409516+286463343+286077254+285479877+285389130+284937776+283849019
1792+284127557+285935751+287284879+287934100+288101964+287961910+288226215
1778+288720562+288304196+286749869+285884443+287756056+290627612+292259263
1765+292466394+292349078+293021054+294037317+294863114+295589435+295829691
1751+295502070+295449140+296465920+298020695+298931408+298923921+299266758
1738+300004017+299864377+300590905+303624097+306265075+307985300+309221839
1724+310176615+310527043+309445325+307996445+309437769+313262288+316301794
1711+317965638+318272798+317899390+318250128+318433072+317648473+318368272
1697+321115525+325194653+329387025+331796202+333017629+332808566+331098003
1684+332617514+338495434+342743807+344198243+344896339+346638612+348232481
1670+350091310+354583838+359073398+361375231+363793758+367792491+371232802
1657+372053252+370654678+373205393+380129594+383650094+386928786+393627258
1643+399778558+403228599+404417660+404265530+406681159+412987694+417784276
1630+420030143+421609658+423265152+425220214+428259479+430402281+430523633
1616+432263180+436820783+440489238+442776131+445202112+448437983+451957034
1603+455482053+459226211+463233329+467367457+471744636+476459614+481289320
1589+486228130+491431382+497111487+503502696+510166940+515492615+519352052
1576+525259715+532977832+538775494+544543862+552731068+561393884+568912151
1562+573574785+576023712+585550212+601230461+613812202+624838891+635377272
1549+645754999+655421588+663699644+669283447+674596804+688271579+703775579
1535+714488415+724744411+736497421+746338051+754468704+762254518+769264325
1522+778038005+789683154+801083734+812248994+823023317+832110436+838948549
1508+845032668+856636342+870470184+879100670+885094456+890041442+895321536
1495+902114310+908367225+913377700+918216205+924662277+932343818+939386750
1481+944833087+949141463+952323887+952319333+950717286+953541346+959902053
1468+964240932+965845463+967281680+968710790+967821538+962875035+959412365
1454+960672747+960108252+957932464+957861868+960335775+961700845+959768038
1441+955043329+947194578+937102203+930496444+927333481+923540119+922122534
1427+923292653+922301613+920529045+919371072+919100971+923834374+931966338
1414+939221542+945618686+951126579+954109498+955958459+959834976+963868145
1400+964514208+963941915+965842081+969548146+973305761+976000498+977432989
1387+977956009+978270138+979509680+982239404+985557845+987009452+987242150
1373+989977395+994352021+996120793+994125947+991265312+990806954+992589459
1360+993213784+992425562+992925740+994341600+993715895+990642505+987818100
1346+985937947+983938546+982137892+979368349+974941760+971466668+969501013
1333+967633075+966425484+967108881+968833557+969355473+968158924+968372162
1319+971167928+972821731+973053740+975633369+981260993+986255872+987681462
1306+987952116+989795556+993284933+997107554+998887230+1000007524+1003153166
1292+1006354292+1007828326+1009314851+1012581397+1017638592+1023509542
1281+1029560467+1035643827+1041686886+1047488619+1051516267+1052487915
1269+1050950323+1047608902+1045019887+1046248871+1050049271+1054316311
1258+1059287589+1063809066+1065385027+1064195793+1063304196+1064300618
1246+1066088161+1068366221+1070504399+1070591557+1069922928+1070911829
1234+1071819919+1070746759+1069759445+1069651101+1068568555+1066887217
1223+1065565003+1063974619+1062861226+1064030930+1066849676+1068838933
1211+1068857082+1067797033+1067122814+1066908127+1066107967+1064267977
1200+1061916215+1060057731+1059480332+1059524843+1058780787+1057980557
1188+1058158531+1057832739+1055756048+1054155244+1054065118+1052245141
1177+1049354557+1047837667+1046144736+1044431999+1043908565+1043441166
1165+1041525542+1038918309+1037721415+1038533376+1039842065+1039230782
1153+1037050647+1034829520+1033094907+1032411026+1031452766+1028976236
1142+1026977318+1028025705+1030067477+1030046636+1030631351+1033198489
1130+1033736760+1031624254+1030618584+1030342616+1027874713+1023615264
1119+1020458580+1020119193+1019960403+1017955758+1016616222+1018536676
1107+1021697363+1021791008+1019724875+1018077421+1017541082+1017674684
1096+1016877559+1015891074+1015928408+1017487048+1019807203+1022441833
1084+1026597699+1030179410+1033165296+1037131456+1037935827+1036336264
1072+1037903392+1040909291+1043247596+1045663466+1043573664+1037042642
1061+1034994313+1040019626+1046211468+1050236079+1054319486+1058993197
1049+1061613679+1060261929+1055413004+1050762687+1049393616+1050295013
1038+1051553256+1051436285+1048766875+1045307310+1040848011+1034599443
1026+1031931275+1035436938+1038756483+1037210541+1033313390+1029827532
1015+1027759261+1027115682+1026580309+1026461337+1026432353+1025806924
1003+1027115958+1031386172+1035419202+1036476008+1037151193+1040103472
991+1042742242+1043800773+1045398126+1047380206+1048133992+1049231444
980+1051314139+1051177777+1048784955+1047742228+1051047902+1058278469
968+1064003396+1064323874+1062155470+1062241524+1064313799+1063718595
957+1060444113+1059569216+1062393344+1066982864+1070655667+1070234435
945+1067049182+1065427468+1067064226+1069501075+1069114210+1067291887
934+1068208742+1071738972+1073741823+1072661209+1070294956+1068385819
922+1068888481+1070865178+1070722191+1067781230+1065186557+1065129693
910+1064351478+1060060836+1055892755+1056982754+1062881653+1067711186
899+1068084249+1065337549+1062790906+1063014909+1063334629+1060725049
887+1058447542+1059209747+1059065518+1055565514+1054573922+1057781949
876+1056717345+1050875379+1047290011+1045267492+1044516811+1047798608
864+1052014444+1052064268+1048274012+1045601772+1044749717+1041499250
853+1036366766+1031914989+1027960560+1026578446+1029410027+1033245209
841+1035388424+1036674754+1037419707+1035263587+1031057689+1028044199
829+1024893933+1021353007+1019675603+1020042524+1021518767+1023970039
818+1028952911+1032748412+1030476770+1026996365+1025830318+1024072932
806+1022038475+1021724897+1020541736+1018432956+1019150443+1020460029
795+1018128833+1013508190+1009980444+1008691561+1007667259+1005880820
783+1005983851+1007995259+1008168472+1006530403+1003860855+999092187+994993874
770+993105785+989853938+986158155+986530874+988004494+985841818+981574432
756+977714270+975762554+975730879+975578714+973304312+968579534+963544906
743+959271931+955130004+952696398+953044756+952461146+948177889+942052019
729+935298788+929624100+927513388+928278630+928795577+925550148+920955452
716+921491101+925571402+926823090+925560637+925691616+927965811+931294880
702+934888598+937905676+938909276+937742470+935377597+933326577+933184280
689+933881548+934834081+936788902+939573074+941578065+938196619+932849310
675+935078028+944585275+953886184+953448805+944264659+944335462+948434741
662+947783916+944478863+939254873+933803361+934082158+940458599+946788253
648+945442299+936476222+928987836+927540991+929192724+930089429+930056994
635+932163359+938532072+950072051+960169049+955567453+940863200+932182268
621+929017648+925274801+923845071+925211451+931768558+938547254+928011427
608+911507139+909813311+920031282+931566569+934479374
##END=
