##TITLE=Sample description
##JCAMP-DX=4.24
##DATA TYPE=INFRARED SPECTRUM
##DATE=12/9/2023
##SAMPLING PROCEDURE=Instrument type and / or accessory
##ORIGIN=Default
##XUNITS=1/CM
##YUNITS=ABSORBANCE
##RESOLUTION=4
##FIRSTX=4397.6552
##LASTX=599.8556
##DELTAX=-1.9287962
##MAXY=1.8556511
##MINY=0.25068614
##XFACTOR=1
##YFACTOR=1.7282098e-009
##NPOINTS=1970
##FIRSTY=0.27457672
##XYDATA=(X++(Y..Y))
4398+158879277+158314912+157712661+156682640+155240300+154746914+154995013
4384+154550653+154143628+155101515+156382980+156491466+155900528+155624131
4371+155868918+156473980+157303826+158374251+159202597+158970363+157988834
4357+157117687+156486155+156246299+156391137+156282082+156293360+156984783
4344+157427349+157389756+157689295+157992628+157650322+157103461+157021807
4330+157297325+157473185+157618868+157708574+157265784+156782452+157394119
4317+158662667+159025977+158246572+157266940+157033758+157884142+158813610
4303+158900454+158158624+157116084+156880626+157688674+158753426+159157692
4290+158515933+157770414+157735424+158555785+159695586+159495289+157801454
4276+156892007+157872243+159032151+159034548+158508449+157887401+157540991
4263+158218463+159412032+159921870+159570924+159053793+158615159+157850015
4249+157454182+158047535+158049535+157124516+156961624+157230778+156901492
4236+156625681+156846964+157222552+157691364+158634059+160017301+160457884
4222+159307151+158437918+159109096+160267590+160558748+159798950+159190284
4209+159498238+160044203+160132927+159624434+159047016+158934839+158965742
4195+158819956+158827819+159309893+159721556+159533900+159100646+158697450
4182+158515674+158646389+158893314+159600913+160618432+160798983+160307459
4168+160350295+160528415+159827938+158788812+158131274+157682052+157648977
4155+158610209+159990227+160365263+159866756+159851167+160282937+160237084
4141+159514655+158763548+158768101+159217858+159311462+158890434+158084955
4128+157524867+157888194+158814662+159493168+159617726+159509482+159267195
4114+158614969+158088387+158110788+157834788+157073938+156976178+157885245
4101+158786708+158946652+158744666+158801107+158971743+158872741+158889624
4087+159114752+158938133+158822853+159353746+159701708+159446642+159245242
4074+159144603+158573530+158075712+158579721+159214840+158947359+158494084
4060+158591033+158935150+159125013+159003973+158722661+158783035+158956999
4047+158720523+158618435+159100198+159819885+160103421+159530762+158772671
4033+158512208+158621832+158728025+158408913+157917114+157860534+158056157
4020+158285010+158402705+158104718+158105752+158808419+159265988+159431898
4006+159934976+160217598+159665287+159089782+159340019+159823023+159846424
3993+159675720+159611363+159635178+159689516+159768444+159997539+160155086
3979+160002316+159914765+159758184+159218479+158842856+158823594+159004577
3966+159475337+159887173+159807434+159477907+159417792+159580167+159604069
3952+159633074+160014042+160660095+160829937+160305424+160017491+160141945
3939+159812970+158828768+157986834+158245003+159477096+160042461+158939685
3925+157997404+158564149+158843460+158487048+158988246+160326256+161086071
3912+160705034+159696362+157613367+154613268+153626169+155552669+157799091
3898+158956050+158232500+155510385+153719238+155024639+155783281+155300949
3885+156007789+156051849+156066955+157810731+157578567+155340802+153612201
3871+152717498+154110795+155543685+155221986+156458650+158795865+158571098
3858+154421129+147134069+145055386+153316438+159462852+160115716+157906801
3844+155027191+152177483+149677720+149664114+152552743+155120691+156729908
3831+157999336+158267041+157783037+155661724+151069447+149828662+152840970
3817+154678953+157663514+161052996+160912297+157534818+154854452+154507455
3804+152818776+152514891+156034760+157971382+159191301+161590304+163250392
3790+163696665+163129697+162027852+161562902+160908952+160104438+161775822
3777+164644085+165366117+163397488+161252378+161841161+163587162+164892321
3763+165084754+163610597+163484367+165635426+165813753+162351257+160709276
3750+166311433+171150670+173195175+179787569+187057729+188891798+187952966
3736+188618005+192402561+198651822+204563830+207248558+207774450+208335159
3723+209170816+210879982+213453259+215393538+216152491+218297739+226369980
3709+238658462+250291200+259747064+269131776+281531607+293909485+302370731
3696+306982046+307807442+304942352+301520502+301474838+301550197+297451220
3682+289921011+281397737+272445882+265028608+263248170+261819885+258816700
3669+259948585+262317823+262315788+261845855+261570045+260222084+259101529
3655+259668584+257826945+252654679+251814883+258606488+265780077+270052674
3642+272117958+273195075+274011193+274860129+275186759+273529465+271548265
3628+274782028+279313845+279590397+276153786+271523795+269850618+270635869
3615+270848996+271414843+273093452+275536273+278696315+281102440+282067104
3601+282881602+283955701+284277209+283946406+283937042+283713672+282465921
3588+282258261+284185020+285347290+284861992+284130854+283997346+284376538
3574+284891032+284733192+283504685+282374955+282746042+283866218+284864268
3561+285795288+286203295+285720653+284874132+284680061+285618789+286900082
3547+287603196+287382655+286589696+286165409+286603371+287217107+286996462
3534+286085756+285251548+285047147+285774663+286803460+287035486+286244234
3520+285152184+284442792+284028042+283639400+283592253+284136976+284632828
3507+284455019+284324546+284996189+285546206+285084654+284083311+283265122
3493+282714243+282233860+282079779+282280679+282443554+282625847+282527415
3480+281620589+280624971+280287873+280258695+280309567+280533350+280774120
3466+280651321+279821820+279117602+279495535+280126032+280165350+279867846
3453+279478428+279106151+278836635+278550529+278059575+277565827+277532200
3439+277792301+277762847+277469533+277344682+277461928+277466291+277039728
3426+276328681+275815671+275828018+276162236+276477071+276682264+276687472
3412+276550291+276315006+275945247+275652054+275758367+276329940+276755261
3399+276765125+276751070+276612665+276329871+276077530+276033539+276485020
3385+276876456+276685696+276431735+276474587+276603163+276619891+276664640
3372+277127158+277885180+278194135+278047711+278201688+278516247+278498675
3358+278644013+279338160+280095354+280340159+279992869+279523229+279527782
3345+280207255+280935443+281027961+280703727+280612796+281129290+281598671
3331+281358333+280944014+280817438+281067589+281551766+281715176+281530883
3318+281288665+281116839+281344813+281525364+280996437+280768101+281330655
3304+281387132+280696622+280518675+281301029+282198681+282708535+283149549
3291+283751490+284618498+285901101+287126383+287774884+288172959+288635718
3277+289404121+290494947+291491445+292144429+291869792+290748132+290502500
3264+291766220+292593721+291699277+290294116+289756325+290022617+290212549
3250+289943981+289303223+288635666+288543649+288926669+289252903+288920772
3237+287921549+287461566+287786524+287768021+287525768+287891475+288270667
3223+287776608+286526615+285529496+285377813+285297504+284896239+284517047
3210+284088795+283463608+282846078+282340983+281811642+281138154+280326898
3196+279851188+279755377+279298963+278404709+277654206+277058939+276330526
3183+275436668+274095847+272998020+273298111+273890654+273060773+271412722
3169+270638284+270678757+270368940+269695572+269712558+270347332+269939066
3156+268384308+267537925+268397104+269448594+268471100+266310246+266119607
3142+268140055+268272925+265121247+262421584+262919609+264824829+263920297
3129+260477391+259275682+261963050+263826917+260832734+256617717+256173875
3115+258879073+259309999+255429718+252162656+253173018+255488126+253208973
3102+247440958+244786045+247127640+249603899+246844139+241758390+240895365
3088+245080549+247881817+244153650+238941188+238085113+240365507+240841614
3075+237892646+235439185+236038073+238234055+238352043+235500196+233197039
3061+233779562+236046023+236105086+233295368+231416636+231986881+233102056
3047+232558850+230977294+230396651+230773101+230786396+229864861+228513348
3034+227491605+227229642+227594141+227735944+227122449+226305382+227869883
3020+238176613+257799008+270837821+265486074+252066707+241379663+234606701
3007+230049741+226938190+225171479+224166083+223165740+221878343+220770479
2993+220629608+222101936+224212850+224607735+223339514+222560385+223669990
2980+225717271+225636152+223272881+221547143+221658008+222978429+223391679
2966+221669183+219858946+220193526+223098762+225321559+223167861+219311377
2953+217848275+219451438+222069999+222063843+219505138+217642253+218139588
2939+220545575+221697412+219688793+217042968+216248388+218114946+220664235
2926+220025977+216973455+215037315+215311988+216723719+216597729+214275483
2912+212174915+211857839+213220974+214374415+213579766+212114783+211622725
2899+212257172+213306059+213196469+211791861+210837216+211171692+212326634
2885+213022471+212430136+211645592+211713518+212391111+213002295+212841955
2872+212148376+211763200+211874014+212218855+212222614+211516912+210778549
2858+210732937+211120303+211252328+210658285+209521451+208648166+208517452
2845+208853843+209096457+208899972+208501432+208498517+209069608+209731853
2831+209969259+209813127+209677136+209740354+209673428+209210772+208698245
2818+208526419+208518711+208357594+208133949+208167886+208446542+208676637
2804+208746840+208722404+208746892+208876278+209006837+209098785+209143432
2791+209147433+209076609+208843444+208580119+208477445+208482652+208449250
2777+208421486+208435074+208310051+208050916+207789332+207494053+207214845
2764+207127932+207266182+207459719+207584380+207652721+207656221+207589140
2750+207586174+207735857+207928824+208148434+208341867+208286616+208033447
2737+207821614+207775157+207928928+208158109+208254006+208208239+208213067
2723+208298532+208251902+208100701+208078956+208146434+208284615+208466977
2710+208425918+208312138+208381340+208368217+208245591+208348006+208560840
2696+208567392+208451888+208364078+208300739+208256972+208215516+208231347
2683+208376150+208582033+208633853+208363216+207952191+207726096+207714146
2669+207780503+207823718+207737167+207576827+207424212+207175355+206878696
2656+206711509+206639082+206530682+206399347+206304036+206182548+206056265
2642+206031054+205953660+205739878+205691800+205823860+205742844+205445530
2629+205244026+205121107+204894478+204590197+204308264+204104692+203989291
2615+203878011+203729535+203649537+203645640+203536585+203300575+203123404
2602+203062151+202964443+202730623+202461141+202272882+202168241+202065843
2588+201916504+201714415+201436845+201170226+201048152+201071466+201064534
2575+200896278+200675185+200479562+200333845+200246346+200121132+199984020
2561+199867361+199641991+199273835+198911595+198741114+198772741+198771499
2548+198595139+198359543+198204721+198211584+198317518+198309947+198099408
2534+197828322+197709834+197804783+197977367+198034809+197920150+197740047
2521+197559220+197389947+197283996+197224864+197089735+196882334+196777883
2507+196814580+196873177+196866090+196823978+196862848+196946656+196943208
2494+196959797+197167422+197391740+197394499+197320865+197422660+197682881
2480+197909717+198025980+198130293+198261041+198349144+198349489+198258817
2467+198169197+198202082+198309999+198400033+198465270+198513692+198608848
2453+198732147+198796711+198886607+199027427+199133999+199256280+199461302
2440+199725696+199993471+200177712+200210218+200187869+200272368+200420413
2426+200563181+200751596+200926284+201012283+201072242+201185695+201365366
2413+201591219+201831282+201955167+201983138+202121284+202289454+202365158
2399+202522791+203094726+204687439+208310137+215363722+227393621+245352031
2386+268742669+295559658+323494529+351421847+379559550+408569106+439139749
2372+471564395+504838822+536643248+564876210+586607846+599134408+604959848
2359+604391879+590912656+565085732+534718266+506128581+489493386+493655168
2345+513270441+523399138+515025840+502991164+493956604+489811238+492613593
2332+498274381+497889102+491681452+487831177+487758335+485422345+476823177
2318+462742219+448139061+442112100+446541416+449622891+440665449+421083458
2305+399018863+382526383+372476563+363987312+354379334+343077589+329337213
2291+314591511+301381304+290151676+280170455+271417309+264249652+258605332
2278+253920038+249708022+245873508+242473593+239548992+237017309+234771887
2264+232772425+230986589+229406620+228014513+226735514+225487935+224262205
2251+223150806+222251723+221491942+220757115+220058138+219402119+218856758
2237+218503639+218222069+217929100+217726700+217604436+217482361+217407226
2224+217375410+217406450+217566118+217707783+217740824+217813423+218013737
2210+218271561+218508261+218745443+219001147+219210841+219352989+219525590
2197+219793623+220096766+220416051+220742974+221038099+221305166+221472870
2183+221522483+221579045+221696050+221823177+221878222+221842974+221839680
2170+222004987+222230012+222272900+222146341+221993416+221802277+221533192
2156+221286956+221157242+221059810+220856254+220616209+220493513+220421069
2143+220412498+220605103+220968844+221440226+221902399+222288299+222678976
2129+223070825+223386540+223638587+223933177+224302764+224636499+224852988
2116+225118021+225494764+225767936+225940020+226099602+226287137+226593574
2102+226973456+227298034+227513488+227774106+228233848+228859879+229579445
2089+230274024+230878759+231526604+232362348+233419409+234697804+236020363
2075+237300948+238780830+240534677+242443898+244475814+246761796+249350110
2062+252095695+255018123+258189133+261601792+265151563+268714663+272313133
2048+275911051+279408432+282823574+286271584+289531697+292224893+294375469
2035+296108830+297542754+298782056+299689503+300083197+300131413+300011805
2021+299578344+298836515+297824497+296520114+295039801+293471817+291908868
2008+290313465+288584778+286834535+285214575+283701308+282239947+280841753
1994+279417899+278003961+276815755+275869163+275074445+274382246+273727847
1981+273075535+272510739+272126184+271796829+271391235+270945910+270538213
1967+270351954+270483496+270737440+271041187+271465439+271897262+272216477
1954+272518620+272937371+273422531+273870391+274210265+274532309+275324251
1940+276661312+277901994+278750429+279356767+279998388+280831631+281637420
1927+282123839+282370334+282741938+283059998+283104610+283700635+284976530
1913+285817861+285934228+285992049+286405816+286933140+287362237+287771107
1900+288167234+288366771+288402502+288545753+288508487+288318555+288825737
1886+289812681+290549164+291184352+291861928+292252933+292278006+292260693
1873+291919973+290638353+289492621+290356749+292287732+293508996+293764010
1859+293448502+292988795+292594893+292316462+292195163+291958187+290826251
1846+288762069+287965196+289097615+289596571+289095598+288891387+288612059
1832+286758865+284180984+283539140+284271329+284880392+285491179+285976925
1819+286232939+286146457+285437583+284202678+283157809+283133960+283652144
1805+283851629+283521636+282630348+282010214+282178108+281616364+279976729
1792+280092578+282641850+284656832+285368932+285392574+285075014+285217369
1778+285773663+285095070+282546349+280774637+283057342+287051213+289477307
1765+289743633+289122861+289671620+290991833+291853444+292487287+292345364
1751+291136516+290563167+291894624+293986155+295219421+295240977+295587594
1738+296257444+295254324+294962131+298608989+302550765+305252859+306997945
1724+307975474+308025587+305926399+302634505+303189161+308080183+312468215
1711+314742125+314778649+313667682+313568008+313215562+311185284+311289994
1697+314706808+320125068+325871941+328857537+329684348+328574829+325209610
1684+325825381+333157276+338899355+340621955+340673275+341889987+343201440
1670+344691582+349723183+355256568+357833225+360380462+365104109+368908720
1657+368785318+364941354+365819553+373966602+377797770+380376186+388057147
1643+396060686+400384050+401125845+399275738+400595297+408284880+414589858
1630+417009968+418097035+419261116+420775090+424050430+426827124+426836298
1616+428524512+434193233+438827069+441292808+443588688+446725554+450281188
1603+454043722+458062167+462227950+466425601+470856986+475879447+481329437
1589+486877963+492431248+498014401+503924857+510285259+515458094+518885876
1576+525086283+533929910+539738726+544607917+552523302+561313264+568725830
1562+572673641+572689506+579793669+597070434+612251356+625038656+636717610
1549+647463216+655929911+661916139+666063678+672019625+688265575+705858744
1535+716642978+725835809+737341075+747728062+755709700+762340740+768153487
1522+776426008+787587899+798303085+810614434+823318408+831609001+835104761
1508+836497713+845534998+864966236+880102116+887381001+890338178+894605393
1495+900789521+904910296+907572865+912705899+921090923+928944469+934639470
1481+939579295+943987848+946305801+946793962+948927673+955127459+961081268
1468+962092354+959728807+959368808+960653463+958677092+953471562+954021941
1454+959753225+961522592+959184635+955203749+953102182+953830457+953155571
1441+948646448+940859398+931931651+927751762+926260033+921811473+918421111
1427+918328818+917675247+918011793+920322089+921971917+924928059+931778657
1414+940167889+946535223+949511231+950917357+952232639+954420016+959258787
1400+964959100+965791050+962536162+963954773+971175441+976612946+977718602
1387+978545240+981867589+983984607+983128653+983375665+985095023+985336930
1373+986378781+989950349+992131311+992339695+993200201+993794589+994519898
1360+997272415+998926243+997487076+995755992+994377940+991578103+987795944
1346+983791674+980285843+977284382+973304669+969332612+967535170+967367622
1333+967217800+967192072+967978288+967681405+965716829+965284610+967494956
1319+970232712+972676827+975159914+977707496+980058904+981431714+983711590
1306+988650933+992237952+991663706+990843759+993118600+996360244+998250254
1292+1000380655+1003993334+1007560142+1011281945+1017867045+1026032511
1281+1032162766+1036325135+1039602579+1042441595+1045338553+1048363260
1269+1050723772+1050796407+1048768370+1046915263+1047337136+1050247407
1258+1053232106+1054286373+1054748874+1056016974+1057542088+1060000895
1246+1062996631+1063915907+1063821407+1065705830+1068276037+1068549744
1234+1067069810+1066211925+1067042150+1068736055+1070519631+1072355976
1223+1072941466+1071925344+1070081411+1067000694+1063121482+1060961352
1211+1062234833+1064137328+1062797490+1059517356+1057957546+1058825226
1200+1060454981+1061229471+1060758210+1059430305+1057167535+1055523916
1188+1055650836+1055085213+1053409588+1052934602+1053224449+1052247645
1177+1050014053+1047625535+1045191353+1043356388+1043623403+1044558614
1165+1043524005+1041572535+1039365844+1036813296+1036074605+1036897794
1153+1036693411+1034616193+1032207671+1030815479+1030768090+1032864140
1142+1035291699+1035518018+1034537351+1032913735+1029126885+1023382426
1130+1018248565+1015516465+1015960893+1019641654+1023899351+1025027011
1119+1023783881+1023940738+1025303891+1025048119+1023023462+1021453581
1107+1020660053+1018288020+1014178627+1010951055+1009653777+1009414077
1096+1011897095+1018860749+1025644024+1027271157+1025038738+1022513918
1084+1022656359+1025477303+1028495594+1029760660+1027199971+1024522848
1072+1029013692+1037601720+1044004992+1047345689+1047012040+1046987139
1061+1050388399+1052355803+1050116279+1045382148+1038718205+1033225932
1049+1035471595+1045130790+1051772590+1050076133+1046184988+1043551528
1038+1040024727+1036570560+1036950149+1039705839+1038358207+1034857825
1026+1035987002+1038741175+1038482368+1036098748+1032240781+1027952596
1015+1027217975+1032292308+1036637332+1034542731+1032180080+1033784175
1003+1034820507+1032737564+1029566002+1028149736+1030467206+1034594396
991+1037200955+1038248876+1039230716+1041485553+1044340090+1046178780
980+1048631586+1052750360+1055484736+1053705229+1049262739+1048177156
968+1051902132+1056133134+1059290762+1061338457+1060323922+1058415356
957+1058672094+1058935661+1060423940+1067603635+1073741823+1069720240
945+1062478534+1061095791+1063111066+1063284685+1061164631+1060426838
934+1061307210+1059136802+1055869153+1056628606+1059904119+1062989664
922+1063886384+1062026586+1062229452+1066585857+1069372657+1066652835
910+1062630148+1061926154+1063380703+1065120478+1066730436+1065629471
899+1061511317+1059797823+1063035673+1067323858+1069657193+1069852126
887+1065854478+1057908157+1052974747+1054204496+1055017959+1050519941
876+1045288820+1043705074+1042772554+1040472397+1040036453+1041908391
864+1042604108+1041100722+1039049164+1037581164+1038111264+1039686387
853+1038277916+1034869068+1033327123+1032831099+1031609076+1029605182
841+1026135151+1023129620+1025802536+1034268610+1039601889+1034586049
829+1026074587+1023792090+1025824816+1027413046+1029315679+1031112914
818+1029408938+1023959914+1020300675+1021887456+1024165263+1022838048
806+1021383223+1022112532+1020352133+1015706639+1013468287+1013538852
795+1009369103+997586474+988396609+992375150+1003292374+1008397817+1006106558
781+1001917909+997353879+992404121+989145577+986963926+984788275+983919767
768+983777948+983324069+982832667+981866278+980484570+978857644+975909503
754+973583756+973703847+973591757+972605848+970338732+964985588+959814340
741+957252341+954668200+950626130+946238961+943103889+941897662+940826633
727+936770215+929664052+925833746+928528459+928861694+922618107+918905409
714+920166681+919303208+915852766+918084151+926988101+932643854+930242989
700+926810136+927572349+928753881+926631344+925598943+930087442+936028766
687+938698785+938064252+935326358+934677891+936225354+934495926+931430591
673+935180192+946152807+950058161+936417184+928250476+933043860+942091629
660+947383383+944783929+936253222+927719825+926200091+932282061+937782268
646+935447691+926549743+917110934+913472871+914724692+920598348+941960432
633+965079674+955924298+932069677+921606331+918032073+911646941+907620461
619+908788335+907409455+903633366+900245212+895304283+896209005+909831221
606+925040218+928722565+922597689+911835460
##END=
