##TITLE=Sample description
##JCAMP-DX=4.24
##DATA TYPE=INFRARED SPECTRUM
##DATE=12/9/2023
##SAMPLING PROCEDURE=Instrument type and / or accessory
##ORIGIN=Default
##XUNITS=1/CM
##YUNITS=ABSORBANCE
##RESOLUTION=4
##FIRSTX=4397.6552
##LASTX=599.8556
##DELTAX=-1.9287962
##MAXY=1.9547542
##MINY=0.32203564
##XFACTOR=1
##YFACTOR=1.8205067e-009
##NPOINTS=1970
##FIRSTY=0.33244467
##XYDATA=(X++(Y..Y))
4398+182611061+182045449+181857501+181987956+181934360+182068727+182488496
4384+183257755+184480668+185425597+185420637+184822498+184209494+183875719
4371+184015882+184271897+184428267+184989639+185093247+183980718+183783734
4357+185106327+185833743+185544217+184561178+183369646+183243627+183737406
4344+183862393+183979785+184274910+184655373+185298858+185936614+185627935
4330+184151739+182928236+183046021+184060786+185102136+185391613+185053074
4317+184870692+184754839+184446929+184373688+184640689+184417168+183519238
4303+183188754+183802494+184603364+185276267+185539371+185394690+185446895
4290+185773189+186008234+186004748+186258750+187254476+187680940+186449333
4276+184953526+184239959+184204452+184895477+185480094+184969421+183959862
4263+183706990+184544758+185978735+187427036+187937872+186928772+185487641
4249+184843255+184806798+184810940+185035312+185671513+186103804+185921062
4236+185376454+184789135+184529992+184509644+184538996+185331190+186611498
4222+186629145+185676588+185592215+185988492+185560260+185134877+185961792
4209+187083029+186930065+185886586+185451332+185965131+186353370+186039780
4195+185565597+185182072+184848756+185015209+185770684+186398291+186665978
4182+187166764+187779817+187484610+186400222+185508906+184706023+184341652
4168+185660004+187644450+188143942+187548733+187168957+186825868+186383688
4155+186293602+186227826+185772109+185369447+185218300+185255673+185983008
4141+187296188+188096386+187679810+186348279+185146647+184899831+185354550
4128+185713159+185975183+186695642+187508626+187676553+186999672+185895508
4114+185651885+186445634+186546131+185911895+186011017+186488508+186673001
4101+186658988+186342484+186254412+186731443+187341926+187818303+187602329
4087+186625004+186097191+186346528+186418197+186198851+186021756+185929690
4074+186196100+186627426+186806158+186942539+187277198+187454456+187235716
4060+187075221+187073142+187024080+187106848+187319957+187255147+186766378
4047+186595766+187095635+187448694+187246324+186621287+185795796+185573585
4033+186373751+187334200+187595339+187181792+186457388+185770684+185476280
4020+185695217+185938546+185780065+185504093+185447419+185629097+186203909
4006+187081474+187477849+187394328+187338161+186967651+186362505+186021347
3993+186060079+186409259+186732066+186818910+186732016+186849817+187229839
3979+187157940+186724961+186691778+186858396+186668958+186227253+185956439
3966+186027633+186445077+187144860+187629029+187759452+187678975+186912074
3952+185766232+185367270+185830714+186117801+186041466+186693906+187595781
3939+187357527+186293439+185428593+185306405+185775366+186146416+185996186
3925+185829634+185742413+184854453+183983190+184877731+186824198+187682249
3912+187075008+186077923+184776644+182824677+181582741+182248212+184371806
3898+186746324+186952001+184350639+182692323+184539684+185297221+183710607
3885+183518403+183774174+184006780+185656436+185770799+184066957+182279839
3871+180797652+181693683+183171990+182984190+183936322+186178666+186436548
3858+183284946+177743486+176893407+183545529+187354253+186655534+184231168
3844+182409312+181525674+180912212+181876392+183987299+184455180+184122715
3831+184642604+184985890+184513802+182767185+179918859+180421625+183124827
3817+183839066+185882870+188526386+188079705+185107620+183075012+182988037
3804+181802300+181771851+184349215+185379728+185982533+187382050+187997771
3790+187968665+187623333+187071848+186919981+186255083+185117229+185573880
3777+186805388+186762416+185329438+184062979+184656191+186145794+187235716
3763+186745326+184714191+184204304+185413876+184469062+180329296+177539839
3750+180159651+181581415+180319311+182832699+186009102+184374654+180259019
3736+178393732+181036217+185672577+188169349+187521476+186576351+187488245
3723+189231588+191232912+193369651+194497126+193362317+191262755+192807379
3709+197683908+201726908+204227642+207125962+212429004+217945581+221381848
3696+223147307+222494671+218855658+216063155+217592620+219316843+218138260
3682+214869577+210731711+205850942+202650621+204043132+204591915+203732521
3669+205756272+207936327+208252962+207950700+207165922+205584301+204704707
3655+205080537+203314570+199499183+199916872+205380425+209152611+209952319
3642+209973518+210526377+211061868+211017619+210064767+207462340+205028283
3628+207173551+210214621+210152741+208386250+207010486+207769104+209216914
3615+209420823+209050280+208727981+209230436+211174463+212615397+212303051
3601+211614220+211367257+210711772+210309896+211366618+212224260+211399146
3588+211009188+212652983+214186148+214586468+214511574+214210081+213757081
3574+213778379+213801101+212497825+210928842+211790381+213942606+215021658
3561+215339291+215548062+215565039+215471089+215610090+215875960+215603034
3547+215166502+215678862+216615278+216969630+216980468+216927428+216727791
3534+216493352+216122432+215804258+216062877+216363928+216228283+216256849
3520+216534310+216671968+216844365+217097074+217019314+216632778+216350619
3507+216154551+215917672+216164275+217028776+217499538+217157889+216655762
3493+216271877+215815538+215516009+215694675+216053644+216321725+216613641
3480+216785513+216571422+216134006+216029940+216512341+217195656+217681462
3466+217837717+217663733+217545883+217861012+218242245+218371390+218362239
3453+218205297+218072779+218139995+218344756+218687076+219015039+219277423
3439+219779093+220451423+220742962+220659015+220746105+221087836+221385285
3426+221432677+221331132+221540051+222077915+222402751+222633033+223211299
3412+223797275+224043895+224323631+224982718+225887687+226633339+226849870
3399+226720397+226725488+227002834+227625153+228416021+228978686+229385014
3385+229684575+229820007+230182004+230918981+231506087+231770910+232221504
3372+232988553+233641517+234127126+234801716+235570974+235981592+235929567
3358+235879948+236258463+236855212+237609819+238492884+238971226+239179146
3345+239588879+240003081+240265449+240450679+240726094+241355174+241937745
3331+242113710+242492487+243108863+243469731+243852961+244420455+244814686
3318+244732572+244322446+244145957+244269897+244282306+244128654+243889909
3304+243520659+243447713+244092737+245019806+245945336+247057472+248278765
3291+249710401+251392716+252833683+253761112+254512003+255779935+257591363
3277+258850455+258975148+258927363+259686767+260805647+261623133+262375825
3264+262989402+262986194+262796232+263160423+263766830+263930632+263748266
3250+263464241+263007164+262647802+262660751+262758548+262773772+262686600
3237+262382243+262096335+261971953+261780813+261642041+261810361+261831495
3223+261545636+261570912+261515777+260827731+260392689+260665157+260809331
3210+260459136+260050713+259613182+259318091+259587628+259790653+259303554
3196+258364960+257220689+256353290+256256705+256571049+256573864+255996400
3183+255027194+254094576+253482128+253110964+252892747+252790792+252641659
3169+252345012+252049723+251723970+251050592+250289469+249980053+250084218
3156+250300405+250317708+250146261+250176301+250394943+250426587+250159865
3142+249771954+249510994+249411069+248959346+247801635+246618927+246184278
3129+246359162+246146332+244890693+243745719+243706168+243815473+243131438
3115+241751745+240397640+239909509+240130312+240111584+239090549+237140350
3102+235483819+234837501+234409024+233735417+233089918+232330530+231314227
3088+230399239+229959319+229961201+230059456+229911092+229409160+228807616
3075+228416872+228358561+228451594+228210769+227727681+227688686+228058149
3061+228231200+228189914+228384000+228809253+228967047+228631209+228022052
3047+227521267+227472058+227844892+228271929+228358463+227919557+227263483
3034+226759571+226347775+225974482+225710690+225447062+225098145+224799959
3020+224584493+224378914+224387214+224628611+224615433+224122571+223480444
3007+223021223+222739178+222542521+222493427+222464959+222165234+221876199
2993+222172110+222947327+223636208+223866244+223806607+224008420+224521238
2980+224903043+224986990+224899049+224736000+224522383+224397298+224489823
2966+224580220+224426781+224171403+223989692+223770608+223438994+223241813
2953+223264388+223152366+222836696+222639876+222723676+223110048+223586655
2939+223769037+223565815+223127434+222721253+222573903+222556960+222460817
2926+222296295+222180196+222083922+221605646+220637161+219859651+219750575
2912+219954861+219974129+219857163+219873320+220046715+220262263+220309754
2899+220194457+220165793+220269106+220464830+220675565+220855246+221104272
2885+221363758+221582941+221765225+221745891+221640237+221814172+222244401
2872+222615697+222749000+222664939+222489972+222345652+222278107+222265208
2858+222315072+222438651+222418516+221983703+221244009+220668444+220591356
2845+220767354+220869374+220981887+221138666+221275358+221404340+221493362
2831+221589702+221768024+222046009+222397398+222646751+222608363+222354868
2818+222169507+222198122+222417583+222734005+222887477+222822405+222845242
2804+223047907+223352231+223804331+224182601+224217126+224158454+224346353
2791+224648861+224699183+224538377+224555304+224759541+224828476+224754024
2777+224703570+224604677+224522956+224681847+224904255+224929023+224945541
2764+225144980+225265008+225192733+225218532+225402273+225547511+225591285
2750+225695057+225891321+225892974+225689704+225642623+225885624+226204551
2737+226383904+226394643+226327296+226371709+226589549+226762862+226729712
2723+226590793+226572949+226798352+227072932+227092708+227036181+227222885
2710+227477951+227738141+228082491+228256148+228302427+228593164+229051730
2696+229296893+229321776+229373244+229479176+229621091+229822790+230016287
2683+230126607+230136593+230155435+230279883+230424335+230427461+230282453
2669+230269160+230464147+230460955+230173443+230018432+230092606+230144893
2656+230081752+229975476+229858756+229776429+229905673+230170971+230225893
2642+230133024+230153798+230162360+230000114+229852338+229883917+229914153
2629+229783436+229605195+229374423+229020921+228781571+228764725+228710425
2615+228531546+228358446+228227942+228153866+228115298+227998790+227845760
2602+227775924+227690143+227581428+227693057+227953215+227985923+227796976
2588+227590448+227374916+227275597+227323824+227289856+227145748+227003915
2575+226948550+226976118+226921899+226778184+226711933+226691634+226540716
2561+226282588+226065207+225877144+225648205+225431609+225286535+225151561
2548+225031845+224977021+224881483+224693044+224515884+224413455+224284424
2534+224083855+223988416+224015525+223997239+223866064+223653658+223501627
2521+223496634+223512382+223422165+223242304+222987827+222713395+222579174
2507+222538772+222458492+222428109+222492723+222574198+222609607+222514512
2494+222367588+222416339+222662139+222880405+223001235+223123619+223366031
2480+223758183+224102484+224128906+223835746+223476499+223302105+223342098
2467+223431726+223500252+223612896+223785129+223937733+224035448+224138270
2453+224177198+224080810+224056647+224261833+224580957+224905941+225158453
2440+225218189+225166589+225209987+225372315+225517193+225549148+225566173
2426+225674676+225854913+226097882+226355895+226579235+226803083+226976986
2413+226968146+226884346+226962416+227095769+227125727+227215305+227463774
2399+227730398+227870954+227928496+228090038+228354452+228552746+228644142
2386+228429936+227454214+225618132+223199807+220346243+217156416+213856531
2372+210464399+206826336+203113542+199673887+196837086+195112585+194912474
2359+196240305+198947453+202972855+208263276+213422815+215706871+213986872
2345+210130166+207441894+206839056+207283772+208131429+209236329+210391977
2332+211387261+212567989+214167928+215861194+217444223+219144758+221168100
2318+223290662+225119050+226521350+227768656+229172282+230627049+231904770
2305+233034488+234081944+235040101+235930271+236705734+237274047+237644229
2291+237978168+238498418+239155327+239714210+240077468+240151839+240023479
2278+240038654+240262191+240479278+240602416+240679946+240726536+240774207
2264+240943427+241231267+241523035+241779198+241991211+242169287+242332811
2251+242506533+242714011+242876453+242946273+243001294+243103330+243277756
2237+243448073+243489343+243508856+243666372+243850800+243980273+244162639
2224+244324607+244333774+244298725+244317960+244408980+244576104+244712224
2210+244788166+244906016+245065971+245232326+245399975+245527794+245616309
2197+245719982+245925708+246214612+246347883+246297888+246378414+246666859
2183+246935579+247095369+247194574+247210469+247118321+247009294+247066394
2170+247355396+247655350+247711762+247622003+247674372+247888087+248081028
2156+248172669+248222026+248356132+248572859+248748250+248897450+249074626
2143+249191068+249237593+249333949+249445611+249476321+249518213+249671129
2129+249845980+249934871+249974471+250048187+250156067+250252309+250380832
2116+250577686+250704130+250685468+250661518+250727818+250847518+250973831
2102+251085461+251187694+251257055+251289877+251396612+251571971+251674695
2089+251745235+251899787+252054913+252083201+252069564+252149762+252243204
2075+252246920+252288403+252441367+252522417+252453138+252411524+252535955
2062+252746543+252866194+252828804+252778957+252910001+253149696+253292674
2048+253303119+253233054+253177640+253243809+253420363+253621162+253759819
2035+253790251+253776205+253817999+253942266+254096868+254184809+254209250
2021+254247426+254320601+254502099+254844812+255185283+255343715+255411930
2008+255551929+255725046+255866977+255996662+256150855+256361034+256541975
1994+256578481+256672005+257008022+257341028+257611450+257967308+258312984
1981+258554807+258722521+258873505+259060503+259268931+259379283+259321365
1967+259323296+259632467+260079623+260385061+260568327+260771875+261000733
1954+261195507+261356330+261510636+261638783+261584237+261374582+261605126
1940+262386875+263049334+263460803+263816154+264122017+264390475+264621198
1927+264719600+264634671+264620805+264733040+264856195+265388214+266235101
1913+266655917+266652693+266871908+267536265+268240960+268722150+269121701
1900+269536820+269797468+269916072+270119915+270229269+270318324+270975151
1886+271897309+272495678+272928608+273407080+273869084+274238579+274497181
1873+274339028+273569916+273278917+274603130+276441946+277555424+278067193
1859+278503430+279128352+279861023+280496454+280935343+281098032+280797047
1846+280275193+280925488+282870940+284290740+284942542+285573389+285985791
1832+285550471+285105034+285939725+287298627+288727136+290396387+291678120
1819+292497587+293268040+293840249+293915913+294072577+295040327+296369599
1805+297261717+297461566+297502034+298338394+299592952+299834677+299222589
1792+300054530+302730852+304827337+305764965+306321491+306836600+307657475
1778+308665593+308791350+307790468+307433037+309486042+312514360+314778313
1765+315603018+315671282+316538714+317818155+318890576+319973802+320181410
1751+319461541+319593453+321286671+323319835+324621277+325119950+325876195
1738+326774567+326552585+327011216+329922944+332906505+335459362+337365132
1724+338339462+338472356+337028688+334763949+335513973+339659272+343538716
1711+345769241+346137050+345543068+345666337+345810560+345251774+346160328
1697+348828040+352978315+357314328+359440279+360088447+359582963+357792146
1684+358731247+363798490+367900440+369663559+370345973+371526865+372406574
1670+373361162+376911202+380704407+382314987+383967180+387176128+389597498
1657+389081374+385969273+386645009+392442402+394903487+396756577+402358477
1643+407898692+410717633+410929432+409443496+410928352+417221538+422163908
1630+424582365+426613565+428923715+431644466+435700808+439278776+441406102
1616+445662752+452550247+458134761+462155907+466365082+471474038+476680920
1603+481714638+487002652+492479219+497774535+503251463+509234365+515045183
1589+520539103+526199804+532163684+538802841+546103589+552130921+556433571
1576+562655677+570297158+575637884+580971801+589073288+597776156+605169462
1562+609700511+611541258+618931093+633076970+645437169+656030157+665693964
1549+674851993+682170912+687374717+691931108+698709216+711703341+724367505
1535+732957679+741184760+750370225+757883952+764027873+770580398+777293549
1522+784783898+793802975+803477391+814346644+824685303+831268146+834251477
1508+836787374+846159527+861589166+873658497+881228276+884146519+885944244
1495+891532884+898290562+903701484+908054686+912931150+918990273+925332013
1481+931053121+934741622+935800194+936340415+938864460+942764728+946841926
1468+950202168+951239786+951032603+951861793+951804366+948958480+948444255
1454+951651860+952791629+950890443+946925611+943089974+941483322+941425830
1441+939749703+934271400+927384396+923551378+921072450+917399992+915507580
1427+915819730+915079201+913767478+912946538+913616937+919089674+927725358
1414+934212401+937117941+939714147+944390565+949233829+953038166+957301855
1400+960517842+960995660+961242787+964292254+969514460+971491342+969456050
1387+969107755+972002883+974971809+976375533+976869852+978494314+981237067
1373+983593545+986711375+991599691+995692998+995865672+991795088+988102658
1360+988496725+989574942+989410387+989652799+990317173+990308137+989671527
1346+988470467+984951105+978683751+972717154+969169569+967271853+966138371
1333+964983017+963826682+964234041+965731011+966579257+966749705+966405731
1319+967047383+970151790+973919654+977199878+979878394+980761606+980282414
1306+980448998+982775421+986799251+989902086+991126850+991752394+992708029
1292+995734709+1001339588+1006481055+1009648520+1012653591+1016595112
1281+1021003580+1025744694+1031080967+1035871912+1038633851+1039574426
1269+1039649075+1039742058+1040443822+1042516177+1046397913+1049805891
1258+1050822293+1050405570+1049224220+1048596778+1050779861+1055013101
1246+1058662248+1061840059+1065337943+1067045566+1065487110+1063300490
1234+1064343281+1068475483+1071374868+1071782882+1072451120+1072675721
1223+1070137073+1066015217+1063048059+1062688370+1063652387+1065323865
1211+1067784917+1069674120+1071783995+1073261190+1071942395+1070670288
1200+1070646256+1068678345+1064997309+1062967583+1062247549+1060457092
1188+1058338573+1058533577+1060946238+1061944698+1060940279+1060502667
1177+1060439085+1059727891+1057867762+1053368406+1048059306+1047284924
1165+1050759038+1053579845+1054410738+1053486730+1049673095+1042835595
1153+1036499486+1034692069+1037209828+1040506946+1040747721+1038127419
1142+1034740853+1031503519+1031788887+1035961426+1037474373+1034753622
1130+1031957108+1028129132+1022907516+1021227461+1023720861+1025556238
1119+1023162566+1017353124+1013130819+1013589909+1014955262+1014006305
1107+1015262173+1020245109+1021356721+1016429837+1011776730+1011697236
1096+1016759863+1022476584+1024402784+1025490560+1026301744+1022647817
1084+1018715726+1020504219+1023292285+1023660421+1025132901+1028724882
1072+1033345772+1035781417+1035823522+1037760461+1038653823+1036470085
1061+1037748412+1042503408+1044110714+1043427874+1044563256+1046822167
1049+1048029971+1047184737+1047302669+1049962719+1050145674+1047203137
1038+1045463166+1045542333+1044986396+1041420804+1036827155+1034707457
1026+1033189009+1030836264+1030589333+1031554660+1030660970+1029285468
1015+1029306029+1030254200+1029423241+1025667818+1023423051+1026073999
1003+1030430148+1031861636+1031499917+1033505415+1037379032+1039255008
991+1037625176+1034259826+1032179352+1033666434+1038013154+1041614891
980+1042985678+1044567577+1047567738+1050459854+1051857226+1051233385
968+1049306399+1049017495+1052155494+1055497336+1055547691+1055220415
957+1058218808+1061878955+1062216577+1059163966+1055979606+1057463807
945+1062949706+1067302384+1069823745+1069894792+1065353462+1058919393
934+1055242286+1056880303+1061624821+1063810983+1062870081+1063174242
922+1065216541+1065563592+1064708929+1065492283+1066185468+1066149716
910+1065956873+1061700583+1056562260+1058595587+1063955697+1064051430
899+1060499524+1060042988+1064017773+1069832716+1073741823+1071916922
887+1066935492+1061936447+1057004128+1057733984+1066382240+1072752399
876+1067828527+1057753039+1051923428+1049569372+1046973887+1045613512
864+1046460186+1047064841+1046687013+1046388156+1044327064+1038997404
853+1034248040+1035078933+1040043862+1043615413+1045279884+1044457503
841+1037850825+1032602689+1036359028+1041357222+1039736623+1035338108
829+1031280358+1027865766+1025977676+1024480707+1023727933+1025352002
818+1025766695+1022070403+1019211682+1021046208+1025244940+1030598173
806+1034346393+1030513768+1022249232+1017195576+1017415986+1020339599
795+1020017299+1015392153+1012236606+1012020124+1010981917+1008309426
783+1006586414+1005313784+1001176867+996117317+994520292+994337337+992169183
770+989087826+986834939+986043989+986312659+986535820+986415465+987427807
756+990656890+992459265+988476819+983764255+983966593+983146897+976848767
743+969152086+961019364+953284573+950441764+951166119+949441995+946679794
729+947579901+950753063+951025334+943952232+932564039+925682928+925660402
716+926298387+923433839+921313487+923861825+929928086+936885809+939779104
702+936585577+933374960+936506607+942946373+942061458+934441390+932099514
689+935619138+936471509+934645626+933449871+930719297+926875017+926547151
675+929053975+930663311+930186541+928054074+930259618+935563610+936197142
662+935396239+936406617+937224217+937558041+940082807+944135253+941258001
648+931568722+926227078+926759769+928797746+928578580+924611980+923462913
635+925100144+924401196+935760905+966200709+985163396+970885116+948548370
621+934263411+924265125+917890841+915695184+916904364+932630568+955617543
608+949524043+924004509+919803290+938580729+955559134
##END=
