##TITLE=Sample description
##JCAMP-DX=4.24
##DATA TYPE=INFRARED SPECTRUM
##DATE=12/9/2023
##SAMPLING PROCEDURE=Instrument type and / or accessory
##ORIGIN=Default
##XUNITS=1/CM
##YUNITS=ABSORBANCE
##RESOLUTION=4
##FIRSTX=4397.6552
##LASTX=599.8556
##DELTAX=-1.9287962
##MAXY=1.9755532
##MINY=0.34189436
##XFACTOR=1
##YFACTOR=1.8398773e-009
##NPOINTS=1970
##FIRSTY=0.34189436
##XYDATA=(X++(Y..Y))
4398+185824548+186662826+187573542+186983207+186209542+186532659+187194007
4384+187296200+187020575+187376526+188839869+190201408+190243814+189757583
4371+189647323+189488518+189273587+188950858+188150288+187438079+187179461
4357+187070595+186704569+186311751+186590988+186940314+186860345+187046379
4344+187426691+187555984+187796637+188251817+188356716+188116872+187904160
4330+187641428+187515991+187946680+188671070+189188774+189597838+190190086
4317+190986104+191657203+191355952+189696290+188028884+187746829+188083747
4303+187991904+187982428+188515909+188677322+187891930+187667491+188778349
4290+189596186+189093238+188007309+187644328+188262783+188788133+189073250
4276+189598081+189739846+189495094+189652053+189863437+189920583+190156604
4263+190031588+189434239+189430805+190197893+190553536+190189567+190090079
4249+190686781+191289605+190782462+189027086+187785947+188364005+189248286
4236+188993378+188533500+188430141+188437382+188859825+189520007+189869058
4222+189698574+189240235+189294628+189836386+189881984+189542814+189895703
4209+190979025+191583632+191411933+191418234+191617874+191375487+190855677
4195+190327963+189996536+190494883+191643499+192173530+191700694+191082870
4182+190875909+190435210+189428618+189162566+189999030+190395006+190133960
4168+190624743+191675280+191912483+191315733+190262750+188959751+188322165
4155+189037355+190363323+190996924+191059788+191059270+190643273+190150093
4141+190248658+190714690+190900206+190584134+190205636+190067353+190012637
4128+189957175+190041777+190459231+191204663+191817045+192029093+192107442
4114+191934496+191437752+191064826+191039039+191263268+191165707+190496033
4101+190200388+190886032+191917521+192481600+192372555+191875406+191292116
4087+190814956+190834004+191389337+191781377+191750374+191465338+191183347
4074+191497183+191766879+191081170+190390811+190279466+190002383+189490510
4060+189599199+190485035+191149736+191014904+190500909+190269553+190508992
4047+190893111+191286933+191367000+190920275+190729220+191177386+191885157
4033+192714478+193304911+193194781+192363986+190939065+189442030+188749452
4020+189108643+189913424+190578125+190877820+190899574+191082709+191625082
4006+192295776+192595407+192304199+191963815+191576618+190757599+190304087
3993+190903121+191784260+192018191+191814469+192124936+192894908+192838280
3979+191938222+191384283+191247750+191190798+191525124+192091277+192119251
3966+191454355+190937299+191313595+191963151+192064825+191913455+191740882
3952+191681824+192151857+192641944+192283774+191713863+191909389+192188594
3939+192020394+191794092+191530745+191590386+192297558+192952540+192760448
3925+192019196+191785345+192029125+192345877+192903541+193489795+193463927
3912+192948815+192481454+191581040+190552581+191078740+192504957+193453317
3898+193837599+192866367+190775611+190098664+191727016+192507873+192130508
3885+192397484+192357118+192512684+193260594+192224197+190571451+190335527
3871+190734241+191483447+191497280+190964658+191903785+193247635+192966730
3858+190428488+186656282+187584557+193213830+195288485+194329661+192543168
3844+191182261+190607054+190321338+191276922+193210769+193632127+193067821
3831+193095844+193360001+193304442+192125811+190055367+190243733+191622053
3817+191984532+193466746+194484320+192991853+190361736+189498674+190558736
3804+190724522+191649476+193453674+193222188+192943048+193577524+193694327
3790+193832172+194191606+193997764+193464008+192755605+192535588+193595617
3777+194111426+193047477+191774654+191868149+193193874+194013784+194149604
3763+193775415+193055592+193200159+193543152+192255200+189640520+188829746
3750+191458583+192608300+191847950+193510642+195394275+194370626+192517430
3736+192647969+194590465+196196496+196413404+195639383+195259702+195873832
3723+196812490+198163063+199893721+200949199+200434362+199657927+201980703
3709+206177523+208633042+209520368+211634368+216915271+222590238+226071916
3696+227488528+227035017+225656000+225674239+227028764+226979312+225204206
3682+222727856+220103959+217254441+215778269+217082288+217496115+216922738
3669+217744511+218362707+218083924+218034779+218145363+217651680+217491936
3655+218377026+218111493+216773749+218346931+222575806+224949638+225439725
3642+225836835+226495850+226623458+226297700+225863756+224818386+224581069
3628+227654914+229978225+229277095+227950916+228216790+230047390+231172795
3615+231119536+231129935+231256133+231462544+232238849+232708850+232367964
3601+232262628+232736079+232824925+232623422+232844168+233101117+233661600
3588+235548278+237139423+236948546+236445371+236692456+237148915+237365580
3574+237499116+237581871+237462346+237679821+238856735+239649772+239431844
3561+239349235+239836827+240369417+240519702+240346416+240286823+240470379
3547+240795294+241223683+241551887+241553425+241568894+242010306+242492682
3534+242621473+242541228+242519150+242675687+242865139+242923225+242608709
3520+241836744+241151942+241071600+241247785+241068150+240841896+241191805
3507+241494610+241086291+240812529+241003082+240824548+240487047+240633962
3493+240827431+240555758+240292233+240362986+240306245+240216443+240444349
3480+240570288+240274334+239769135+239516706+239940186+240552357+240519005
3466+240167120+240038929+239947977+239998159+240339483+240539577+240476988
3453+240339953+239857414+239216476+239176580+239459284+239577416+239892370
3439+240255480+240257116+240239476+240352862+240288346+240036370+239929771
3426+240327934+241060747+241629281+242000215+242343272+242674910+243038701
3412+243359615+243247185+242637363+242264096+242652686+243361624+243596365
3399+243265521+243212327+244011989+245194573+245903170+245848032+245543283
3385+245484986+245680529+245954226+246177969+246456526+246799648+247024784
3372+247111330+247193648+247730579+248863111+249781067+249856210+249506884
3358+249483866+249791693+250020214+250310029+250868925+251330713+251536169
3345+251889949+252489356+253091824+253475700+253727077+254259100+254939610
3331+255408332+255538920+255271588+254899682+254737897+254948762+255426992
3318+255671889+255491978+255209161+254970630+254649391+254566133+254771378
3304+254339766+253272934+252988643+253829643+254920675+256116816+257404232
3291+258491571+259649582+261049073+262419342+263455398+264152771+264729597
3277+265214873+265721255+266617004+267954262+268818603+268602846+268396516
3264+268899010+269178020+268812739+268636683+269070822+269598877+269812399
3250+269741532+269370436+268751333+268401408+268613018+269045602+269265085
3237+269000669+268636975+268549927+268284296+267793886+267386522+266916505
3223+266743834+267363910+267839370+267134044+266290469+266545231+267291732
3210+267820661+267881144+266965115+265658925+265198027+265561170+265883073
3196+265635373+265102362+264656804+264055518+263402431+263011266+262347245
3183+261320956+261006391+261639295+262013421+261412556+260451383+259812388
3169+259605702+259687988+259797389+259802977+259519237+258850308+258436239
3156+258767909+259327048+259468764+259161245+258596777+257997047+257684344
3142+257668227+257638909+257296807+256606481+255992561+255745542+255698778
3129+255809605+255886480+255326969+254352141+253937019+253932484+253293619
3115+252016293+250941767+250257224+249631463+248844564+247729170+246439097
3102+245406734+244702802+244072084+243330977+242500004+241743055+241103153
3088+240624163+240382375+240142369+239672012+239166278+238953032+238913913
3075+238682201+238282127+237852783+237475985+237326186+237352346+237344441
3061+237243835+237235283+237501092+237782241+237843177+237871524+237936041
3047+237964079+237850936+237430145+236900130+236615499+236706888+236961342
3034+236817245+236273300+235998404+236000720+235591608+234897119+234821458
3020+235198644+235083784+234622239+234462623+234464081+234216106+233658523
3007+233169165+233174672+233380808+233309796+233064105+232719169+232332522
2993+232293728+232732289+233469379+234244129+234678122+234737196+234806782
2980+235197672+235771033+236093988+236019267+235596386+234982903+234587964
2966+234523560+234571506+234687484+234761250+234533587+234112731+233802766
2953+233639328+233610188+233693008+233728595+233668031+233571134+233504836
2939+233598363+233818478+233778534+233275343+232796708+232763681+232883999
2926+232778129+232422988+232044992+231675175+231065661+230561596+230592307
2912+230725746+230705515+230714618+230686677+230695893+230853079+230951303
2899+230989206+231034869+231017909+231082377+231254303+231432384+231603823
2885+231733164+232021926+232484735+232791525+232935347+232994713+232974805
2872+233006796+233076431+233098769+233136963+233124280+232874200+232582749
2858+232581064+232709207+232574828+232122985+231574602+231007640+230571331
2845+230580256+230966934+231405641+231587317+231414064+231274145+231535986
2831+232057124+232463402+232659495+232802135+232875787+232817992+232755533
2818+232762531+232701885+232513017+232382720+232516888+232934877+233350647
2804+233494696+233508076+233655704+234015672+234407680+234553284+234542431
2791+234717985+234998097+234995197+234743659+234695113+235025569+235321328
2777+235292333+235228497+235276135+235225581+235059196+234973249+235012270
2764+235040536+234977331+234844524+234763971+234831241+234928219+234965215
2750+235082780+235399937+235806263+236069821+236105797+236079345+236114884
2737+236137156+236070242+235982465+236064800+236354144+236670410+236848588
2723+236777123+236536890+236441533+236672872+237005660+237162521+237293806
2710+237640962+238067860+238243932+238138224+238103074+238332697+238619288
2696+238740627+238719538+238660010+238654584+238786030+239005319+239121507
2683+238991631+238852993+239008477+239210385+239140199+238883396+238679901
2669+238721238+238950132+239163735+239237436+239107982+238904907+238854240
2656+238954668+238980422+238785431+238602458+238665695+238736432+238573075
2642+238315722+238158131+238088269+238048147+238107043+238176581+238051435
2629+237861173+237811138+237789432+237606249+237359619+237249278+237163785
2615+236987211+236808401+236659703+236613798+236664466+236607773+236445517
2602+236349301+236330139+236321181+236260844+236133852+236020952+235906642
2588+235737875+235568639+235425238+235327742+235307479+235367152+235444902
2575+235441290+235307689+234983778+234622449+234518215+234539062+234411146
2561+234216803+234038592+233779829+233481883+233294473+233245247+233203229
2548+233079039+232903145+232668906+232476409+232363088+232132461+231866830
2534+231830822+231981901+232064267+231979131+231852025+231686271+231439122
2521+231274275+231235529+231119617+230882867+230719882+230758822+230938345
2507+231046823+230983570+230872063+230792725+230776624+230821492+230832442
2494+230856529+231008612+231176390+231246803+231329980+231503315+231690418
2480+231831097+231969849+232144221+232252375+232177248+231914258+231571346
2467+231412800+231621009+231973008+232133757+232142973+232211280+232327598
2453+232404215+232473008+232591366+232730523+232846307+232995765+233226878
2440+233456485+233581226+233623276+233671578+233761396+233904084+234053090
2426+234130127+234213320+234434277+234708444+234837591+234855814+234910952
2413+234982352+235105635+235343487+235527188+235572381+235635650+235837461
2399+236212979+236647020+236867216+236878603+236945679+237099317+237154082
2386+236900859+236138419+234681070+232434635+229572449+226415200+223145619
2372+219793946+216421102+213136392+210069366+207672420+206421335+206328537
2359+207380078+209744678+213299781+217938660+222755037+225197565+223897659
2345+220607814+218484257+218209037+218810047+219682180+220507257+221290430
2332+222187896+223419981+224972299+226405239+227501130+228715121+230496593
2318+232664452+234664062+236188828+237439086+238628942+239778935+240945207
2305+242028496+242910461+243778657+244669126+245353281+245830846+246248722
2291+246713005+247294319+247893029+248336951+248564711+248657072+248741010
2278+248823831+248868748+248926736+249091065+249360940+249583743+249670370
2264+249752008+249983996+250293296+250509799+250669236+250888864+251144971
2251+251391391+251594012+251706086+251822371+252005765+252138070+252199703
2237+252280337+252452214+252681011+252837370+252953979+253094999+253203023
2224+253269791+253308229+253323617+253359010+253441523+253570669+253732325
2210+253877589+253993745+254092115+254150104+254227417+254353956+254464183
2197+254602060+254793342+254927057+254964571+255023386+255192250+255406663
2183+255606968+255780092+255879710+255982421+256160113+256210861+256100602
2170+256139072+256389250+256654346+256873570+257058470+257161959+257202389
2156+257296726+257443950+257553756+257659318+257815273+258005178+258193869
2143+258309020+258326271+258337496+258423718+258578943+258774226+258988656
2129+259137580+259156305+259145873+259199375+259317588+259531240+259805682
2116+259997888+260047518+260074440+260172940+260271553+260342176+260429062
2102+260521229+260591544+260595966+260553706+260589115+260736387+260902076
2089+261024533+261092111+261105863+261154441+261275294+261363120+261449633
2075+261590928+261685962+261748211+261771925+261652059+261564315+261669391
2062+261806216+261988605+262299461+262476197+262371315+262201107+262167982
2048+262295995+262476651+262581581+262614253+262659008+262754155+262891822
2035+263004219+263063261+263136104+263214615+263262108+263316922+263427424
2021+263595948+263783667+263952855+264084869+264228820+264432348+264669746
2008+264884126+265027965+265173714+265363992+265503279+265638742+265810668
1994+265884628+265984278+266292817+266610314+266822006+267019508+267238910
1981+267477701+267697702+267900679+268091427+268239330+268372138+268546266
1967+268802292+269114573+269370728+269521434+269680887+269941902+270251591
1954+270511342+270675995+270811264+270981781+271151795+271321841+271601419
1940+271955134+272272745+272630267+273008360+273277247+273497475+273793574
1927+274070754+274248317+274493133+274786673+275087114+275542310+275960898
1913+276238435+276594370+276994816+277307308+277652585+278111927+278584617
1900+278975572+279262665+279545450+279895651+280215950+280589799+281147885
1886+281678337+282082736+282505763+283000255+283508970+283966563+284343166
1873+284544799+284614321+285038708+286011268+286936174+287534949+287993028
1859+288426551+288872385+289414726+290094394+290818023+291421723+291752583
1846+292045183+292940220+294071131+294720282+295262332+296022277+296664528
1832+296935228+297303506+298180433+299119269+300024445+301004359+301908304
1819+302795242+303681693+304403022+304922589+305514982+306369751+307305736
1805+308159305+308831068+309370170+310127685+311053984+311594479+311967292
1792+313129887+314747872+315898675+316800806+317691955+318496509+319400616
1778+320266529+320612194+320642322+321360055+323182492+325147633+326467251
1765+326935956+327335723+328480856+329794027+330965855+332000615+332522450
1751+332875599+333694181+334850394+335982050+336909742+337743323+338846309
1738+339693108+340019984+341408379+343786795+345440772+346806036+348064232
1724+349150793+349881161+349870211+349959332+351747494+354469016+356606666
1711+358017543+358712275+359210558+360136824+360763265+361215514+362824752
1697+365048218+367817557+370371430+371737375+372766790+373416005+373718584
1684+375884061+379389243+381673322+382794126+383733415+385214074+386486653
1670+387947388+390841031+393630423+395413109+397412590+400076836+402188439
1657+402774968+402676938+405698382+410103557+412026291+414536527+418778749
1643+421956634+423918567+425241425+426310007+429286389+434000523+437382503
1630+439929832+442828204+445841873+449174513+453309797+456808855+459800333
1616+464580912+470286915+475006363+479322967+483876158+488668206+493463525
1603+498456492+503772544+509239756+514959916+521077510+527226755+533167855
1589+539144689+545270058+551892446+559376568+567151152+573743476+579402797
1576+586710166+594354388+600193377+606463944+614283494+622054903+629308106
1562+635214219+640851186+651517695+663417196+672723851+681715164+690844354
1549+700174205+708506453+715506643+721455973+727834937+738425640+748982780
1535+757024242+765580607+774993391+782900215+789922759+796749436+802692286
1522+808970759+816600921+824933040+834110695+843588336+851778884+857182276
1508+860410731+867043486+877095119+884195284+889155952+893914729+899052149
1495+904161645+908717363+913084991+917667792+922761479+928068525+933096059
1481+937721817+941371290+942980723+942470940+942159290+943616073+945405692
1468+947356514+950452340+953698029+954990305+954024257+951514863+950832993
1454+951513891+950377181+948235029+946078363+944451566+943487007+941543054
1441+937578109+931535155+922823485+916208418+914322194+912073912+908842088
1427+908128793+910151793+912589786+914780403+919694615+928097098+934952932
1414+937504116+937714884+939126248+942180024+944211447+944038646+945520504
1400+951517973+958037666+959994449+961228283+966350672+971238708+971099470
1387+967590596+966311473+967639255+969782120+973461851+977983489+982675659
1373+986897180+988239346+987808868+987832647+987275630+986288071+987769280
1360+989836209+987999551+983928347+981809390+982207926+983478561+984666522
1346+984748549+982673262+979638405+977415911+975186548+971294494+966523666
1333+962687981+960157401+959138676+960185196+962163231+964330393+968064744
1319+972928289+975418763+974721666+974566489+977066423+979990550+981470852
1306+983179352+987078274+991507454+992779450+991900287+992331543+991650190
1292+989344114+992040951+1000420886+1008503945+1014531543+1019743086+1025809494
1279+1033152499+1037282339+1037096386+1037033279+1038205236+1040576364
1267+1043575973+1043664090+1041883866+1043432264+1047940037+1052170240
1256+1054283496+1052990183+1051813755+1053796066+1055082316+1053918004
1244+1053764123+1055731013+1057934329+1059060803+1058993095+1058661749
1233+1059406209+1061328781+1063423311+1064621898+1064614706+1064866358
1221+1066760422+1069128245+1069744158+1066939767+1062836491+1062362084
1209+1064556329+1064798521+1062652028+1060471259+1060328847+1062296838
1198+1064376078+1063673214+1059835132+1056450010+1055300795+1054534629
1186+1053177756+1051658254+1049388462+1048048758+1050141539+1051257775
1175+1047766848+1044254475+1042709510+1040767694+1038616082+1037867800
1163+1039079086+1039959998+1038241973+1037300805+1039828664+1041989282
1151+1040873629+1038636816+1036184569+1032496998+1029321867+1028996806
1140+1030895859+1031781306+1029039309+1025754356+1025351803+1024520781
1128+1021814356+1020619916+1021609030+1023804960+1025436422+1024135334
1117+1019241855+1012669097+1009155493+1009273350+1008120182+1004981140
1105+1003683422+1004128413+1003240050+1001998571+1002555458+1004499153
1094+1006825120+1006888227+1003380066+1002240958+1008669618+1017923662
1082+1024299452+1026908107+1026087581+1025068598+1024697988+1022479964
1070+1019181145+1017895866+1021446272+1027702197+1030672974+1031184248
1059+1035035677+1041593468+1044715923+1043680029+1042570790+1040245601
1047+1035305212+1031723835+1030903310+1032410695+1034589455+1031642521
1036+1024953527+1021003614+1019654061+1019691382+1019722223+1016171752
1024+1012333734+1013748143+1015306325+1011319869+1009733891+1016930142
1013+1023513525+1020891912+1016564909+1017134172+1019669741+1022260902
1001+1024855043+1024948603+1021999661+1020087325+1021895086+1025974519
989+1030989872+1034865858+1034912832+1033857759+1036362358+1041144136
978+1044326459+1047072537+1050635448+1050790366+1045991612+1041282985
966+1042101178+1047456106+1050211838+1048921506+1047620936+1045718320
955+1044286676+1047286415+1053409711+1060023028+1065901605+1068534038
943+1066733404+1062016094+1058735806+1061724336+1068371216+1070306163
932+1067857934+1066689929+1064716235+1060285889+1057477157+1057731984
920+1060340833+1064459530+1067081337+1066839857+1065985057+1065916442
908+1067238522+1069067730+1068131162+1064556329+1060054323+1056373879
897+1057269952+1062446572+1068868818+1073741823+1072483174+1065083347
885+1058241832+1057485839+1063001904+1069514794+1068277332+1059621642
874+1055417874+1058049465+1057384764+1050221039+1043365140+1041251820
862+1041796008+1040314150+1037404407+1038122497+1042059258+1044184888
851+1041950407+1037378491+1033908297+1029799967+1024631900+1025999658
839+1034752990+1037940885+1031753575+1028698763+1032424755+1035898124
827+1036426502+1033931169+1028444260+1022892365+1017719956+1012410253
816+1010562257+1012654454+1016148686+1020550718+1023471994+1025144145
804+1028212369+1028818174+1024290122+1017766153+1012385308+1009988135
793+1009853367+1008618238+1004159578+1000782685+1001866071+1001595889+998623492
779+999614874+1003179794+1001607357+995753142+992168785+991552549+992616304
766+993656150+991151033+986303103+981308354+978382478+978549122+974513230
752+964223810+957736902+959569478+962815038+960496522+956597470+956959657
739+958769557+959722517+959027623+952655526+944414569+941711772+943216371
725+943890338+941809154+936749225+929751626+924920995+923653535+922353937
712+919862102+918653278+920581358+924171741+927236207+931525954+935976969
698+934425331+929455073+927503798+927184957+924890673+920518899+920799318
685+928729533+934710480+934159489+931494660+929118608+927803072+926114204
671+923033022+920510087+921962853+925839551+928823157+931360346+933900710
658+935248124+935021806+936847255+938186635+931090164+922262062+915418474
644+899392826+885978489+896302507+918416852+928073773+930285512+934056859
631+931326460+914979249+895683161+888585329+891898337+891806074+883476870
617+881485554+902708879+930564506+929435053+904730907+886088311+892503171
604+919342535+937176593+933774884
##END=
