##TITLE=Sample description
##JCAMP-DX=4.24
##DATA TYPE=INFRARED SPECTRUM
##DATE=12/9/2023
##SAMPLING PROCEDURE=Instrument type and / or accessory
##ORIGIN=Default
##XUNITS=1/CM
##YUNITS=ABSORBANCE
##RESOLUTION=4
##FIRSTX=4397.6552
##LASTX=599.8556
##DELTAX=-1.9287962
##MAXY=1.740875
##MINY=0.12922165
##XFACTOR=1
##YFACTOR=1.6213162e-009
##NPOINTS=1970
##FIRSTY=0.13878514
##XYDATA=(X++(Y..Y))
4398+85600291+85237283+84820821+83905925+83212582+84039394+85481197+85973400
4382+85657522+85415869+85560027+85619041+85640685+86205532+86607215+85899745
4367+85047659+85257613+85770973+85608048+85425051+85667219+85547353+84863246
4351+84556844+85418792+86904895+87478216+86651671+85783004+86023610+86694610
4336+87044328+87304510+87101302+86114203+85475352+85992655+86708893+86650743
4321+86417738+86957503+87679981+87616023+87357284+87103333+86369376+86202490
4305+87262003+88340366+88472374+88219737+88269570+88283025+87917857+87197943
4290+86498948+86340333+86812987+87664210+88018165+87616932+87414257+87444422
4274+87170068+87065761+87571291+88289505+88758740+88808765+88598251+88473063
4259+88674470+89220990+89414713+88664672+87528545+86720280+86662553+87151447
4243+87363478+87343856+87358993+87213659+87457160+88302427+88862283+88981175
4228+89309690+89560479+89018968+88413957+88746645+89434575+89619953+89233683
4212+88604987+88704046+89807151+90593652+90569517+90306973+89936318+89623409
4197+89438407+89277532+89333265+89639805+89894059+89868242+89739001+89804403
4182+90055173+90120097+89852480+89927761+90502286+90490945+89903351+90119334
4166+90901194+90928095+90276956+89411460+88587654+88433460+88854094+89085821
4151+89194751+89825955+90837465+91395069+91217145+90927737+90819340+90326365
4135+89591149+89527935+90164332+90672168+90462067+89990378+90061717+90243189
4120+90040091+90204578+90515052+89804899+88845023+88887264+89316482+89328293
4104+89366407+90029494+90879476+91311286+91415822+91013753+90124113+89767594
4089+90235009+90725861+90893501+90837630+90663318+90632391+91001437+91678890
4074+92031163+91631907+91098621+91108381+91306011+91170088+90846205+90648024
4058+90594231+90442041+90075218+89880254+90301431+90985648+91122223+90622088
4043+90282792+90702452+91118969+90591814+90002105+90312009+90727764+90602208
4027+90355289+90204064+90220561+90580040+91134989+91775623+92346067+92424032
4012+91978041+91417118+91216152+91589307+91969989+91789970+91609674+91863863
3996+91974465+91689524+91306240+91083934+91354262+92144853+92947585+93285392
3981+93122504+92650282+92068496+91672796+91641658+91916472+92270464+92330378
3966+91976487+91733685+92270822+92843876+92243764+91141339+90529978+90266561
3950+90416867+90994103+90785031+89926438+90540501+91999722+92217699+91397873
3935+90286983+90024513+91404858+92512310+91729255+90690670+90829221+90592733
3919+89848233+90715963+92966380+94137745+93642684+92243764+89461779+85892953
3904+84678180+86199301+88511637+91072427+91905360+89894463+88552186+90326053
3888+90923546+89916126+89926888+88740331+88138638+90347890+90431563+88434434
3873+86921457+86098082+87693069+88939605+88549411+90547146+93454549+92848168
3858+87687646+79942594+79701695+89644584+95140064+94563444+91534723+88646438
3842+86480796+84988994+86355718+89505169+90526173+90702811+91745440+92279673
3827+91932316+89770296+85876980+86410992+90045201+91587175+94428100+96894446
3811+95591037+91999648+90101164+90329794+88715111+88971185+92813060+94233008
3796+94819177+96257433+96628061+96261845+95586424+94902014+95090939+94953785
3780+94775006+96791491+98917714+98404924+95727355+93802401+95014582+97399461
3765+99428115+99806591+97859543+97287885+99043398+98539642+94730983+93802015
3750+99643372+103350262+105523211+114963217+124544477+127523393+128139442
3736+131236036+137612692+145297756+150972070+152415969+151594240+151091716
3723+151075889+151065899+150124938+148155464+146685968+149691179+161311910
3709+176603843+189629072+199559159+207879205+216440306+223100847+225508592
3696+224317155+219673145+211203308+203128729+200954540+200146064+195568963
3682+188257679+180211095+171331938+164289392+163103836+161750383+159639813
3669+162398481+165700673+165948567+165204168+164334353+162453607+161039385
3655+161239211+159202901+154972734+155890011+163103046+169022993+171756607
3642+173404201+175568575+177943767+179963091+181167212+180540916+179977190
3628+183801400+187287059+185674978+179827178+173376224+170958976+170026865
3615+167535704+166800938+169184475+173164248+177673282+180689089+181676363
3601+182111455+182455171+182457451+182916365+183293242+181375457+177519355
3588+175799098+176972522+176933093+175320902+174014800+173333708+172654822
3574+171886325+171003275+169333788+167779149+168782948+170861333+171574795
3561+171554557+171572883+171341257+170709850+170229779+170065411+169494701
3547+168936636+169447037+170440505+170779498+170430083+170117835+170044750
3534+169821451+169312778+168725892+168443000+168561800+168932133+169343898
3520+169470327+169379356+169265868+168868919+168209113+168020168+168457613
3507+168462374+167753820+167609727+168290653+168672493+168578049+168428202
3493+168132756+167482526+166801342+166735022+167189469+167749445+168270029
3480+168246850+167678345+167275844+167176878+167266635+167560354+167808542
3466+167768304+167437565+167250202+167707682+168378774+168501453+168266739
3453+168223340+168082206+167621086+167493647+167725475+167898850+168349529
3439+168979833+169194052+169113320+169158777+169427314+169834190+170113295
3426+169954276+169516722+169429372+169997491+170729169+171168673+171508180
3412+171941838+172219767+172132565+172045032+172413012+172993337+173198842
3399+173201526+173660422+174421565+175080710+175603022+175824795+175764247
3385+175720315+176038242+176732459+177448255+178047236+178385310+178544991
3372+179014750+179682515+180180876+180724364+181407643+182000062+182488111
3358+182913938+183455184+184383618+185532190+186434853+186830810+187082968
3345+187650334+188349476+188925058+189363219+189803752+190366577+190701085
3331+190767038+191128033+191934892+192896891+193376723+193122966+193191547
3318+194012247+194708173+195070069+195333716+195412223+195520399+195997878
3304+196664394+196976678+196981108+197653120+199293472+200757067+201402664
3291+201981462+203109282+204290407+204858103+205237609+205870174+206262675
3277+206542167+207279083+208018096+208304885+208309149+208178640+208459161
3264+209317599+209657786+208882084+207870657+207626219+207982822+208243876
3250+208198934+207778768+207256787+207095047+207159714+207138795+206837062
3237+206321496+205960721+205895246+205928388+205788137+205463886+205092597
3223+204688846+204336949+203951672+203456270+203225141+202970335+202118993
3210+201299323+200830832+200282436+199829184+199468152+198893581+198395477
3196+198141389+197660399+196867142+196263308+195880567+195344065+194394712
3183+193181364+192327651+191755506+190852328+189856819+189074482+188415540
3169+188176157+188292218+188180256+187800915+187368912+187051757+187024111
3156+186982918+186518673+185894233+185546454+185292641+184983353+184860380
3142+184756396+184360108+183702011+182946088+182387160+182095794+181602910
3129+180719437+180002796+179621158+179157832+178577875+177813533+176700879
3115+175520176+174514484+173819294+173312973+172480362+171227990+169908102
3102+168800925+167756522+166390055+165039396+164212060+163616332+162822065
3088+161892914+161233825+160906431+160566923+160289987+160235872+160080713
3075+159698689+159299588+158933464+158679854+158597725+158457345+158144656
3061+157767338+157556189+157801326+158253420+158410288+158192173+157652986
3047+157156115+157151556+157360573+157382630+157195745+156824530+156250455
3034+155432163+154684089+154486946+154673942+154692802+154339729+153813988
3020+153307291+152806403+152374537+152225123+152281444+152117453+151564940
3007+150922872+150582115+150510702+150141803+149242209+148243419+147640082
2993+147774350+148537534+149386256+149932143+150122566+150187196+150302035
2980+150366232+150330609+150305307+150289784+150081511+149714689+149457154
2966+149186302+148741514+148395738+148200351+147902368+147619752+147533992
2953+147431929+147264822+147305859+147566013+147764203+147673030+147271853
2939+146874508+146765101+146688339+146408719+146167544+145951055+145498712
2926+145106238+144943433+144476652+143619354+142935799+142623110+142372900
2912+142048999+142054863+142567175+143086794+143369411+143650989+143842561
2899+143690812+143494874+143674104+144048380+144225477+144154855+144086880
2885+144226791+144422941+144441497+144321180+144214724+144219788+144287000
2872+144252580+144041689+143760874+143596919+143464535+143093660+142563618
2858+142098795+141683739+141245357+140732852+140148961+139703392+139581127
2845+139665342+139845693+140109037+140275215+140335975+140520774+140791645
2831+140946969+140954184+140942273+140992105+141032940+141004807+140965479
2818+140999697+140966564+140786296+140754836+140930003+141085686+141278573
2804+141680945+142168957+142474652+142603506+142676867+142699339+142725615
2791+142755559+142633900+142363526+142225186+142381595+142642199+142732821
2777+142628597+142515422+142460498+142410417+142342470+142231941+142133830
2764+142200582+142400528+142447585+142315991+142315421+142483190+142680075
2750+142924669+143138750+143179612+143072714+142949273+142920561+142921866
2737+142874717+142943556+143183215+143371047+143430061+143469526+143511316
2723+143598041+143823638+144035209+143976306+143724671+143609557+143798537
2710+144131474+144352374+144421047+144428464+144411829+144435063+144505400
2696+144557659+144619237+144689538+144788146+144994230+145166098+145120705
2683+144966447+144887700+144876019+144831793+144762963+144713489+144584800
2669+144353936+144256523+144353550+144387768+144256165+144059868+143866577
2656+143742143+143680252+143612066+143531702+143415493+143277512+143092952
2642+142721341+142305808+142191759+142336174+142338591+142047234+141719997
2629+141539407+141435027+141284151+141019484+140747548+140637938+140585101
2615+140308908+139826558+139494467+139489569+139544217+139391384+139183553
2602+139139216+139114870+138954647+138787889+138693500+138601611+138510953
2588+138457775+138412906+138350491+138287718+138176335+137968053+137769606
2575+137715564+137729736+137587390+137298330+137090361+136964751+136719817
2561+136349529+136057345+135888566+135696396+135504832+135456618+135460248
2548+135347514+135129554+134866882+134637269+134537889+134563375+134572143
2534+134424704+134216846+134094130+134023995+134001717+133996690+133900867
2521+133804474+133832074+133872568+133844417+133792526+133684203+133549953
2507+133512786+133523355+133492290+133560256+133838176+134133035+134240696
2494+134201010+134228306+134499931+134891283+135156391+135319418+135568304
2480+135856196+135944997+135850176+135767284+135748462+135764049+135744491
2467+135699015+135793708+136057639+136327242+136463587+136464672+136467760
2453+136525928+136568858+136657402+136878394+137172885+137508468+137888057
2440+138203273+138370325+138440322+138465992+138482756+138548470+138649182
2426+138748516+138914437+139170750+139434479+139663890+139805814+139853579
2413+139947031+140144816+140426900+140774008+141030807+141127485+141242646
2399+141517928+141997181+142823745+144579487+148835251+158243788+175656549
2386+202778064+239212358+282654622+330652334+382431573+438604521+499282311
2372+563034417+627467890+687252814+735937702+772794202+798648088+810534267
2359+802329473+767490019+712357835+648118250+588996974+557363227+565411336
2345+606499786+643354632+646158629+632644726+621686375+616245322+615334148
2332+616024744+613013072+605202158+593025918+575106580+552192898+527388967
2318+501258145+475551642+457400733+448443986+438614483+418127719+387945821
2305+357358757+334456618+318272463+303694378+288867075+273220875+256298368
2291+239421504+224091778+210536774+198948505+190292867+185051806+182288469
2278+180510807+178931132+177471636+176150204+174997791+174030148+173044253
2264+171829012+170531218+169329009+168073787+166671863+165304109+164078224
2251+162909892+161761890+160655137+159654297+158851115+158211253+157634495
2237+157061376+156553163+156205347+155977599+155769557+155567562+155476665
2224+155494182+155496296+155430601+155311654+155258623+155333914+155439755
2210+155527710+155606549+155678972+155776597+155894092+155975706+156062265
2197+156224739+156400761+156533825+156660860+156802122+156913221+156937539
2183+156950112+157083471+157276826+157445238+157646626+157830681+157887609
2170+157912479+158031463+158179839+158277923+158333233+158353434+158426280
2156+158631474+158840399+158951809+159077999+159269957+159451218+159609538
2143+159758337+159869472+159910279+159942539+160088837+160326254+160522973
2129+160613245+160699013+160875035+161023246+161109032+161248604+161429827
2116+161606989+161832273+162125882+162396826+162610016+162868571+163179844
2102+163444024+163718185+164155592+164787973+165530276+166341950+167361208
2089+168704937+170312165+172195448+174476104+177213247+180288757+183278849
2075+185819971+188004326+189929537+191415576+192415202+193105558+193630866
2062+194085001+194544798+195001763+195500786+196173900+196992486+197859967
2048+198756271+199602245+200334401+201075638+201888378+202558276+202987963
2035+203298262+203534980+203713961+203803020+203680525+203326257+202844091
2021+202186178+201210209+200085166+199055247+198052955+196987597+195943156
2008+194967188+194000060+193052693+192224254+191570569+191077833+190596310
1994+189973046+189504537+189538451+189830718+190118316+190389977+190702684
1981+191128474+191610935+192141684+192801509+193607099+194366460+194926362
1967+195679161+196925136+198285795+199501680+200716609+201990102+203331515
1954+204826579+206396952+207860694+209184038+210321673+211379036+213036225
1940+215352964+217389824+218924832+220308430+221585949+222740384+223816974
1927+224595470+224888380+225112856+225400913+225536330+226021438+226817966
1913+227061430+226642606+226129815+225868007+225601254+225020451+224180193
1900+223127353+221706293+220047559+218522239+216921885+215274732+214297513
1886+213720828+212927461+212068050+211352088+210882439+210605300+210264561
1873+209426344+207957547+207222523+208596104+210747261+212244936+213200722
1859+214062982+215089813+216234580+217327180+218322670+219088777+219257152
1846+219120669+220486474+223343318+225286708+225938096+226162093+225869183
1832+224368972+222566237+222132083+222290808+222379517+222744594+222748031
1819+222173221+221518305+220717567+219508722+218530235+218446360+218649237
1805+218332559+217366259+216430307+216465140+216981643+216518722+215227528
1792+215619018+218121080+219904220+220363189+220517410+220691575+221228519
1778+222096441+221879300+220086785+218975841+220777987+223813996+226132444
1765+226851733+226620677+227278020+228449697+229390723+230211588+229909910
1751+228712682+228801410+230619070+232467042+233408564+233811341+234778560
1738+235591724+234735750+234909694+238363093+241712490+244228043+245955156
1724+246839254+246944029+245368968+243061733+244130915+248628092+252588510
1711+254798746+255241594+254839369+254967341+254517544+253141317+254028668
1697+257375951+262484738+267633891+269984985+270672308+270071378+268016080
1684+269571142+275919233+280742150+282810406+283958114+286099529+287935921
1670+289965668+295253638+300683313+303563280+306829629+312011997+316186928
1657+317012958+315515964+319937134+329437864+333905502+338645261+348468221
1643+357589004+363512315+366822356+368584192+374364568+385188771+393542308
1630+398847484+403402287+407670596+411910487+416549478+419114404+418683872
1616+418971212+421480957+422962437+422922954+423048536+424256168+425956610
1603+427892115+430523876+433891231+437591917+441713578+446506349+451684508
1589+457197396+463308897+470064378+477559423+485577460+492183756+497117367
1576+504767662+514056637+520397136+526958655+536794113+547125653+555986705
1562+561487498+564498030+575710084+594109658+609127651+621906880+633447486
1549+644363633+653463020+660516540+666633923+675030767+691453148+707251952
1535+717319019+727113817+739202046+749765856+758210933+766204854+773810041
1522+782791198+793834104+804957596+816798335+828035351+836011699+840704291
1508+844733235+856554490+874505334+886250269+891711137+894944968+900893903
1495+908952085+914090614+916416617+919813750+926671175+934705902+941712953
1481+947152057+950622569+951608188+950073622+948445457+951050639+957877404
1468+963845602+965508913+964347198+963586422+961872599+957538374+956581283
1454+960860878+963167690+961539452+957822112+954848343+952802108+950790282
1441+948144220+942638428+933063326+925013452+922607967+921597129+919342152
1427+916493451+914420673+915781350+919744120+922827958+925652027+929129672
1414+931601771+934251804+939002555+943599931+946709355+951015273+956138067
1400+959275064+961577171+965237895+970230695+975616713+979206926+979501104
1387+977843087+977134883+977801619+979461694+982247015+984983736+987343781
1373+990277258+992703697+992746857+991409047+990581362+989788161+989262448
1360+990208952+991487500+991394856+990015136+988714531+988442263+988624167
1346+987681561+985391806+981763874+976110000+970500977+967587353+965767799
1333+963475398+962252950+962460809+962972552+964178676+966279321+968212914
1319+969241105+969965853+971318369+973162480+975413560+979398829+984912636
1306+988676444+990181600+991658227+993323376+995297777+997650469+999934636
1292+1001818157+1002237992+1002693193+1006429503+1013546402+1021871926
1281+1029313296+1035069592+1039345511+1042151640+1044415440+1047791103
1269+1051558441+1053183076+1051914602+1049408754+1048540556+1050883396
1258+1054733892+1057537374+1059788380+1063511602+1067069684+1067769727
1246+1066942190+1067248573+1069301132+1071595960+1072422762+1071796172
1234+1071579637+1072754218+1073741823+1073359339+1071433320+1068591751
1223+1067454741+1068395803+1067572604+1064034300+1061457941+1061201260
1211+1061138175+1060281300+1060517246+1062086222+1061987918+1060560994
1200+1060814071+1061290007+1058098012+1052556706+1049534484+1048922010
1188+1047321564+1045556273+1046320799+1047890878+1046236611+1042589709
1177+1040982132+1039659983+1035775591+1032335813+1031787013+1032246552
1165+1032072001+1031637681+1031155937+1029840185+1027780789+1025129506
1153+1021400622+1018954478+1019962964+1020752856+1017611153+1013724630
1142+1012938487+1013670294+1012810257+1009603337+1005778648+1004052252
1130+1004682446+1004632227+1001637945+997679659+995809666+996207296+997300043
1117+996978292+994109151+990022636+987050264+986937475+988331827+988077573
1103+987040632+988559317+992733549+995490783+994449872+994654790+999143273
1090+1002244462+1002477761+1004706636+1009052478+1013098260+1015329855
1078+1014675250+1013930356+1015991517+1018428839+1019623934+1022167575
1067+1025110536+1024724523+1022981290+1023555603+1025969911+1028571196
1055+1030873229+1033633551+1035578835+1033907583+1032090235+1033357313
1043+1032897186+1029646958+1029323369+1032211848+1032486836+1029031911
1032+1028026072+1030407440+1029788055+1026714879+1026300705+1026863402
1020+1025428243+1023888603+1023770741+1023303408+1021468561+1018722870
1009+1015981150+1015658296+1018669417+1022271320+1024036979+1025104433
997+1026736716+1028042763+1029184111+1031036898+1033255038+1035860735
986+1038530620+1038563559+1035374359+1033209819+1033992874+1034893276
974+1035850441+1040487521+1047895804+1052882795+1054098331+1053954808
962+1052758683+1050080269+1049065239+1051615791+1053219619+1047903745
951+1039452271+1039096110+1046642770+1051005744+1050133649+1049338536
939+1049241849+1049332948+1051025596+1052968159+1052436491+1048910540
928+1044174273+1043475701+1048267627+1051208897+1048947891+1047095765
916+1047651403+1047493616+1044973136+1040686409+1038321143+1040169152
905+1042831905+1044334561+1047215834+1050320406+1048709005+1044620578
893+1042888152+1042184506+1041686807+1042183477+1042719263+1041122861
881+1036103959+1031410779+1030312444+1029880845+1027186329+1024447329
870+1023630673+1021687963+1017255360+1014745541+1016740676+1018983153
858+1016670459+1011188048+1005867174+1002787527+1003228611+1005672256
847+1007178809+1006263333+1003341842+1000761732+1001169582+1004620169
835+1008255527+1009005421+1006603392+1003981667+1003434191+1004181658
824+1004083869+1001905359+999332235+998539254+998981000+1000868786+1004170115
810+1003879980+998634618+993862912+991626096+990574009+988767690+985259459
797+982854342+983228591+984478390+985713557+986750277+985263503+981940411
783+979787268+976887687+971945253+968230413+967408464+967428316+964904454
770+959235286+953222678+949305861+948082605+948514425+947746002+945883950
756+947112132+948618023+943247666+935285509+931998813+931136644+929590019
743+928070453+926015468+923036478+920035799+917261286+914328912+911175004
729+907859632+903161820+896988189+892451987+891079032+888410176+882415582
716+879460341+881389670+884314911+887570359+890075987+890792647+892459561
702+896758125+901958931+904458455+903471071+902630152+903092926+903489894
689+905185997+907454576+906396901+903924067+904036415+905667374+906589540
675+906864969+911449331+923352274+932502468+923673363+911012585+907167677
662+905981184+903269830+905069458+913355793+916705133+910382244+903976417
648+902380383+902566331+902976534+902056794+899959164+899088466+896793050
635+891376960+882459183+869361659+860213156+859630387+859648548+855903709
621+853313821+854848313+856205534+852733037+852454373+862458206+868809183
608+859779572+849850073+850889955+855672910+855083965
##END=
