##TITLE=Sample description
##JCAMP-DX=4.24
##DATA TYPE=INFRARED SPECTRUM
##DATE=12/9/2023
##SAMPLING PROCEDURE=Instrument type and / or accessory
##ORIGIN=Default
##XUNITS=1/CM
##YUNITS=ABSORBANCE
##RESOLUTION=4
##FIRSTX=4397.6552
##LASTX=599.8556
##DELTAX=-1.9287962
##MAXY=1.8653888
##MINY=0.28946617
##XFACTOR=1
##YFACTOR=1.7372787e-009
##NPOINTS=1970
##FIRSTY=0.31642014
##XYDATA=(X++(Y..Y))
4398+182135512+182265373+182101254+181195663+180397339+180321396+180517490
4384+180748546+180863584+181030293+181972715+183343539+183748525+183361998
4371+183181994+182674150+181962337+182275305+183256737+183786231+183537969
4357+182954267+182424670+181559272+180763110+181423082+183164685+183858623
4344+183343659+183484687+183911099+183020758+181777599+181419668+181166432
4330+180699432+180962103+181766088+181930257+181832219+182313663+183052100
4317+183398468+182303336+180289952+179522969+179780237+179898792+180426537
4303+181599122+182425408+182311621+181688858+181352199+182039309+182944266
4290+182987461+182928844+183007807+183279518+183846615+183159745+181309930
4276+180467502+180781894+181099614+181609192+182334626+182357235+182244238
4263+183207795+184530277+184562459+183069683+181692014+181624580+182191505
4249+183029250+183914685+183292298+181531413+180978006+181790808+182488400
4236+182123624+180801708+179942348+180507300+181652078+182678301+183461391
4222+183412912+183011872+183118557+183128592+182541785+181836576+182000351
4209+183474995+184541548+183709996+182832555+183544385+184484080+184635624
4195+184400263+184064204+183863444+183791446+183385740+182465172+181711348
4182+181654617+182067477+182780508+183299195+183191841+183017893+182847497
4168+182474213+182694152+183357452+183323588+182750779+182188091+181673282
4155+181511857+181565756+181287406+181219199+181708603+181717643+181427405
4141+181937462+182498384+182094890+181321955+180897499+180640077+180347814
4128+180034691+179650617+179756152+180622820+181163635+180990134+180740877
4114+180302852+179881655+179988562+179997088+179683914+179763889+180230099
4101+180391370+180223203+180182684+180077955+180064763+180717461+181319039
4087+181129120+180834696+180814042+180390186+179599771+179341645+179710898
4074+179910904+179467869+179068390+179601555+180480436+180529447+180051331
4060+180153178+180652857+180684696+180178567+179760235+180104751+180637744
4047+180683581+181092410+181538755+180768634+179715547+179658010+180200988
4033+180491638+180153435+179507410+179167320+179363998+179862682+180023661
4020+179768246+179771351+179991513+180187264+180334365+179887316+179469670
4006+180149610+180458358+179537791+179244739+179674187+179497804+179420059
3993+180304396+181455487+181741917+180947539+180140758+180060698+180140466
3979+179790118+179302275+179210739+179505437+179715959+179735875+179933239
3966+180375930+180946921+181414727+181077039+180282043+180200027+180282146
3952+179906238+180031312+180530408+180151651+179260538+179136854+179524239
3939+179518389+179383485+179520997+179594418+179365267+179026601+178468956
3925+178186695+178773725+179153854+178884372+179091857+179948832+180263053
3912+179758159+179181353+178086323+176167735+175227749+175699003+176630618
3898+178059819+178312798+176249374+174870642+176577336+177635329+176839475
3885+176830812+177007384+177437553+178603020+177577449+175304430+174287385
3871+174049725+175346562+176609827+176357843+177314881+179242046+178959149
3858+175126811+168517589+166620462+173625166+178681571+179061133+176725929
3844+173897684+171976334+170746538+171461971+174323050+176076490+176747870
3831+177835180+178158836+177241682+175073032+171418192+170747293+173298148
3817+174502624+176905966+179845545+179460407+176319639+174380723+174810000
3804+173764067+173445334+176511857+178656182+180042788+181651701+182102644
3790+181743461+181232185+180718662+180738047+180596041+180285509+181699888
3777+183649217+183599640+181643158+180240461+181457700+183339954+184560641
3763+184822111+183746244+183994728+186246063+186725037+184183411+183058601
3750+187570570+191666248+194269596+200872917+207347115+209518784+210305872
3736+212266506+215391216+220147398+225071506+227623202+228487347+229504289
3723+230918360+232782105+235130415+237615191+239663707+242570623+250311156
3709+261732210+272607626+281719842+290749972+302881089+315596388+324716906
3696+330537839+332456410+329194909+324840796+324658271+325119627+322121175
3682+316172165+308768891+300299630+292484474+289425671+287442719+284237811
3669+284585518+286726909+287279648+287169155+286656095+284817191+283172202
3655+283575798+282781145+279801717+280411597+286231004+291449605+294461816
3642+296565965+298828040+301251607+303135937+303842329+302827052+301380301
3628+303683924+307024508+306980558+304096561+300914005+300519380+301277614
3615+300593008+300369140+301702876+303999603+307524119+310618397+311933091
3601+313047008+314655492+315494592+316038976+317064959+317352298+316600790
3588+316363885+316727116+316618219+316445781+316551281+316648925+316908749
3574+317395631+317284984+316365943+315859711+316337741+316931736+317640015
3561+318388711+318546567+318121065+317333737+316861986+317510978+318942530
3547+320187474+320381870+319904663+319484993+318872162+318181895+318078144
3534+318469783+318638001+318410840+318498843+318944314+318744223+318008942
3520+317683073+317747506+317747163+317294076+316579312+316470552+316690680
3507+316342476+316070575+316576156+316785167+315844855+314429703+313508055
3493+313389242+313543805+313513236+313407495+313287790+313297568+313290466
3480+312730471+311908663+311342733+310969826+310919872+311352271+311867012
3466+312112220+312112494+311968773+311900600+311926607+311624034+310939154
3453+310280829+309654034+308952171+308394406+308039168+307949896+308243274
3439+308666889+308770984+308170607+307188197+306558589+306272073+306143310
3426+306082103+305628913+305055434+305317213+306266515+306726533+306016161
3412+304881624+304375014+304226490+304135227+304800242+306059699+306546409
3399+305916218+305248321+305064217+304955492+304698070+304159827+303200782
3385+302278276+302179843+303057781+304095394+304361119+304078068+304197498
3372+304651238+304598230+304034735+303525861+303379464+303610811+303865969
3358+303933215+304001387+304181647+304490465+304804977+304709975+304402221
3345+304950551+306063233+306281474+305782892+305541939+305586369+305553398
3331+305377117+305515040+306402208+307290644+306949783+305817373+304990007
3318+304613051+304645988+304770256+304637788+304425380+303913212+302973072
3304+302419767+302491267+302658456+303196116+304393095+305406417+305497234
3291+305094307+304836198+304973229+305562181+306338873+307074943+307521031
3277+307807650+308501416+309460701+310507681+311486694+311609727+311046507
3264+310927248+311143636+310708184+309856184+309639281+309761971+309104332
3250+307972952+307168607+306741732+307039878+308139797+308784536+308076737
3237+307141571+307172518+307566936+307663277+307736801+307663585+306963815
3223+306091504+306148937+307153991+307632707+306952973+305993002+305190715
3210+304796709+305224338+305765463+305439011+304478079+303284256+302184577
3196+301827624+301950486+301930003+301578917+300995077+300513205+299984260
3183+298896486+297353636+296597530+296922644+296834435+295707446+294468952
3169+294256956+294591128+293896984+292454831+292108514+292817205+292540295
3156+290996450+290115698+290968522+291741851+290320936+287757266+286856547
3142+288577411+289804479+287925227+285453420+285860053+287940151+287196071
3129+283660404+282018400+284122721+285880879+283276244+279214618+278869708
3115+281958874+282253315+277480631+273496183+274435483+276838671+274404176
3102+268586193+266172078+268636250+270878031+268161291+263597103+262985542
3088+266854488+268987577+264793448+259586220+258813732+261099428+261536716
3075+258445062+255851492+256655031+259314131+259425002+256052870+253259466
3061+253442986+255465051+255879060+253848264+252239780+252604040+253770399
3047+253432042+251675771+250276933+249797187+249917458+249611609+248463932
3034+247608483+247711171+247962005+247636342+246949661+246341290+248243907
3020+259231463+279617494+292873472+286892863+272542953+261339301+254562427
3007+249992184+246414214+243987439+242797167+242216020+241248209+239955524
2993+239684636+241411161+243530989+243244782+241338888+240709452+242216037
2980+244128055+243736621+241504773+240067286+240362500+242158261+243239635
2966+241649370+239372148+239164234+241877972+244309482+242270486+238172406
2953+236365221+237899528+240958760+241296740+238488497+236375805+236928423
2939+239372765+240303711+237951181+235369070+235149543+237449134+239782966
2926+238570410+235047696+232858443+233333145+235243996+235111717+232378869
2912+230264495+230215262+231656540+232675660+231648306+230016732+229474029
2899+230121598+231298712+231333656+229958131+229007098+229361889+230394356
2885+230870928+230276487+229591469+229673434+230497421+231259308+230938157
2872+229892481+229166961+229116544+229653843+229986402+229431588+228751683
2858+228614394+228545982+228071331+227110879+225927761+225039050+224829901
2845+225224233+225582627+225519687+225321466+225178585+225100583+225323507
2831+225895201+226345561+226330294+226099307+225889317+225557736+225097495
2818+224693985+224438484+224330273+224240915+224092304+223892316+223628564
2804+223549464+223908304+224389422+224564004+224577797+224705667+224845957
2791+224849560+224731313+224657154+224665542+224442430+223973543+223625219
2777+223556395+223758476+224021370+224017527+223683116+223175837+222748567
2764+222610713+222743798+222935124+222960667+222804165+222661799+222636153
2750+222607059+222509312+222469994+222623424+222899288+223031001+222841477
2737+222490493+222304143+222354646+222571926+222847927+222831527+222459667
2723+222140883+222097945+222243656+222366105+222320423+222233363+222300866
2710+222533534+222734380+222650117+222351661+222165877+222146818+222127159
2696+222085199+222121841+222206448+222165980+222073431+222178022+222318690
2683+222219159+222080567+222029807+221859015+221615283+221443479+221322797
2669+221299758+221383284+221456826+221367690+221083696+220852984+220777984
2656+220633233+220411853+220321551+220325188+220211693+219937992+219627974
2642+219369025+219183978+219086780+219042607+219006720+218983304+218858693
2629+218598475+218446073+218359768+218071297+217690945+217445068+217303182
2615+217102079+216793416+216515237+216307666+216077126+215845899+215626406
2602+215363306+215062911+214821289+214803088+214916257+214854500+214621352
2588+214433595+214301024+214162672+214120952+214079610+213803438+213460740
2575+213332853+213366407+213339320+213171840+212936839+212692094+212432099
2561+212170886+211994862+211815134+211516352+211292759+211218462+211077108
2548+210827955+210679722+210651640+210530906+210327023+210226515+210181827
2534+210040542+209961733+210104168+210210544+210081267+209817995+209513690
2521+209250006+209131639+209156308+209220312+209237741+209222627+209194357
2507+209099131+208956971+208854181+208848022+208936111+209007131+209010391
2494+209008658+209044151+209129752+209216435+209251859+209311900+209533983
2480+209861979+210015342+209900663+209729529+209650532+209651475+209670363
2467+209669419+209703025+209781284+209883903+209994567+210017400+210042875
2453+210211573+210386876+210491382+210625016+210793320+210896642+210916353
2440+210967611+211114728+211280253+211416632+211546887+211666918+211785628
2426+211906465+212015242+212097670+212150918+212250878+212406367+212514595
2413+212533071+212502364+212510307+212676621+213030005+213352100+213486970
2399+213653506+214140234+215425131+218737770+225699124+237621881+255329975
2386+278456899+304861827+332016497+358849965+385689470+413496290+443314177
2372+475059281+507211224+537728985+564736708+585848293+599538694+606687565
2359+605298866+590442158+564644863+535418877+508128617+492135726+495887986
2345+514584203+524729880+516547821+503890402+494323658+490037821+492895435
2332+498721858+499015476+493731035+490049452+489772302+487491426+479062650
2318+465475006+451662361+446120464+450605329+453749733+445183171+426308890
2305+404993097+388914089+378931347+370518250+361093409+349921269+336310809
2291+321739416+308691112+297593869+287722562+279182093+272332466+266951034
2278+262439254+258307860+254484648+251081004+248129126+245588409+243361759
2264+241370161+239610854+238043713+236585657+235287654+234207892+233195548
2251+232140969+231123049+230186837+229372559+228744409+228252124+227802261
2237+227379417+227042570+226819594+226672528+226547111+226399993+226253424
2224+226169881+226171545+226233696+226330619+226431060+226530368+226680385
2210+226844280+226977966+227191489+227484043+227691443+227838560+228059838
2197+228325854+228555794+228729999+228880531+229104536+229406920+229612655
2183+229680896+229792212+230000898+230179940+230198862+230026132+229820397
2170+229816555+229980518+230061591+230042909+230025429+229918556+229675990
2156+229408978+229198937+229035711+228838125+228585575+228331618+228128988
2143+228177381+228534728+228957315+229367430+229770992+230099228+230388901
2129+230726537+231106598+231457718+231801959+232136920+232389573+232657991
2116+233049751+233409912+233628581+233790486+233908665+234035677+234235854
2102+234506468+234901985+235337437+235687751+236071345+236695378+237501010
2089+238173213+238597120+239058870+239847296+240956941+242336360+243828587
2075+245237271+246708467+248417512+250360596+252569199+255100653+257847790
2062+260724411+263798121+267043000+270484710+274115962+277837807+281625766
2048+285336580+288799940+292084737+295375676+298424906+300939874+303167124
2035+305204714+306814673+307833519+308384731+308696841+308847253+308786766
2021+308331105+307485864+306418470+305114172+303558181+301855175+300082487
2008+298361777+296838929+295392934+293852896+292208148+290506720+288890036
1994+287444812+286199028+285158687+284228685+283296418+282339397+281542240
1981+281007274+280522622+279981943+279501940+279150408+278925855+278777279
1967+278691900+278747653+278905972+279068152+279269753+279611198+280111015
1954+280700875+281318184+281896534+282416181+282884450+283337332+284010238
1940+284961392+285946169+286897666+287774455+288444257+288980063+289561845
1927+290093431+290477145+290924160+291281525+291415811+291986030+292985217
1913+293535296+293506511+293492101+293885833+294481167+294950002+295206978
1900+295304038+295303661+295320507+295427174+295358659+295263862+295738942
1886+296455215+296903739+297340393+297936686+298363047+298453417+298458804
1873+298188036+297182913+296240886+296755180+298113619+298999105+299108311
1859+298780213+298476885+298285954+298047368+297792176+297438483+296381382
1846+294578879+293829360+294670931+295003318+294413269+293931739+293453023
1832+291837986+289715859+289250317+289969541+290566075+290963993+291063764
1819+291015217+290803460+290179890+289218066+288349838+288183472+288421510
1805+288515208+288387784+287750765+287097895+287105409+286629488+285334213
1792+285493682+287544069+289207053+289965149+290072846+289750545+289832167
1778+290215298+289444130+287089764+285628054+287967393+291743361+293838487
1765+293936336+293410891+293937915+295060855+295830891+296470929+296478923
1751+295575013+295221353+296598250+298633575+299758814+299761078+300098029
1738+300689485+299932213+299996096+303247511+306496935+308733346+310242505
1724+311142539+311292127+309715722+307281930+308038585+312207839+315928261
1711+317952847+318120241+317327939+317431553+317339810+315783030+315978592
1697+319055510+323939699+328943868+331509819+332440285+331794311+329207809
1684+330341282+337270677+342510482+344224089+344696424+346254508+347719854
1670+349313928+353963717+358831849+360993261+363302647+367921249+371830234
1657+372084225+369069475+370559592+378395059+382308744+385131500+392080794
1643+399099222+402978872+403757314+402397537+404073748+411259158+417037171
1630+419496386+420931780+422349539+423982245+427211187+429826509+429683028
1616+430718617+435256867+439218962+441518708+443755222+446824111+450211185
1603+453611981+457249855+461014672+464644826+468567088+473206550+478129440
1589+483056139+488093793+493461468+499533991+505934304+510841961+514023933
1576+519402690+526877807+531987717+536762666+544631344+553290404+560399511
1562+564178978+564761136+572453843+589035000+603258978+615109033+625643536
1549+635620447+644494865+651365900+655355168+659929340+674878545+692195155
1535+703387708+713025575+724162548+733957825+742559348+751038867+758319555
1522+766509436+777293984+788522631+800185908+812377202+823936864+832463662
1508+835944536+841917631+856187652+868229770+874756478+878258693+884745603
1495+894948542+901981654+904476413+906909828+913979993+924078221+933111148
1481+939022966+942506517+946077693+949157424+948844936+948884392+952950856
1468+955074870+953266363+953818124+957478092+958395108+955010780+954086765
1454+957057736+956796025+953251747+948984232+945931330+945064131+944836318
1441+942251668+935186649+926740272+924118706+923237645+917915122+913898543
1427+914857829+915464484+914346073+912840310+912048317+916034566+923875179
1414+930901841+936836441+942252697+944759671+944552580+946713992+952926016
1400+959387811+963662875+965611020+966378174+967336087+967241873+967105186
1387+969970416+973956322+976331891+977448106+978043989+978396619+979008489
1373+981848948+987077670+990533087+989877781+988122248+987112666+985522022
1360+983947299+984085084+985291945+986426687+987108754+986561248+985364680
1346+984016191+980843619+975842573+970760419+966089290+962576920+961825411
1333+962553178+962413402+962146477+962226554+961775869+961502836+962632158
1319+965705164+970047062+973056666+974325694+977218441+982609171+987844412
1306+991250012+992874347+992988185+992455912+993152320+995053462+997126355
1292+1000495931+1005712096+1010446628+1013642050+1017899479+1022185934
1281+1023736710+1025944644+1030875837+1036352409+1040572716+1041725367
1269+1040847669+1041503250+1044698740+1048477007+1050187664+1050144983
1258+1051421628+1053576040+1054340861+1055490151+1058291085+1059496162
1246+1057693900+1057232441+1060572853+1064385360+1065981356+1066061502
1234+1066081539+1065854892+1064731060+1064083371+1064389409+1063224612
1223+1059596688+1056361673+1055336857+1055783975+1057243145+1058467023
1211+1058258766+1058047490+1058837288+1058842640+1056911238+1054072151
1200+1052998205+1055879149+1058905357+1056894152+1052681600+1051100975
1188+1051198138+1050164814+1047568705+1045190322+1044891215+1044705190
1177+1042660293+1041113291+1041207230+1041020862+1039104350+1036092002
1165+1033905408+1033186425+1032834206+1033069019+1034343468+1034126497
1153+1030971217+1027992217+1028447363+1030800082+1031837730+1031662753
1142+1030266506+1027198028+1025133849+1025807270+1027163513+1026998005
1130+1023913608+1019827451+1018797351+1017871757+1014041547+1012668630
1119+1016017894+1018549570+1016554010+1013056598+1012106645+1014022059
1107+1014484410+1012223022+1012673021+1015798795+1017435825+1018037539
1096+1017823862+1016244060+1017753116+1024067656+1027996129+1028057679
1084+1029250885+1031947108+1035191592+1037042367+1036706412+1037360276
1072+1039976696+1042874657+1045215848+1045500203+1044888264+1048157108
1061+1053283108+1053991662+1051521811+1050550106+1049209920+1044997162
1049+1042376831+1043153660+1045691649+1049849306+1052088737+1049084074
1038+1045085679+1045423899+1047338696+1047587850+1046080509+1038944195
1026+1028538008+1023836069+1025941968+1029640500+1030115614+1027106903
1015+1026340092+1028554957+1028306627+1026701985+1028161019+1032346947
1003+1035212657+1034966180+1035545800+1038787196+1041217385+1040650323
991+1040583283+1044567954+1049055803+1049298575+1045824631+1042651922
980+1042066813+1041714389+1041085432+1043278614+1047225133+1049026572
968+1049861177+1053127207+1058079947+1060829417+1059853183+1059121643
957+1061192615+1062959264+1062741538+1062455056+1062695564+1064241674
945+1067402512+1068209807+1066258849+1065920766+1066373030+1064578521
934+1062488405+1063385110+1065752102+1066380097+1065137075+1062761986
922+1060663841+1061251283+1064560886+1067872754+1068567995+1065422390
910+1061048653+1060760662+1064030329+1066378176+1068143934+1071298116
899+1073741823+1072521582+1068497318+1064394418+1062214000+1061533031
887+1060059656+1058598908+1057439668+1054863528+1053199668+1052316138
876+1048538763+1044421042+1043672552+1044405328+1043032136+1039271436
864+1035584363+1033873912+1035336514+1037787700+1036953163+1033090702
853+1029278538+1027867332+1029038030+1031734802+1035552524+1038519790
841+1036872948+1029890340+1023638311+1023017726+1025182843+1027014611
829+1027966074+1026993751+1024778955+1023832775+1024438882+1024289980
818+1023747963+1024301027+1023696362+1021709928+1021613588+1023050663
806+1023962670+1024998259+1025857224+1023595013+1018278527+1014221052
795+1012966982+1012579220+1011076202+1006938924+1001351190+996520386+992888826
781+991134871+990803444+989175335+985856949+983632820+983321910+983670492
768+984487394+985486684+985173098+982489020+979270062+977292343+974829148
754+971020346+967147935+964098396+961578591+959539526+959475780+959918163
741+957404053+951682650+944465229+938900208+937576902+938915167+937742821
727+932575856+928161222+926235721+923524333+918950573+915854031+915946254
714+916927360+917536966+918378296+920224200+922840345+925369551+928544044
700+932411858+935960733+937767593+935358949+931594132+933336902+939888107
687+945393225+947803034+946992582+943369393+938349477+933742094+931847403
673+936423358+948787297+957319927+947540157+938481910+937602154+935638020
660+934245273+939097143+946089701+946736979+939887558+935098611+937056706
646+935526172+929701636+929333224+931326657+932502365+937702885+943566260
633+939513245+925070374+913518054+913068878+914578415+908973252+899732617
619+886577165+874093076+880481518+906437801+926682015+924881125+913787038
606+909113851+913600602+921502492+924835356
##END=
