##TITLE=Sample description
##JCAMP-DX=4.24
##DATA TYPE=INFRARED SPECTRUM
##DATE=12/9/2023
##SAMPLING PROCEDURE=Instrument type and / or accessory
##ORIGIN=Default
##XUNITS=1/CM
##YUNITS=ABSORBANCE
##RESOLUTION=4
##FIRSTX=4397.6552
##LASTX=599.8556
##DELTAX=-1.9287962
##MAXY=1.7734405
##MINY=0.15506597
##XFACTOR=1
##YFACTOR=1.6516452e-009
##NPOINTS=1970
##FIRSTY=0.16688566
##XYDATA=(X++(Y..Y))
4398+101042078+101787549+101789805+100921274+100219063+100475821+100928338
4384+101001822+101388099+102309057+102981278+102870587+102491618+102529582
4371+102646426+102463668+102426596+102776208+103408931+104016275+103932307
4357+103101118+102327056+102276127+102838352+103209698+102666663+101659455
4344+101417809+102231152+103288334+103606504+103156883+102902579+102891176
4330+102525270+101905701+101338857+101044767+101186088+101804835+102922653
4317+104247229+104744793+104048492+103327408+103275892+103577408+103636331
4303+103306071+103268097+103517691+103541320+103550892+103927832+104270596
4290+103824394+103208678+103272202+103465796+103440084+103466004+103739741
4276+104220831+104312169+103705277+103068269+103011475+103335600+103676497
4263+103910970+104052101+104368638+104766807+104650323+103894351+103299782
4249+104071363+105560527+105528914+104449466+104326478+104717321+104741545
4236+104737467+104971480+105370794+105508199+105221904+105030845+105307342
4222+105796660+105861086+105308750+105019098+105768818+106603345+106605483
4209+106439848+106119946+105244495+104630673+104928842+105759020+106514668
4195+106792726+106714424+107072237+107774610+107580393+106358389+105211899
4182+104902516+105336772+106021317+106626595+107181810+107638919+107438125
4168+106794422+106660076+106705249+106122716+105346579+105203544+105661258
4155+106088739+106160545+106198726+106579302+107145297+107335653+106758073
4141+106091581+106330041+106838558+106392772+105455971+105369035+106015218
4128+106005673+105477579+105947328+107168340+107942392+108126134+107577046
4114+106522725+106157144+106453805+106179717+105801325+106478381+107132721
4101+106740507+106459282+106916923+107191310+107140020+107471903+107787250
4087+107476550+107134182+107147391+107039361+106761745+106787854+106973933
4074+106852082+106522418+106507071+107176225+107982179+108001775+107461826
4060+107244179+107390543+107490110+107564938+107651685+107624781+107509642
4047+107460346+107670054+108102804+108273671+107745523+106969504+106822111
4033+107321398+107711501+107675954+107641869+107823166+107920081+107614253
4020+107055844+106780285+106781602+106781737+106898049+107252641+107892401
4006+108447932+108273960+107720848+107658009+107906268+107744251+107297427
3993+107255871+107653146+108026216+108333560+108543087+108391806+108032874
3979+107622354+107219323+107163080+107404500+107650882+107900710+108276441
3966+108593772+108404301+108043159+107848085+107470225+107097201+107104455
3952+107344783+107663702+108088025+107727181+106540020+106636961+107740281
3939+107759850+106613432+105153066+104998131+107042636+108704202+107662169
3925+105893981+105672102+105538261+105022833+105972698+108144512+109206791
3912+108672589+107415209+104983389+101597491+99659527+100151317+102756188
3898+106507495+107602650+104716996+102654573+104492817+105190246+104001569
3885+104218476+103804393+103830980+106171859+105881981+103072771+100769135
3871+99594325+101391077+102843449+102071120+103581684+106676658+106631602
3858+101822978+94191025+93885765+103834147+109848987+109919782+106876766
3844+103154519+99903500+97516195+98605152+102403671+104547951+105444856
3831+106293313+106356629+105949195+103915129+99541637+99019569+102147221
3817+103710464+107207703+110870928+110087168+105870280+103083534+102967096
3804+101066934+101047347+105127588+107175918+108446154+110202063+110480383
3790+109965903+109391327+108788503+108795279+108388043+107622354+109082486
3777+111342274+111168438+108667329+106897923+108072661+110045053+111491462
3763+111294701+108887132+107938657+109081656+107471380+101954249+98757732
3750+102386990+104230962+103495064+108111600+113036292+111466363+106184877
3736+103580295+107640669+114760461+119291947+119808854+119127322+120225545
3723+123168913+127308518+131512189+133920290+133345525+132295002+137092944
3709+146826710+156008565+163643171+171619405+181253145+188600652+190864546
3696+189657166+185608358+179041290+174422381+174770451+174907224+171884435
3682+166645823+159871627+151867894+146668780+148156004+148632457+147030734
3669+149574680+153270366+154694166+154892000+154426194+152917660+151791045
3655+151962391+149406951+144025863+144110309+151495105+157202790+158635702
3642+158110856+157673342+157463039+157045591+155794057+152437598+149193175
3628+152305227+156906850+156819030+153686263+151198335+152280345+154031842
3615+153868616+153870456+154219590+154469933+156048767+157472476+156962714
3601+156086118+155938824+155476988+155266504+156053278+155779406+154051077
3588+154536966+157574443+159189040+159211036+159329513+159749884+159976247
3574+159927365+159102609+156668435+154287309+155496782+158662119+160210458
3561+160624929+161268704+161665312+161186134+160638625+160590862+160159845
3547+159492450+160076066+161735124+162777888+162617062+162237596+162305116
3534+162193099+161566358+161104557+161116900+161043136+160854630+161000335
3520+161180108+161044363+160864915+160649415+160174659+159875994+160215384
3507+160483157+160077816+159863381+160240592+160459772+160508148+160628376
3493+160488065+160030379+159715529+159882941+160212732+160230469+160056723
3480+160051111+160081786+159788354+159422205+159333284+159371970+159594092
3466+159857535+159662912+159373757+159638715+160241512+160659520+160748296
3453+160608708+160211360+159813670+159993136+160488679+160746853+160942342
3439+161215005+161456975+161691548+161931858+161974388+161875488+162198188
3426+162680703+162565654+162453944+163086008+163940302+164608382+165201381
3412+165608508+165665671+165474459+165387902+165758165+166557497+167339002
3399+167797717+168083137+168409139+168987684+169785086+170352263+170588333
3385+170824566+171173898+171519567+171999087+172673861+173218051+173666066
3372+174205907+174651522+174860580+175001937+175495892+176477289+177559948
3358+178366877+178856592+179249175+179793870+180404137+180721243+181096522
3345+182272560+183827359+184755977+184973569+185246557+185952025+186599426
3331+187015251+187653702+188568697+189328422+189769436+190040926+190231146
3318+190483745+190806661+191048793+191376022+191773694+191864112+191726400
3304+191652005+191708320+192188742+193297872+194627627+195722628+196673025
3291+197939932+199327228+199924449+200047510+200953879+202410970+203444694
3277+203948285+204184391+204680331+205598699+206099475+205963513+206124863
3264+206757234+206908424+206412827+206067465+206013982+205865660+205652488
3250+205487476+205241193+205098411+205358984+205463730+205005827+204719414
3237+204944748+205196245+205040074+204587350+204512900+204674701+204365264
3223+203909652+203734950+203382045+202602038+202032424+201866131+201594261
3210+201370461+201391663+201029086+199899711+198619632+197928835+197709293
3196+197528402+197253447+196756695+196157056+195863426+195762614+195306713
3183+194167432+192704062+191846141+191671276+191429378+191062398+190765177
3169+190252619+189573316+189293543+189463879+189523532+189327863+189174705
3156+189059837+188832266+188416459+187733150+187093345+186909098+187017434
3142+186824706+186116568+185521873+185276041+184874724+184410506+184228784
3129+184099751+183684144+183070755+182550275+181992733+181290676+180626710
3115+179698057+178461680+177590172+176967419+175958000+174539758+172991003
3102+171693439+170782794+169916933+169038659+168390716+167800893+167129024
3088+166749973+166704502+166500352+166018233+165559518+165244037+164966646
3075+164540717+163943965+163519299+163416718+163493893+163641330+163600695
3061+163341962+163245733+163419515+163574405+163578176+163437523+163129476
3047+162993153+163118685+162943261+162428050+162076842+161949523+161668108
3034+161107156+160558690+160133338+159836189+159722024+159533392+159175254
3020+158873360+158668362+158523667+158349596+158059105+157638030+156947900
3007+156198334+155903440+155947251+155741224+155161632+154658348+154580128
2993+154825400+155207681+155808547+156582527+157112137+157245970+157138535
2980+156940123+156963382+157331372+157716792+157673523+157145410+156679459
2966+156578070+156566179+156440286+156038680+155375472+154912426+154905786
2953+155078016+155144815+155176140+155261921+155237201+155028973+154787760
2939+154666540+154678955+154662877+154550770+154433917+154214682+153851167
2926+153624227+153487995+152961037+151898100+150786047+150272821+150362680
2912+150465432+150372126+150417498+150714557+150921206+150879281+150786516
2899+150670186+150531464+150597370+150861841+151095385+151234243+151301330
2885+151348651+151467227+151682113+151940161+152143481+152204957+152122911
2872+152092128+152276267+152473416+152477205+152355859+152274444+152372423
2858+152524192+152442326+152031680+151329253+150556076+150105679+150103929
2845+150306879+150399445+150325789+150392200+150791469+151283746+151645141
2831+151920673+152084838+152020926+151835307+151789385+151937797+152036750
2818+151974138+151934766+151994726+152107483+152219067+152238934+152290215
2804+152605245+153115819+153459143+153455913+153407032+153516523+153605588
2791+153649670+153750048+153842452+153890431+153904559+153879586+153876663
2777+153948659+154110803+154276826+154252520+153954108+153510478+153302485
2764+153576681+153977385+154079857+154006328+154036407+154109864+154189745
2750+154464935+154830398+155009467+155030669+155068002+155183718+155283195
2737+155302159+155360730+155483285+155536533+155513130+155469969+155430885
2723+155471286+155625923+155788987+155839925+155782744+155754162+155968579
2710+156412065+156759485+156894039+156962390+157055623+157199975+157277095
2696+157241098+157344580+157625399+157732671+157564284+157453873+157538066
2683+157589654+157556760+157551310+157584927+157671610+157732996+157641783
2669+157498117+157448694+157449452+157409051+157293371+157124642+156931895
2656+156675147+156428738+156378124+156523234+156714393+156807301+156717153
2642+156494274+156295266+156177745+156045898+155855172+155610730+155362534
2629+155243823+155224426+155111344+154796060+154404343+154262787+154381301
2615+154325454+154006364+153754938+153633304+153496674+153317226+153171882
2602+153133033+153100626+152969121+152876591+152929027+152943210+152762481
2588+152478991+152225004+152040323+151877855+151736281+151686390+151707700
2575+151774156+151785866+151549165+151207195+151060722+151014908+150808485
2561+150476457+150207547+149998110+149761544+149557294+149415450+149256979
2548+149135245+149087572+148970611+148795349+148696703+148663872+148661084
2534+148720124+148766344+148600293+148278947+148045350+147883819+147723273
2521+147607547+147542363+147550709+147576043+147451647+147208143+147053515
2507+147053984+147144700+147259532+147344826+147390505+147391028+147337356
2494+147289088+147375817+147660254+148002775+148253767+148474148+148737257
2480+148966470+149105923+149157105+149123390+149130291+149248516+149275997
2467+149134938+149057186+149186174+149428839+149619970+149717913+149804759
2453+149861724+149870872+149974932+150237437+150553108+150839692+151073948
2440+151258061+151407411+151456599+151398624+151384964+151485632+151633232
2426+151752052+151868869+152083557+152384621+152628991+152736588+152791586
2413+152869482+153025942+153298840+153581914+153801979+153970799+154142145
2399+154410369+154744509+155005299+155121322+155170095+155252592+155295898
2386+154945303+153762318+151603495+148583467+144939540+140954951+136804203
2372+132629051+128578069+124665664+120800662+117310208+115039837+114579390
2359+116057818+119324462+124085982+130352725+136621715+139445956+137379284
2345+132734708+129418072+128511216+129143902+130579457+131941989+132772284
2332+133393134+134547834+136390923+138323799+140050341+141885445+144121993
2318+146620539+148848678+150478514+151862517+153365278+154892542+156352520
2305+157747918+158986243+160008600+160876012+161664247+162385376+162988642
2291+163442539+163850479+164328122+164824170+165185989+165347303+165404484
2278+165462676+165582615+165757570+165873611+165939598+166051507+166192160
2264+166352282+166579457+166834347+166999305+167090193+167224982+167388497
2251+167540229+167730341+167890571+167919207+167922149+168024476+168203707
2237+168357605+168425505+168495840+168660456+168827814+168897248+168942610
2224+169024801+169113704+169180376+169194757+169183859+169201975+169307316
2210+169544703+169827796+170055241+170204032+170243530+170196543+170191004
2197+170318070+170535121+170716861+170780484+170814678+170912945+171009715
2183+171122130+171319026+171496886+171636222+171819062+171928607+171920632
2170+172015489+172252461+172406954+172464406+172585319+172719242+172743205
2156+172703760+172753580+172945081+173137106+173253399+173408470+173636185
2143+173774817+173785085+173809119+173832757+173836005+173978174+174217401
2129+174310292+174291310+174369801+174518015+174622075+174670433+174697084
2116+174801540+175000295+175136636+175138043+175091815+175066192+175060869
2102+175068303+175138549+175271262+175355654+175403778+175511104+175653092
2089+175772904+175848400+175876784+175884290+175874402+175851757+175865199
2075+175905798+175974528+176126333+176261175+176241471+176129707+176076820
2062+176134687+176246903+176361500+176472543+176549645+176554770+176562890
2048+176629183+176672543+176646000+176602063+176626549+176731583+176869187
2035+176989883+177051359+177110796+177235390+177377902+177433712+177408451
2021+177398580+177396361+177464585+177727505+178049663+178240009+178351323
2008+178521514+178703470+178784217+178832918+178920341+178995873+178985895
1994+178830067+178765361+179068916+179528064+179911680+180155003+180264242
1981+180400709+180615541+180860994+181135010+181406122+181520828+181361174
1967+181241524+181562527+182128352+182612816+183018951+183297135+183422235
1954+183598037+183899445+184168932+184241578+183987445+183563519+183747298
1940+184710957+185569365+186045222+186387409+186671530+186945943+187203648
1927+187212742+186837770+186630805+186774633+186873479+187441685+188574056
1913+189247964+189233492+189297242+189926437+190757364+191366927+191708519
1900+191862940+191915033+192080514+192427284+192408410+192230587+192928962
1886+194049929+194744426+195208355+195697150+196265122+196799928+197052509
1873+196559799+195139084+194367053+195903032+198244605+199704691+200442421
1859+200988596+201544225+202123962+202691591+203071706+202986719+202222879
1846+201167105+201758823+204258227+206058028+206725945+207465353+208070225
1832+207371669+206343737+206970983+208387042+209995486+212117644+213747163
1819+214569321+215242742+215724048+215626971+215743193+216928649+218359648
1805+219015079+218776086+218454614+219251348+220644076+220795465+219847035
1792+220736497+223988265+226431678+227370725+227856109+228221049+228968577
1778+230170526+230238894+228515744+227440321+229562767+233065509+235773303
1765+236704411+236545948+237333100+238697481+239881909+240988025+240641652
1751+238988802+238848004+241017852+243398978+244681926+245212582+246279002
1738+247127576+245987086+245762329+249388438+253246503+256159295+258055036
1724+258969417+259040420+257042911+253835712+254434287+259510052+264316763
1711+266928744+267105196+266047835+265815879+265307127+263569578+263998737
1697+267279592+272729121+278412501+280930147+281380057+280327748+277354508
1684+277961274+284433015+289565457+291351491+291712064+292985034+294012443
1670+295086260+299630575+304632721+306683280+308475845+312182340+315067688
1657+314196017+309943546+310981655+318828206+321910631+324073315+331545453
1643+339114343+342909145+343292942+341700485+344074609+352411561+358616034
1630+361289797+363344687+365663596+368458507+373033785+376777451+378096938
1616+381628406+388454063+393893758+397797546+402196390+407658280+413152901
1603+418303892+423708726+429505874+435346111+441416300+448099012+455111497
1589+462094966+469080565+476433396+484607844+493106614+499676010+504333389
1576+512112347+522188129+529084771+535687368+545908946+556799524+565597320
1562+570224782+571309408+580755454+599170317+614333936+627178321+638898347
1549+649877341+658600687+664640743+669392240+676029409+691293208+707574907
1535+718321422+728665554+741021957+751050175+758344363+765008958+771702064
1522+780589250+792085819+802849295+813144059+823743190+832760726+837798112
1508+839390461+848795728+867766274+880475907+886251870+889703331+894707732
1495+901641040+906691201+909381781+913126493+920524181+929354132+936601333
1481+941586175+944220819+944745178+944913132+946659865+951269825+957167549
1468+959682020+957630487+955626734+955694796+953634313+947617931+946422045
1454+953252574+958769498+959999450+958324893+955545680+952140701+949116884
1441+945724319+938644927+929495164+925065862+923690402+920967776+919076113
1427+918976654+918500220+918195853+917797297+917766117+923753123+935239154
1414+945570728+950957807+952076681+951964519+951742794+953496818+957779963
1400+960008328+960099559+961641096+965140770+970246073+974713413+976024852
1387+974064477+972868014+975307855+979354624+983330660+986883023+988869309
1373+989440294+990261369+991658482+993108427+993235746+990947908+989369417
1360+991486847+994351444+993662307+990595617+989719183+990082661+988849894
1346+986873712+984603774+981239935+976584505+971370433+968101505+967976641
1333+967868882+965704465+963423989+962072781+961961774+964074296+967942068
1319+970834092+970553255+969657261+971718827+976326620+981140188+984253287
1306+985657112+987618425+990848305+994151300+997150072+998890670+998994965
1292+999249747+1000667068+1003822030+1009034154+1015453207+1022185070
1281+1028226570+1033628878+1039097372+1044470160+1048803973+1050242010
1269+1049608448+1049460487+1049051465+1047971639+1047532808+1048400581
1258+1052405416+1058783689+1062358860+1061755468+1061259185+1063016023
1246+1065405412+1068191626+1071885021+1073741823+1071708406+1068812557
1234+1068001081+1068547959+1069306602+1069891878+1070350629+1070674195
1223+1070393646+1070455573+1070673906+1069095559+1066822373+1065911656
1211+1065949404+1065852904+1065293539+1064864236+1064747383+1064615589
1200+1065219848+1065471454+1063507903+1061881126+1061665464+1059753158
1188+1057027356+1056877591+1057106750+1053967740+1050301411+1049866189
1177+1050121259+1047791415+1044260633+1041488133+1039148400+1036801378
1165+1034815598+1033599070+1032773159+1031242376+1028896797+1027828158
1153+1028957642+1029694776+1028444686+1025529638+1021842306+1020037254
1142+1020498893+1019709791+1016492975+1013787022+1012596260+1010898751
1130+1009290884+1010051692+1011013944+1008862663+1005009615+1001407162
1119+998746535+998182118+998814019+998841302+1000131305+1004252921+1005447580
1105+1000261294+994568622+992267720+993334916+996689733+999149783+999436322
1092+999934265+1002220514+1004592798+1005757215+1007920693+1012186805
1080+1015526321+1016117732+1015507627+1015473777+1017065693+1020103079
1069+1023006723+1025106037+1027169118+1028658761+1028999937+1029333102
1057+1030523430+1032158290+1032420723+1031447717+1031845696+1033782036
1045+1035361826+1035738008+1035765146+1036622165+1036925160+1033414732
1034+1027829241+1024601598+1022933103+1022254648+1024615312+1028310078
1022+1031037757+1033047283+1031636241+1025486838+1019413509+1016136714
1011+1015915422+1018408601+1020739239+1021827510+1023329928+1025667495
999+1026347466+1024585575+1024120545+1026439634+1028862802+1030134545
988+1031711665+1033771282+1035832559+1039742771+1044817183+1047121910
976+1047132664+1047583404+1047621729+1047320033+1048416749+1050252187
964+1052954893+1056170915+1056656515+1054817036+1052617758+1049505092
953+1047363844+1047881563+1049567957+1052574813+1056801012+1058866259
941+1057637677+1056265971+1055649803+1053764925+1051956697+1053403972
930+1056985566+1057404188+1052782319+1049039845+1050232916+1053405416
918+1055026346+1053525805+1050972288+1050725806+1050982392+1050328693
907+1051126600+1053031616+1053204766+1051269725+1050403323+1052340963
895+1054026852+1052478675+1049782970+1049506824+1049090729+1044626133
883+1040496145+1042075718+1044960524+1041696289+1035380375+1032880340
872+1033821444+1033978355+1029653997+1021840213+1016577638+1016560388
860+1017085252+1015028811+1013864900+1014781464+1016303080+1017083809
849+1015037544+1012113258+1010866777+1011120981+1012251331+1012289945
837+1011257177+1010328560+1009758657+1011278469+1013917588+1014308205
826+1011559018+1007322931+1005229391+1005959741+1006373815+1005927551
814+1005837042+1004718385+1002328345+1002267862+1004379229+1004493700
802+1002684390+1001909219+1002585870+1001241734+997380891+996307777+997422104
789+994912757+989122214+983265990+978655238+976426079+975191290+971766318
775+967929293+968567835+972079274+971731385+966414678+961047375+958902879
762+957683175+953728936+948182420+943612519+941624717+942748138+943994691
748+942749942+939564595+936050197+933988415+933601623+932726704+928463046
735+920812597+914052657+910940063+909107512+906308018+903218593+899859589
721+895292792+890692721+888322819+887679874+887439961+888031516+888777961
708+888108023+886815421+887294454+890901021+895468757+895561287+890666088
694+887260098+888079946+889905135+890882400+892045229+892155586+889606038
681+888841982+892379043+894191529+891616503+889352627+887668037+885506436
667+889867099+898055837+901999394+904305998+906338909+905304626+899971968
654+894753420+894492215+895113939+891969155+889216503+888785612+886153061
640+882596873+885184314+889249199+882485145+873966922+881687021+892570743
627+882455047+866879447+864929393+868480962+870122824+867960067+861732714
613+860582300+866298141+868869703+864329466+858023152+855546646+856926797
600+858738128
##END=
