##TITLE=Sample description
##JCAMP-DX=4.24
##DATA TYPE=INFRARED SPECTRUM
##DATE=12/9/2023
##SAMPLING PROCEDURE=Instrument type and / or accessory
##ORIGIN=Default
##XUNITS=1/CM
##YUNITS=ABSORBANCE
##RESOLUTION=4
##FIRSTX=4397.6552
##LASTX=599.8556
##DELTAX=-1.9287962
##MAXY=1.9320669
##MINY=0.30268443
##XFACTOR=1
##YFACTOR=1.7993775e-009
##NPOINTS=1970
##FIRSTY=0.31613696
##XYDATA=(X++(Y..Y))
4398+175692399+175656061+175739983+175175382+173797210+173482786+174960350
4384+176461598+176772676+175924871+175164914+175943024+177464379+177890269
4371+176746325+175625635+176312336+177973612+178347081+177105468+175964191
4357+175836460+176390810+177394568+177751624+176780659+176360782+177237786
4344+177308409+175576478+173728608+173702505+174981865+175510277+174954106
4330+174575651+175140965+176117577+176324294+175777067+175813852+176672754
4317+177182086+177042298+176643836+175727429+174751877+175100966+176334000
4303+176907959+177074695+177629856+178117342+177907246+177072608+175930900
4290+175296835+176239610+178198714+179328778+179169662+178983614+179126682
4276+178907443+178659120+178482033+177717223+176896481+176851680+177024162
4263+176866371+177089949+177938234+178495697+178184536+177427511+177032957
4249+177399470+178168967+178597375+178727126+179047662+179283728+179024640
4236+178724526+179057152+179212906+178439467+177869731+178012650+178309352
4222+178485660+178431534+178534503+178783406+178518405+178215591+178997427
4209+180478950+181168350+180636824+179611949+178894574+178965892+179542767
4195+180026808+180347973+180383383+179901909+179334393+179083371+179026462
4182+179136470+179325366+179200518+178755018+178677472+179142151+179557640
4168+180056919+180743901+180804172+180227828+179666787+179206397+179226256
4155+179926704+180141371+179343701+178850617+179485742+180394431+180633164
4141+180311999+180036646+179890332+179393240+179102898+179876784+180499471
4128+180034543+179356073+178854045+178789252+179413827+179840429+179575561
4114+179371377+179642887+179914083+179990221+179982669+179678116+179494735
4101+179990486+180602241+180831252+180705791+180346217+180171383+180107136
4087+179763214+179499323+179467258+179275463+179181288+179452699+179719506
4074+179787197+179684079+179604197+179714189+179490810+178584489+178103098
4060+179189023+180813514+181330498+180805067+180060860+179748424+180057631
4047+180400840+180571650+180863582+181095939+180953799+180397959+179858698
4033+179779512+180047130+180520406+180927166+180852038+180372253+179895516
4020+179667566+179558915+179526751+179984573+180911100+181359598+181083815
4006+180881652+180829745+180826018+181096750+181162421+180370117+179114906
3993+178760119+179708575+180852021+181390504+181432987+181448539+181543956
3979+181255502+180486601+179761376+179594624+180004316+180300107+180055130
3966+179819163+180021028+180536687+180917841+180953318+181145577+181373941
3952+180800628+179865488+179904477+180247488+179792530+179841903+180671340
3939+180575377+179346086+178144554+178195484+179771695+181168334+180726958
3925+179561648+179294941+178815040+177857806+178540035+180924632+182243162
3912+181607772+180268655+178090179+175107144+173841498+175189377+177639247
3898+180160816+180972796+179227730+177781138+179178986+179875409+178751158
3885+178537352+178033618+177724958+179104488+178377672+175652483+173748483
3871+173017477+174731207+176620831+176805967+178236659+180461509+180097497
3858+175940871+169193461+168216186+176457060+181746864+182117998+180211066
3844+177669159+175109678+173181993+174208028+177300443+178476982+178551728
3831+179325648+179761094+179505733+177755764+173843519+172923816+175713433
3817+177718051+180638232+182953199+181786648+178253536+176103846+176352517
3804+175481557+176208472+179885115+181441483+182219444+183548574+183621350
3790+182859737+181965175+181212837+181631026+182066522+181587367+182129344
3777+183371189+183300566+181556246+179803925+180070202+181235992+182141186
3763+181682568+179163782+177567812+177973297+176605411+172216991+170013788
3750+173938174+175872666+174465725+177525528+181817868+180782293+176380955
3736+173681984+176064792+181078978+183847611+183321435+182540294+183691608
3723+185764315+188423387+191269781+192318622+190551975+188413714+190913006
3709+197142753+202366191+205396298+208640210+215379985+223069905+227667543
3696+228907086+227165945+223444318+222083090+225569330+228371783+227407179
3682+224041399+219534872+213990319+210311357+211762620+212427392+211980368
3669+215559705+219489126+220692662+221064707+221288550+220196149+219233201
3655+220001506+218572355+214087077+214124310+221370436+227877457+230872500
3642+232036534+232963740+233662731+233717884+232878476+230396624+228342418
3628+232125409+237350619+238253959+235861810+233690523+235176848+237843737
3615+238699293+239272408+239855129+240342069+242260197+243996021+243717041
3601+243263574+244097135+244858053+245433453+246643548+246829264+245384842
3588+245663358+248803523+251288174+252043825+252307932+252613793+252861138
3574+253270979+253082629+251173958+249519241+251340031+254513155+256237998
3561+256994560+257355773+257615690+257921750+257923654+257343716+256326890
3547+256214148+258068626+260271763+260970571+260460510+260224577+260762115
3534+261179011+260943641+260341078+259752212+259150808+258861112+259328276
3520+259839679+259965290+260035945+259817667+258996114+258089280+257866166
3507+257896276+257623159+257709351+258027882+257828419+257762500+258286491
3493+258461126+257787593+256906679+256450480+256304298+256096670+255955573
3480+256055595+256119245+255856479+255306320+254866982+254675071+254443228
3466+254296616+254530513+254748924+254335754+253662551+253470028+253435793
3453+253021414+252359259+251947894+252286980+252790283+252607134+252200722
3439+252091591+252098796+252209848+252503370+252900706+253222235+252975354
3426+252016165+251090135+251035081+251808189+252282955+251852428+251351178
3412+251404758+251553987+251333224+251178364+251681220+252371946+252503254
3399+252336403+252334316+252324444+252288321+252425542+252639183+252990426
3385+253611903+254204313+254511333+254580996+254465174+254447419+254740195
3372+254912231+254685522+254502887+254836059+255612281+256415466+256936575
3358+257174413+257285631+257247272+257168583+257298136+257376096+257381462
3345+257824428+258414089+258549388+258563748+259004760+259643909+259789428
3331+259649441+260099479+260795770+260689140+259711269+258693880+258535045
3318+259314844+260096498+260070959+259414153+258744032+258617990+258991957
3304+259077751+258743104+258753075+259647967+261108604+262152377+262541250
3291+263076652+264163306+265313593+266121664+266944841+268125123+269418494
3277+270444115+270907287+270854453+270846039+271122236+271269975+271154186
3264+271020211+271117880+271760955+272616644+272718405+271868529+270928686
3250+270686409+270826031+270433979+269538954+269105793+269422784+269682336
3237+269647720+269801636+269664001+269010392+268826233+268951082+268393569
3223+267737012+267959298+268733450+269396665+269356202+268333165+267163914
3210+266569251+266280764+265984659+265836871+265809311+265435245+264763566
3196+264160473+263671480+263181211+262624361+262443233+262655333+262314111
3183+261198787+260348564+260423162+260659394+260324631+259616316+258752098
3169+258143324+258158760+258282896+258024653+257700689+257602423+257716456
3156+258074440+258318291+258002906+257385520+256797929+256193462+255847287
3142+256114673+256605936+256701883+256084910+254889556+253871190+253566654
3129+253685441+253511451+252722542+251807477+251298459+250997716+250249518
3115+249122087+248381227+248051234+247519046+246512820+245277119+244234340
3102+243572864+243098925+242339879+241125644+239901653+239087421+238504501
3088+237948876+237690467+237607737+237195726+236491767+235829231+235420947
3075+235293829+235349297+235510418+235684805+235779411+235765896+235676077
3061+235395060+235014005+235017781+235306914+235495727+235672483+235776661
3047+235692573+235541258+235363376+235183258+234996498+234769674+234466943
3034+234033898+233484617+232864696+232472080+232453381+232320168+232040377
3020+232143429+232456015+232514215+232221240+231504014+230642363+230220133
3007+230204101+230099227+229833778+229768489+229909453+229830946+229645545
2993+229954006+230635407+231142851+231685540+232548301+233139138+233034264
2980+232773287+232829484+233065716+233292938+233226356+232676612+232117426
2966+231950873+231882105+231635985+231426899+231390047+231297860+231153103
2953+231154395+231128922+230849644+230607366+230704953+230822680+230649667
2939+230342581+230164732+230272272+230422495+230273713+230060404+230105587
2926+230274326+230206734+229600561+228593142+227767134+227464072+227444230
2912+227359115+227271879+227441911+227797741+228090650+228230472+227919940
2899+227113392+226678393+226984055+227487706+227894235+228094476+228181960
2885+228294353+228272623+228273004+228549715+228887939+228993128+228952616
2872+228924874+228821474+228804381+229036191+229215464+229263993+229387964
2858+229540389+229506866+229051660+228250231+227589815+227181299+226795821
2845+226616002+226807995+227087240+227297286+227547332+227649109+227464817
2831+227443302+227792640+228113507+228199119+228130831+227929265+227753668
2818+227816341+228009527+228135469+228194431+228241453+228256276+228277824
2804+228461801+228828430+229167019+229296091+229297433+229303561+229343990
2791+229516522+229773623+229897213+229880120+229819154+229757822+229826524
2777+230017490+230008381+229721882+229498767+229474404+229502461+229534211
2764+229582557+229599964+229573150+229584727+229686686+229750535+229728043
2750+229833546+230074913+230198933+230173228+230083343+229960830+229939563
2737+230073058+230238203+230285622+230169866+230145768+230402405+230752272
2723+231017903+231178974+231235088+231110190+230880036+230874653+231159910
2710+231463983+231621393+231770423+232049238+232303457+232401921+232349550
2696+232208123+232165573+232228561+232259417+232414227+232829981+233171352
2683+233042413+232591844+232292393+232265230+232341484+232426020+232403263
2669+232241811+232091423+232029992+231980669+231849195+231684381+231579010
2656+231539558+231552907+231511699+231381534+231367605+231436323+231329428
2642+231122164+230993490+230922536+230870132+230789952+230683488+230593769
2629+230464796+230317571+230211339+230045978+229821969+229704938+229714428
2615+229677626+229531048+229467249+229505790+229376684+229085514+228938190
2602+228992930+228944484+228661115+228426970+228402755+228449545+228441346
2588+228302535+228103536+228017427+227936287+227687368+227428512+227279598
2575+227155561+227020311+226845658+226664778+226546455+226390784+226127439
2561+225837875+225587052+225375995+225173865+225033431+225026226+225026558
2548+224921617+224705939+224352577+224037987+223939274+223922546+223856842
2534+223771380+223810186+223951713+223837497+223399384+223079544+223156047
2521+223353357+223280067+222991100+222795695+222822609+222961420+223038569
2507+223012830+222915741+222790180+222757568+222803844+222783008+222776118
2494+222851842+222882135+222949213+223141936+223265641+223313176+223494702
2480+223690124+223631741+223483390+223530212+223673578+223722073+223667300
2467+223616867+223729874+223990453+224135955+224006452+223825340+223899557
2453+224095062+224157867+224197137+224330267+224558367+224870025+225140674
2440+225358389+225622545+225838240+225862901+225773331+225730898+225790457
2426+225923537+226099133+226352110+226648481+226846751+226937448+227040103
2413+227237512+227467815+227647121+227818875+227981834+228119039+228260880
2399+228389572+228544846+228763753+229006677+229238304+229402671+229454777
2386+229235025+228360388+226570272+223991579+220950740+217671301+214280296
2372+210860456+207242975+203448324+200098229+197587492+195904022+195433993
2359+196623384+199319191+203336526+208746691+214057083+216345434+214526267
2345+210690773+208263892+207877918+208474253+209530117+210585816+211403162
2332+212133770+213365065+215279483+217142326+218453949+219673782+221452056
2318+223669437+225657178+227165051+228552547+230009905+231355895+232557030
2305+233711723+234763479+235663440+236485490+237224562+237851008+238396513
2291+238857300+239335826+239979083+240633752+241036521+241226676+241311907
2278+241281945+241258592+241343293+241468804+241607035+241797902+241999369
2264+242121717+242281397+242595904+242899860+243105733+243311225+243479881
2251+243551912+243615231+243719128+243856779+243965562+243976659+244025171
2237+244226423+244494107+244723532+244890317+244991332+245006089+245025385
2224+245116297+245179417+245229171+245377290+245578608+245753989+245910406
2210+246009351+246044066+246179299+246489301+246766509+246834233+246775436
2197+246777738+246955305+247229250+247419919+247478931+247510400+247636888
2183+247854189+248078463+248285711+248464686+248546273+248524328+248572674
2170+248811589+249099910+249271498+249356001+249408322+249404562+249419916
2156+249552168+249740087+249898955+250057807+250229279+250317673+250333491
2143+250461304+250735514+250968864+251074384+251115277+251203109+251430645
2129+251695663+251852146+251876294+251837223+251858456+251897793+251923680
2116+252089571+252374530+252582771+252646818+252612020+252544445+252558175
2102+252692912+252838480+252896002+252880334+252915563+253091093+253311690
2089+253394188+253346090+253364094+253488810+253621658+253728719+253780311
2075+253787085+253880399+254104192+254227451+254090859+253966624+254061693
2062+254129748+254100499+254207526+254420521+254562677+254613723+254603918
2048+254561137+254568739+254627139+254638037+254647064+254774678+255044085
2035+255309004+255417621+255489006+255629257+255761841+255826021+255819181
2021+255751440+255639377+255678945+256002429+256318161+256444169+256592752
2008+256857107+257070715+257149089+257211695+257357247+257516712+257527825
1994+257317878+257227331+257553961+257979006+258323889+258710906+259101783
1981+259399098+259537130+259644837+259903461+260184114+260216544+260028873
1967+260072979+260570221+261134856+261503621+261752010+261945610+262163888
1954+262443713+262689767+262784107+262727529+262562500+262359757+262637445
1940+263565049+264393128+264796012+265026828+265258589+265532269+265852870
1927+266011175+265771018+265608721+265805948+265998455+266577897+267668277
1913+268364502+268400260+268428466+268992190+269838190+270468942+270851786
1900+271126576+271245313+271362394+271696958+271837226+271849648+272534444
1886+273528894+274220746+274837934+275473125+276045362+276515358+276804276
1873+276482498+275192853+274342796+275751625+278127277+279661071+280375779
1859+280879050+281517934+282253909+282904652+283381191+283469502+282834824
1846+281843223+282398268+284770857+286582372+287422094+288276359+288933296
1832+288394913+287480858+287992310+289314865+290922495+292963236+294517964
1819+295394456+296129768+296634661+296609817+296745465+297867447+299314817
1805+300083287+299987324+299742496+300452367+301743354+301983379+301178868
1792+302032371+305219043+307656954+308532452+308997363+309465422+310315479
1778+311557904+311661453+310008840+308946549+310949064+314323622+317070160
1765+318271245+318311194+319048063+320427891+321675020+322848710+322787296
1751+321442150+321318195+323282947+325455261+326693082+327292249+328367260
1738+329296188+328457029+328362887+331725255+335412382+338309673+340228845
1724+341162808+341322737+339641437+336768294+337170135+341649715+346050556
1711+348645216+349090219+348285344+348221545+348112166+346837842+347267177
1697+350384087+355552306+360880121+363342843+363837634+362948058+360410075
1684+361052173+366899391+371647550+373664341+374510622+375831454+376651765
1670+377556347+381710870+386305261+388098624+389619333+393068356+395751361
1657+394859168+390841054+391473049+398513236+401554489+403466903+409769790
1643+416279113+419516964+419676395+418024676+419942986+427574523+433681740
1630+436633953+438865958+441321592+444297058+449085497+453495182+456020776
1616+460745880+468391726+474423749+478643032+483064311+488348369+493729019
1603+499084957+504762839+510574514+516212149+522046647+528505851+535263348
1589+542124858+549104989+556224808+563823585+571574206+577616432+581895605
1576+588677780+597743801+604520013+611073757+620085454+628969552+636268479
1562+640463315+641242750+649006555+666180023+680982988+692547043+702029183
1549+710744674+717942172+722938106+726136074+730517537+743408983+758183527
1535+767795517+776368438+786799149+795548693+801768270+806899886+810809382
1522+815697063+824489073+834565213+843689468+851654609+857658806+860697111
1508+861866363+869550403+884727418+895532708+900537785+902712252+906845939
1495+913872975+919119270+921853751+924908949+930167699+936052646+940111338
1481+942444806+945030886+948252704+950329915+950525023+952057458+956025784
1468+959198246+960913400+962333342+962462795+959354597+954370388+955204877
1454+960632234+962283920+958246229+950815994+945306487+944035011+944903751
1441+943800618+937907985+930665040+926768727+922544079+916593544+913803148
1427+914430670+915481532+917302621+918875270+919138747+922716197+930615816
1414+937461988+941468409+943404044+943860906+945703061+951243772+956981975
1400+958860502+958247753+958441403+962726074+972532840+981902221+984435633
1387+981344791+978998935+978763813+979309715+981385204+984606757+987058349
1373+988846378+992693533+997707156+999088343+996694852+994417366+993523384
1360+993033861+992498360+992014799+992270392+993585527+994254655+992824377
1346+989979987+986407175+981243495+974897313+970411439+969120354+970095757
1333+972059548+972692039+971406055+970380434+970662793+972002374+973583172
1319+974766866+977865525+983158857+986965400+988369244+988960991+990430887
1306+992533075+992822854+993046912+996715522+1001553715+1003349760+1002948615
1292+1004046382+1008019478+1013027802+1016429622+1019389420+1025322995
1281+1032775225+1037101303+1037845029+1038051730+1039364148+1040912351
1269+1041479851+1042693756+1046639822+1051496896+1054734018+1056495878
1258+1057477575+1057486320+1057069539+1057213236+1057786169+1059433747
1246+1062002934+1063569620+1064062258+1064563971+1066409307+1070471444
1234+1073741823+1072114252+1067682372+1065633251+1066766197+1068551311
1223+1069367515+1069819607+1069651994+1067735638+1065526124+1065121269
1211+1066571289+1067728151+1067398954+1066839404+1066276475+1064974988
1200+1063220216+1062154713+1061960931+1061292068+1059446600+1057408144
1188+1056142101+1055859743+1056554311+1056500582+1055307480+1056072406
1177+1057395557+1053888929+1046806905+1042511700+1043062438+1045539206
1165+1045586442+1041125611+1035790939+1033204660+1033276608+1036619597
1153+1041191994+1041818125+1039505924+1037707692+1035860700+1033753676
1142+1032657366+1033299928+1033959251+1032397466+1030056446+1028404097
1130+1026224926+1022915526+1021547854+1025230245+1030884442+1033525576
1119+1031447371+1025909509+1020486459+1017424767+1016181051+1013622464
1107+1008524107+1004919892+1005177142+1007158755+1008536694+1011125491
1096+1015945067+1018398581+1017818493+1017591056+1017513543+1017396081
1084+1018902149+1023065582+1028847246+1033107736+1033896445+1032417408
1072+1031775906+1033859014+1035592983+1036014268+1038727483+1042409807
1061+1044670267+1044551679+1041712390+1040064546+1040824967+1041507478
1049+1041747966+1042332824+1042441276+1043620001+1048711005+1051887441
1038+1047685649+1040607269+1036064287+1037438981+1042624259+1043263839
1026+1037249041+1032271657+1033836886+1039003349+1040894729+1038671502
1015+1035711770+1031750333+1028425231+1028175004+1029456417+1031536941
1003+1033471582+1033035192+1031695942+1032751309+1035328578+1036604095
991+1036852600+1038894301+1043834254+1047545861+1046746021+1045034312
980+1046280281+1049477256+1052501383+1054063962+1053000446+1053393443
968+1058193674+1060476924+1058497299+1060477057+1067312895+1071242199
957+1067736168+1060171047+1053220861+1047181153+1044886707+1050816969
945+1059888887+1064395364+1065391040+1066808266+1067696086+1065425887
934+1062840867+1062301855+1062353133+1063688208+1065770654+1066608853
922+1067480574+1067996001+1065249397+1061443052+1060200859+1059446666
910+1057468101+1057676789+1061944501+1067091486+1070828268+1073693460
899+1073225601+1067679855+1061937942+1058870355+1056452418+1055992044
887+1058845975+1061200709+1061244566+1061405820+1060917555+1058426478
876+1059401152+1065602511+1067086782+1058450924+1048743335+1046358391
864+1048204587+1047639605+1045387161+1045509592+1046143143+1043040775
853+1037884382+1034658324+1034390010+1036224481+1038268170+1037325229
841+1033034595+1030448316+1033009619+1037663636+1037293164+1030586051
829+1025267610+1025903612+1029367178+1031603788+1032043623+1031487850
818+1029538700+1025134380+1020524221+1020160043+1022511465+1025499287
806+1029860411+1030129917+1025065480+1022949379+1024141421+1022825690
795+1016129177+1002332951+991235364+994724237+1005821890+1011921422+1011629391
781+1008221873+1004340202+1001125009+997740215+992949060+989849872+992099864
768+996039438+994784657+988333204+983984203+983793667+982376640+977529702
754+972334155+970422304+972825799+974614358+969410530+960265803+953786723
741+951246488+951057940+949207503+945472974+945113831+947138374+945827678
727+941513856+938842777+937883804+935215044+932602132+931236581+927562803
714+924185628+926346978+930931035+932457176+932940472+936128701+938341660
700+936430273+935523240+937147233+937614695+937288148+934921489+930509285
687+929112332+928994472+927104219+926033018+926349562+925642737+924113416
673+926441053+931950892+934694581+936299362+939484212+938199951+934096407
660+934695376+937948332+938858346+938189615+936575361+935881058+937076279
646+937099069+932259883+930195060+939441150+947356205+938295351+920957649
633+910132219+898545307+879345442+879237720+906399545+917713240+896629084
619+882575409+890518554+911217664+928906359+930239050+923485297+922092980
606+933998224+948688763+929326386+895257173
##END=
