##TITLE=Sample description
##JCAMP-DX=4.24
##DATA TYPE=INFRARED SPECTRUM
##DATE=12/9/2023
##SAMPLING PROCEDURE=Instrument type and / or accessory
##ORIGIN=Default
##XUNITS=1/CM
##YUNITS=ABSORBANCE
##RESOLUTION=4
##FIRSTX=4397.6552
##LASTX=599.8556
##DELTAX=-1.9287962
##MAXY=1.9749324
##MINY=0.34464994
##XFACTOR=1
##YFACTOR=1.8392992e-009
##NPOINTS=1970
##FIRSTY=0.3488943
##XYDATA=(X++(Y..Y))
4398+189688717+189706541+189491769+188302252+187549067+188515500+190438013
4384+191512115+191058202+190240513+190620540+191742037+192207049+192170139
4371+192075399+191830911+191482285+191106844+190896690+190875107+191190225
4357+191843647+191661913+190514426+189929511+190457554+191641594+192471403
4344+192560066+192949880+193564447+193241698+191951786+190688966+190033681
4330+189672303+189489905+190191240+192210938+193796264+193224133+191925488
4317+191340395+191323528+191565553+191602739+191902885+193048929+193810442
4303+193250269+192443874+192559726+193173450+193320720+193426089+193963286
4290+193853737+192783523+191818888+191777732+192534093+192629853+191244278
4276+189780961+189910862+191488912+192642264+192209107+191383285+191570722
4263+192159072+192163917+192086563+192245370+192342264+192512948+192458197
4249+192257409+192665013+193016977+192503696+191549237+190862355+190931089
4236+191458434+192178597+192894271+193035529+193209713+193852570+193768606
4222+192556631+191400217+191129479+191998969+193826953+194649924+193626845
4209+193306380+194513867+195001369+193857253+192609680+192411435+192573353
4195+192568265+192764160+192873126+192624441+192853569+193756145+194046229
4182+193445208+193198451+193512808+193809421+194086186+193618419+192110123
4168+191566590+192546666+193002783+192740066+193168686+193738922+193481114
4155+193366040+193835136+193934104+193800947+194036264+194240456+194287072
4141+194417442+194253402+193838635+193751349+193636923+193164879+192997533
4128+193154784+193023231+192954401+193348055+193635854+193390085+192814114
4114+192715518+193719300+194642584+194239273+193710631+194101741+194275697
4101+193731484+193462999+193641687+193702481+193966705+194688763+194917080
4087+194251911+193739829+194047315+194483421+194284447+193648379+193137949
4074+192921071+192857814+193251727+194132122+194427488+193906769+193686197
4060+194121169+194455908+194422238+194324161+194344382+194680386+194901120
4047+194663340+194602271+194896713+194950248+194492592+194038565+193804431
4033+193688319+194246840+195393386+196165982+196003141+195198253+194747110
4020+195124626+195590335+195353802+194873980+194835903+194867078+194487407
4006+193983523+194006856+194696605+195376503+195449660+194983319+194403912
3993+193994477+193645495+193538684+194213235+195447829+196096503+195343643
3979+194066499+193594066+193741465+193947666+194320531+194673094+194700575
3966+194858279+195204361+194966970+194281320+193950210+194157609+194484960
3952+194662028+194994515+195421029+195325998+194808163+194635147+194820056
3939+194805198+194419516+193742648+193475783+194198733+194996103+194963518
3925+194622687+194479516+193968244+193452014+194145344+195537254+195808299
3912+194660699+193404701+192241141+190761815+190396403+192115065+194600229
3898+196147073+195431528+192941957+191678424+192768211+192997225+192714789
3885+193722783+193540823+192762459+193455044+193265710+192222135+191777992
3871+191643393+192763739+193548049+192682464+192804117+194029880+193811009
3858+191223101+187381122+188065751+193859311+196489963+195768374+193721244
3844+191940136+191002933+190217489+190622485+192536863+193376313+193051149
3831+193329243+194296551+194909919+193636632+190722409+190423317+192295794
3817+193077431+194650766+195852582+194711722+192582605+191977970+192597123
3804+191974146+192476798+194435411+194210691+193730658+194429205+194667018
3790+194451452+194234866+194148438+194470588+194318052+193804577+194440175
3777+195300040+194880899+193561644+193016701+194084177+195175876+195508347
3763+194659143+192779991+192163090+192778711+192000282+189879071+189602614
3750+192303263+193123723+192138105+194170912+196648105+195608612+192839812
3736+191495102+192801071+195465231+196947829+196289530+195586025+196365150
3723+197813690+199681193+201280421+201624850+200593621+199625406+201903900
3709+206023372+208619188+210047230+212186491+216510739+221621289+225364721
3696+226995075+226512207+224761318+224336100+226440962+227220168+225006260
3682+221317173+217476831+213972622+212704844+214303457+214097273+212551028
3669+213314372+214557651+214647562+214374459+214123927+213735733+213522890
3655+213411526+211996089+210115915+211231773+214734556+216940331+217299651
3642+216756102+216349858+216327660+216461643+216321406+215257819+214568540
3628+216710425+218631285+218126932+216584576+215968421+217424755+218841002
3615+218604582+217870874+217503858+217671252+218572824+219184523+218844177
3601+218450183+218517361+218637426+219068315+219966419+220221893+219452895
3588+219404529+220602439+221375051+221557595+221349029+220566128+219874548
3574+219898075+220049898+219755876+219887154+221125572+222056212+222196758
3561+222091989+221572226+220947938+220937130+221232042+221365993+221699744
3547+222406604+223008322+223327101+223475505+223390423+223067722+222604541
3534+222391130+222614700+222795673+222733275+222791265+223089273+223341474
3520+223388155+223371854+223197136+222600296+221902866+221869974+222528565
3507+222990385+223073556+223480934+224134274+224389165+224374339+224392454
3493+224176143+223697180+223399691+223342770+223116413+222762699+222997207
3480+223776526+224103310+223773010+223375662+223249602+223408733+223707517
3466+224010758+224435279+224960761+225042409+224661442+224581399+224905104
3453+225060653+224865617+224610127+224642160+225129290+225952358+226725358
3439+227139315+227343927+227671894+228035021+228082659+227926801+227976334
3426+228224193+228498576+228830107+229128681+229370658+229579192+229710923
3412+230082492+230669627+230938566+230951220+231222266+231859906+232649012
3399+233500646+234103628+234224989+234425843+235073593+235712206+235954118
3385+236088652+236461501+236858315+237158769+237576646+238113292+238659077
3372+239294902+239858381+239921703+239826266+240358716+241406845+242298177
3358+242877761+243394931+243852037+244316482+244946587+245231972+245020068
3345+245272626+246122996+246633410+246721409+246988938+247475857+247795851
3331+247885357+248189684+248901258+249413487+249294718+248958763+248987799
3318+249550791+250289863+250840411+250917392+250257813+249591413+249784732
3304+250346071+250451424+250241108+250474934+251366299+252611003+254034315
3291+255465274+256898405+258369888+259736359+261166865+262496911+263033460
3277+263151354+263542464+264034082+264928006+266304248+267264929+267789455
3264+268439604+269003811+268990557+268306285+267500910+267174078+267287078
3250+267554462+267785307+268056433+268394122+268369623+268129477+268133641
3237+268140155+268072669+268042774+267827953+267392285+267160273+267431901
3223+267883676+268075294+267649784+266792836+266427748+266750383+266997075
3210+266695212+266265393+266077340+265623588+264732354+264067703+263956728
3196+263992440+263681292+263063290+262681967+262638121+262316101+261558137
3183+260785234+260308279+260168560+260106081+259773383+258883963+257673642
3169+256845939+256626809+256802888+257157411+257307873+256974721+256602083
3156+256551643+256348342+255887802+255747386+256044729+256378075+256546539
3142+256507019+256121823+255552787+255066014+254478960+253629205+252836162
3129+252446218+252278613+251982129+251742421+251757700+251519078+250405877
3115+248741917+247645665+247287755+246728765+245694570+244475175+243117308
3102+241975914+241519278+241430258+241142605+240433509+239197473+237998574
3088+237680783+237928383+237714502+236859352+236136078+235854193+235606594
3075+235365881+235334722+235294279+234969310+234496780+234245259+234323779
3061+234428889+234417125+234467517+234560798+234665681+234798627+234798433
3047+234712929+234724563+234688738+234388300+234006993+233822634+233695537
3034+233390255+233038583+232812096+232710292+232705221+232550271+232171799
3020+231786781+231351566+230989832+231035169+231314834+231277891+230742201
3007+230108790+229695157+229411846+229163485+228970701+228633823+228187622
2993+228375724+229384722+230399538+231057075+231698248+232254645+232265890
2980+231810243+231488466+231666700+232064113+232221397+232011210+231537707
2966+231135142+230918442+230574450+230138182+229909881+229867801+229843772
2953+229782476+229728114+229754104+229966089+230348530+230516038+230247537
2939+229897890+229693180+229575838+229567590+229626327+229691042+229728017
2926+229599770+229211787+228653850+228028135+227402113+227050101+227138748
2912+227246433+227000260+226662831+226550430+226757554+227160249+227268826
2899+227087222+227136090+227276733+227275761+227394027+227677711+228004365
2885+228308060+228588243+228966213+229352656+229463259+229268012+229178182
2872+229490658+229712689+229392079+229093731+229255260+229380169+229318176
2858+229427191+229524604+229264690+228662454+227882599+227291656+227240438
2845+227590198+228060882+228526639+228771517+228794493+228808865+228846861
2831+228919888+229049237+229219305+229391900+229489654+229525689+229475119
2818+229277490+229110291+229143750+229268562+229400618+229569243+229835217
2804+230324971+230955660+231423638+231599490+231634278+231640937+231593284
2791+231613311+231775293+231941342+232059187+232107667+232035482+231915450
2777+231868736+231928461+232059285+232191518+232228850+232131372+232017351
2764+232120613+232472399+232733171+232679425+232636503+232877735+233137827
2750+233295499+233455796+233435948+233208618+233052226+233038729+233046814
2737+233018281+233009742+233141392+233452183+233822893+234130963+234214635
2723+233986755+233847636+234136180+234494187+234508559+234380976+234528765
2710+234869451+235054895+235119772+235271449+235453005+235574820+235695144
2696+235778136+235848652+236076824+236370586+236509851+236546081+236660086
2683+236902403+237159417+237272611+237258968+237220616+237124386+237012455
2669+237032887+237184450+237353562+237430446+237358812+237181032+237030878
2656+237037618+237137640+237136749+237046530+237031834+237128177+237193719
2642+237059849+236905871+236988571+237057629+236861750+236603813+236476894
2629+236399135+236262300+236107075+236055533+236146286+236270451+236339281
2615+236286168+236078574+235871919+235776791+235705741+235549170+235338692
2602+235212729+235174911+235165595+235144887+234991638+234765848+234705670
2588+234780350+234783623+234700031+234593901+234503277+234510034+234576126
2575+234589672+234495127+234219432+233949375+234032253+234278103+234174436
2561+233746852+233383450+233094986+232746733+232484259+232435358+232532042
2548+232605475+232473630+232149779+231864718+231755947+231734850+231655277
2534+231481872+231348796+231314802+231211815+230975963+230757286+230635163
2521+230558198+230516443+230527056+230509719+230423356+230379657+230402114
2507+230377647+230279197+230147483+230047898+230010988+229980575+229958182
2494+229983621+230101190+230296810+230430081+230513851+230677923+230860208
2480+230980840+231084426+231109427+230961979+230766991+230681569+230717912
2467+230836956+231015984+231232198+231366311+231374477+231398426+231447067
2453+231473527+231599344+231844837+232019295+232054975+232110973+232184632
2440+232208580+232391237+232739004+232995321+233133954+233183957+233137276
2426+233156153+233356536+233559399+233622720+233707965+233874468+233970017
2413+233969888+234015240+234212740+234433717+234537433+234660544+234910169
2399+235191957+235379864+235411006+235431973+235605946+235819405+235929651
2386+235847582+235423499+234553426+233146042+231169995+228775130+226146795
2372+223447118+220837821+218356578+215953190+213826568+212556278+212683327
2359+214092201+216241654+219068574+222887285+226771748+228577938+227375151
2345+224519503+222533588+222164935+222675186+223546410+224494323+225323889
2332+226123300+227336247+228833688+229994995+230836179+231868121+233365010
2318+235030898+236324763+237339482+238559331+239843474+240786396+241477118
2305+242159673+242848644+243500964+244101920+244642099+245169347+245665486
2291+246050601+246334236+246584201+246904730+247253016+247445427+247485076
2278+247503694+247651725+247940108+248144493+248259017+248455771+248660594
2264+248761004+248852195+249053422+249318099+249558747+249770019+249936085
2251+250059471+250154713+250207259+250288194+250405164+250503452+250671332
2237+250866369+250936884+250950463+251055766+251258840+251451608+251581378
2224+251642885+251710323+251893029+252059823+252086056+252045030+252047784
2210+252215389+252504517+252742492+252858457+252896048+252944706+253032705
2197+253130167+253222897+253290285+253352149+253492808+253683243+253835957
2183+253977442+254105301+254233467+254422654+254541844+254505549+254523211
2170+254744918+255054056+255263643+255334823+255383740+255448861+255485723
2156+255552868+255725269+255946668+256077670+256114386+256223352+256406414
2143+256516531+256604319+256736520+256794349+256815558+256981721+257239350
2129+257424778+257506215+257532772+257593906+257701689+257758918+257807738
2116+257976736+258204374+258333447+258360652+258407641+258539178+258690515
2102+258764109+258798687+258851249+258855916+258825519+258883413+259078481
2089+259301614+259436327+259512821+259585120+259688544+259792649+259802063
2075+259758395+259792535+259944261+260095646+260123759+260100767+260133626
2062+260220297+260349014+260488474+260591736+260697235+260830586+260933767
2048+260988210+260985050+260920708+260930543+261088215+261243424+261336041
2035+261426860+261500940+261585407+261720022+261820157+261828858+261852839
2021+261970538+262107681+262268950+262544467+262820730+262929096+262975194
2008+263116971+263337722+263611505+263876021+264050317+264188270+264317474
1994+264423507+264634973+264993467+265327072+265550675+265704604+265854466
1981+266024129+266208342+266420262+266639976+266851766+266989978+267036352
1967+267168002+267469282+267829169+268135731+268341202+268502472+268686555
1954+268867446+269073647+269332588+269493323+269496320+269555899+269873204
1940+270316764+270660820+270912681+271154982+271432135+271741841+272058142
1927+272283429+272434280+272722922+272997435+273137818+273489490+274034627
1913+274440028+274661362+274888950+275271927+275748330+276197706+276612764
1900+277031549+277326283+277575455+278038701+278412733+278577129+278979257
1886+279580878+280152004+280692442+281177012+281649720+282086912+282364309
1873+282367485+282199556+282483013+283543019+284669133+285383171+285819131
1859+286242096+286841416+287537371+288136334+288614552+288989556+289091441
1846+289068401+289867764+291324421+292234160+292750163+293430174+294060183
1832+294179988+294184881+294840426+295894372+297140357+298438386+299353990
1819+300064722+300878668+301603075+302068720+302628504+303529460+304473809
1805+305221808+305716164+306150407+306939659+307875582+308295080+308478401
1792+309694443+311752008+313259219+314156060+314804896+315341154+316158859
1778+317209434+317702364+317424903+317563083+319273221+321619461+323440752
1765+324251231+324608541+325481336+326604599+327684827+328666636+329038789
1751+329066917+329742424+331161944+332616365+333687616+334504057+335680207
1738+336688817+336766235+337629308+340086733+342159886+343806994+345188307
1724+346229550+346711203+346180487+345618110+347258576+350411599+352945211
1711+354492346+355026400+355182760+355886136+356360011+356327022+357451743
1697+359906251+363432075+366693529+368295172+369159282+369388232+368924046
1684+370361649+374084146+377009969+378441933+379245541+380675561+382104381
1670+383529864+386407208+389299265+390980659+392895701+395715978+397940727
1657+398350211+397348925+399137098+403533902+405378170+407244312+411639431
1643+415792217+418432381+419716378+419945911+421822325+426425817+430191511
1630+432639084+434981597+437415268+440327546+444449417+447951811+450328901
1616+454570804+460424331+465140595+469238485+473682635+478401492+483023812
1603+487735669+492958863+498680108+504459879+510043397+515601509+521287172
1589+526935374+532441701+538325009+545096311+552234418+558080492+562764480
1576+569419995+577037325+582664721+588433149+596027406+603629570+610279576
1562+614966027+618498688+627536446+640281923+650941868+660830287+670026641
1549+678538122+685644147+691513099+696941651+703573834+714975038+726606520
1535+735720951+745225551+754869563+761901638+767918881+774638754+780869165
1522+787886721+796825316+806333351+816738325+826169623+832499974+836881548
1508+842375042+853675722+866575971+874554954+879677138+884121515+888762079
1495+893343210+896696277+898986615+903909955+913567578+922379464+926768297
1481+928356782+929947472+933141878+937435566+941694126+944633949+946545978
1468+948973848+951357970+951888200+950809528+948725163+944746917+942605128
1454+945456418+949224996+950647238+947682592+942388396+937813616+933985410
1441+930932555+928208038+925194005+923275235+920353301+914010765+910122089
1427+912372438+915332288+916335065+916576750+917103739+920877373+928303831
1414+935278611+940092224+943908180+947005368+949672979+952945484+957400749
1400+961720751+963772775+965068438+968706485+974210803+977714882+975709523
1387+970652670+969766231+972698277+975314168+978470076+982176953+983421350
1373+983389721+984558223+985997900+988410410+991857454+993147090+993152340
1360+994570693+994548592+991347187+987990166+986113849+984326195+982106437
1346+979919150+978847478+979117356+977154839+970269046+963204565+961302841
1333+962613023+962464602+961817970+963900714+966847861+967445561+966480440
1319+966965301+970500102+975158554+978368774+980433501+982430175+983502365
1306+982617677+982064892+984996419+989605614+991835872+992496245+994197828
1292+996575274+999806623+1004962834+1010961346+1015632372+1018460847+1021329312
1279+1024782190+1027745928+1030547442+1032909787+1035050215+1037788860
1267+1038620208+1036963605+1037727483+1042738709+1046635745+1046025926
1256+1044800325+1047313294+1053159885+1057952953+1059242654+1058465618
1244+1057761821+1059062151+1061390016+1061959004+1060486273+1059202340
1233+1059959932+1061087342+1060804890+1060867305+1062822369+1065371827
1221+1067255533+1068796512+1068972088+1066965498+1064829348+1064115310
1209+1064048424+1064938686+1069003133+1073741823+1073577589+1070158219
1198+1067950257+1066420750+1066276284+1069665386+1070728438+1064315062
1186+1057254989+1055937483+1058371965+1059855001+1058799726+1057184926
1175+1056449825+1056058099+1054609932+1051061975+1046090285+1042882203
1163+1044858008+1049929833+1052148294+1050845761+1048877928+1045155561
1151+1039055034+1034836269+1034765948+1036085333+1037398496+1039394197
1140+1040152891+1039034878+1037964696+1035547714+1030984083+1028491594
1128+1029803007+1029522888+1024460072+1020063527+1019862544+1020020880
1117+1018077417+1016929137+1017738578+1018265438+1017573437+1015203120
1105+1012720418+1012158884+1010602351+1007622473+1005769164+1004214835
1094+1003449077+1004724778+1008029430+1014903298+1023131160+1025341650
1082+1022140050+1021369690+1024144047+1028290352+1032650084+1032458434
1070+1027480846+1026231912+1033038634+1041276413+1042470191+1038688326
1059+1035987466+1035537409+1038770897+1043853416+1043791002+1039954176
1047+1038136449+1037945382+1038432058+1039807182+1040806782+1041388214
1036+1041767172+1039420835+1036400386+1039460176+1045499844+1044514891
1024+1038368672+1035149378+1033184656+1027595434+1021823247+1021572877
1013+1025505690+1028050806+1028318351+1028168440+1026760716+1023756664
1001+1021199169+1021468918+1025770707+1031949851+1034119769+1033040967
989+1036252743+1042338039+1047249453+1052013161+1051485329+1043861842
978+1039259452+1041476099+1044131785+1043887702+1044480735+1047744036
966+1048666705+1046545267+1047618430+1052060733+1055879282+1058711905
955+1060945403+1063050444+1067588669+1072839830+1073607532+1072207909
943+1072381217+1072343886+1070461735+1067322938+1064254074+1060486143
932+1057192056+1057483776+1059921692+1062089017+1063296082+1063369839
920+1064441511+1067188388+1066714933+1062643422+1061966911+1064692724
908+1065571838+1063751648+1060918571+1059331576+1058896815+1058575346
897+1062000872+1067035366+1063193938+1055200372+1053838017+1053863294
885+1051992745+1052429710+1053438060+1054968085+1058427768+1058840169
874+1052383952+1044527594+1044293751+1050023487+1051811529+1048850902
862+1045786380+1043495458+1042895295+1042846751+1040457120+1039025610
851+1041469748+1042127010+1039006555+1035601768+1032616252+1032129511
839+1034329242+1036178014+1037762611+1039214149+1037561175+1032101253
827+1028733863+1030156235+1031032303+1030340885+1031270618+1031315663
816+1029015408+1027268780+1026039679+1026228866+1029366367+1031774404
804+1028671319+1022050284+1019495252+1020250057+1019786843+1016819734
793+1007736089+999111900+1000232376+1004774878+1003981381+1000186748+997043543
779+994576591+993509521+994761371+998721729+1003540203+1003857978+996672622
766+986729501+981883807+982939729+984161248+985280297+995194253+1009771521
752+1005141003+987314498+979151448+973988108+963461740+956675434+957692016
739+960198893+960431634+960599238+959086713+951999872+941982217+934230855
725+930253969+928379920+927575275+928119245+928719408+928372726+926894940
712+924675895+923996208+925980956+930271080+933553501+932444173+930625020
698+930812133+931967154+937052719+945450714+947795819+942358388+935860950
685+930448342+929191760+934229947+939093142+939244543+936769165+930452425
671+919791961+913816392+923674479+936580886+941820380+942782001+938442231
658+933318427+934767112+940643842+945413965+944286555+939989885+939477673
644+939124900+934902375+932991967+936700659+935996862+923272902+908661996
631+911200437+932818011+945763110+934104341+909442920+889598482+891743836
617+905757366+909469558+904696259+905420342+921034608+942607526+951740558
604+945746647+933488105+926969215
##END=
