##TITLE=Sample description
##JCAMP-DX=4.24
##DATA TYPE=INFRARED SPECTRUM
##DATE=12/9/2023
##SAMPLING PROCEDURE=Instrument type and / or accessory
##ORIGIN=Default
##XUNITS=1/CM
##YUNITS=ABSORBANCE
##RESOLUTION=4
##FIRSTX=4397.6552
##LASTX=599.8556
##DELTAX=-1.9287962
##MAXY=1.8372319
##MINY=0.21133985
##XFACTOR=1
##YFACTOR=1.7110555e-009
##NPOINTS=1970
##FIRSTY=0.22991051
##XYDATA=(X++(Y..Y))
4398+134367649+134379650+134313306+133493238+132911615+132980458+133151907
4384+133452716+133466998+133096572+133124405+133592762+134213243+134729297
4371+134875526+134922040+135102206+135192586+134998354+134699278+134659523
4357+134678316+134352269+134200589+134330950+134344745+134666769+135174759
4344+135519443+135558719+134887727+134130266+133952067+134364645+135203332
4330+135534230+134835562+133698825+132975145+133425310+134789292+135729385
4317+135608864+135069000+134750468+134416671+134067241+134449346+135273647
4303+135575806+135213670+134577652+134277304+134562821+135222997+136015432
4290+136441430+136043718+135307837+135289401+135959104+136468775+136607358
4276+136319838+135282286+134023270+133621030+133980075+134177258+134005417
4263+134165397+134914498+135553372+135859424+136143155+136377394+136309457
4249+136218703+136710513+137185340+136867749+135929947+134987878+134960811
4236+135609874+135992136+136122280+136292353+136529832+136664714+136858100
4222+137017810+136446298+135704103+135949568+136909229+137601122+137784267
4209+137847458+137905354+137782238+137504725+137335096+137356511+137291665
4195+136981242+136898230+137517701+138186847+138043240+137318567+136690709
4182+136406778+136149086+135998598+136746480+138162968+138863804+138308552
4168+137493125+137445000+137590350+137068147+136508949+136478076+136576860
4155+136599711+136641905+136837112+137200737+137509698+137662841+137679240
4141+137641557+137954515+138598823+138724438+138253904+137937942+137760135
4128+137565800+137744564+138232751+138379598+137961421+137423263+137066980
4114+136873715+136928746+137096572+137008335+136775593+136789623+136875892
4101+136665907+136629042+137091956+137294113+137183807+137421600+137628703
4087+137397912+137149887+137045321+136855296+136740462+137031335+137532349
4074+137965035+138234911+138233639+138137155+137890645+137431998+137421600
4060+137939745+138345442+138483615+138499517+138588094+138735072+138716722
4047+138715991+138806631+138649656+138400952+138231314+137799995+137346766
4033+137306427+137394098+137395421+137417960+137517884+137741264+138038467
4020+138152665+137936906+137690666+137670078+137649125+137470656+137609056
4006+138294356+138551369+137815715+136964913+136632700+136782334+137244717
3993+137638587+137810402+137966524+138399776+138907392+138689081+137767790
3979+137062643+136922101+137064924+137352479+137878113+138394298+138338135
3966+137782604+137576076+137913227+137863343+137200868+136641487+136518224
3952+136684334+137019447+137635757+137925393+137614447+138020118+138956901
3939+138895940+137927997+136758141+136160721+136878069+137637629+136897507
3925+135840822+135796773+135572993+134794622+135327789+137485069+138857769
3912+138598771+137396667+134632056+130905893+129591403+131184321+133498437
3898+136107414+137203306+135305024+133704922+135080670+135352827+134135038
3885+134325891+133707125+133328799+135152290+134732180+132147004+130106116
3871+129244150+131407744+133241172+132558031+133760240+136612409+136512737
3858+131930104+124611459+123514312+131973813+137333197+137585333+135490591
3844+132867305+130246571+128051434+128739138+131813023+133440794+134391337
3831+135916457+136262047+135411968+133225513+129176161+128527237+131279943
3817+132729994+135885106+139158822+138501947+135006001+132911363+132849617
3804+130885802+130824388+134678961+136392199+137326622+139023558+139285552
3790+138561924+137762713+137113685+137428619+137347044+136364183+137212276
3777+138962919+138582242+136150087+134330228+135249184+137130980+138524163
3763+138260244+135910152+134980197+136074286+134660446+129482073+126255907
3750+129988104+132426337+131825276+135829561+140347785+138984238+134358435
3736+131830824+134321083+139338667+142593363+142906112+142866478+144337491
3723+146409356+149004164+152015076+153932361+153370141+152017689+155206417
3709+162786046+170101904+175765346+181623150+190001824+198042042+202028317
3696+201884640+198342006+192583761+188942352+190107305+190528791+187006675
3682+181320033+175048946+167798299+162610216+164006142+165102748+164536348
3669+167900784+171562083+172245320+171864329+171269713+169802567+169011341
3655+169552817+167252225+162363166+162553034+168940156+173627416+174823477
3642+174933242+175577515+175871035+174980739+173199015+170027531+167141607
3628+170185490+175195706+176079000+173578369+170966091+171340724+172431286
3615+172030074+172012047+172547426+173070788+174426392+175288333+174476311
3601+173755540+174202560+174353587+174262912+174972884+174613979+172211582
3588+171890334+175139204+177233729+177225246+177121508+177269191+177345497
3574+177727062+177631057+175543133+172985721+173701824+176453320+178013354
3561+178558591+178976943+179111057+178735902+178510084+178695528+178260212
3547+177646872+178330718+179663872+180317342+180075813+179594498+179560481
3534+179653769+179411980+179119087+178957156+178713137+178617933+178923645
3520+179351001+179815195+180123224+179708687+178808846+178463596+178748320
3507+178504388+177739237+177814098+178572299+178731094+178475249+178543177
3493+178596213+178167638+177613500+177403793+177433664+177577063+177993742
3480+178428639+178472201+178127038+177738993+177845188+178365693+178592190
3466+178267197+177941698+178217818+178798622+179082214+179087178+179120306
3453+179291886+179304723+179103063+179101652+179104230+178937213+179239128
3439+179998305+180533580+180735762+180832761+181003801+181226553+181275270
3426+181167734+181105919+181385958+182220431+183051594+183254874+183274869
3412+183705047+184222190+184340316+184381700+184952541+185716334+185879344
3399+185737844+186227903+187429502+188565873+188963776+188807558+188822136
3385+189222669+189736016+190271221+190904225+191663872+192357089+192658151
3372+192695146+193019076+193786283+194628141+195322298+195938320+196456962
3358+196840948+197265987+197888663+198710822+199707434+200603669+201099633
3345+201491806+202076285+202655469+203149186+203654311+204102533+204377799
3331+204605324+205160734+206179014+207142898+207458399+207319860+207383399
3318+207769964+207870585+207502657+207396933+207798755+208369492+209043392
3304+209324285+208751597+208455604+209605264+211354922+212486764+213136106
3291+214023162+215342887+216731411+218185320+219853063+221201335+221898349
3277+222343331+222921662+223813369+224658379+224886462+224865230+224989277
3264+225086746+225160265+225113621+225093103+225384167+225676746+225835455
3250+225951264+225702681+225101533+224832450+224998003+225199437+225316030
3237+225083123+224691368+224449631+224057423+223701392+223552437+223228541
3223+222639777+222178022+222215226+222385447+222337044+222264639+222161754
3210+221981657+221647101+220975517+220329920+220022135+219513770+218626627
3196+217953667+217601537+217308139+216975134+216478317+215763363+214937703
3183+214071914+213171342+212561903+212532102+212597835+212180791+211317143
3169+210430383+210099677+210325965+210208815+209455404+208959875+209186773
3156+209622507+209810303+209805286+209734449+209513386+209147985+208901126
3142+208824193+208548544+207989633+207432604+206883848+206435939+206262983
3129+206012485+205496300+204951062+204426098+203875479+203267695+202568033
3115+201698168+200769049+200210835+199724329+198601980+197015471+195410674
3102+194181904+193603869+193168937+192411310+191535871+190648101+189753242
3088+189221903+189189228+188978737+188137228+187259072+186948605+186996137
3075+186909137+186642684+186427473+186282472+186294264+186352543+185908919
3061+185212428+185227320+185947586+186500330+186578692+186407042+186112373
3047+185885127+185834128+185806278+185701006+185574503+185371519+184797543
3034+183906149+183328097+183381708+183605506+183501523+183082911+182483801
3020+181858164+181506783+181449636+181453033+181378887+181062985+180519141
3007+180091506+179983187+180011595+179780012+179171566+178503291+178163075
2993+178450568+179239930+180087692+180797177+181306639+181512705+181381900
2980+181165905+181200705+181442008+181588001+181277621+180536437+180079715
2966+180265786+180489653+180295988+179876975+179452040+179203631+179177906
2953+179113896+179002355+179205321+179695659+179879030+179593522+179407277
2939+179496437+179437758+179106564+178670586+178236246+177962129+177906201
2926+177894462+177673765+177127203+176394536+175720896+175348405+175303486
2912+175372320+175552678+175831480+175828780+175435545+175036057+174889628
2899+175003225+175284117+175579484+175883558+176222259+176367661+176234521
2885+176187355+176420227+176724476+177003661+177241497+177275322+177152755
2872+177223418+177566142+177843394+177818783+177606620+177440091+177419312
2858+177482015+177443732+177112573+176515657+175848079+175331598+175203422
2845+175402243+175614162+175805023+176068811+176297677+176363393+176428866
2831+176753424+177142461+177233328+177117432+177154409+177320799+177320956
2818+177241880+177232231+177235854+177243012+177243465+177347430+177673434
2804+178129302+178598512+179015366+179230263+179157597+178980200+178918855
2791+179085123+179353213+179477940+179554681+179697575+179657462+179377719
2777+179253829+179393378+179513611+179530192+179424311+179256650+179281714
2764+179527893+179766130+179823642+179735614+179728038+179926144+180122405
2750+180142731+180112129+180121447+180136861+180218584+180406833+180570383
2737+180693264+180864757+181035361+181197570+181341108+181399822+181487450
2723+181667547+181718319+181603572+181593940+181745943+181949554+182110788
2710+182180318+182316349+182620337+182949545+183174527+183336719+183434588
2696+183356139+183228486+183308537+183587235+183851197+183995118+184079889
2683+184128658+184131306+184118991+184144055+184218097+184232588+184124339
2669+184050436+184126934+184190839+184126498+183993707+183809970+183675855
2656+183679635+183631754+183406633+183225508+183285529+183449375+183464093
2642+183307666+183196978+183243291+183277325+183123964+182886720+182747885
2629+182662348+182519559+182268381+181910730+181648753+181616217+181624909
2615+181509901+181326512+181178045+181074115+180951931+180759224+180527519
2602+180358673+180221423+180109499+180154732+180186902+180046761+179956033
2588+179905766+179732392+179566543+179473969+179381395+179312822+179224637
2575+179090958+178999115+178948604+178945852+178928783+178739333+178429946
2561+178103350+177761026+177482886+177374009+177334297+177194052+177018048
2548+176860228+176630648+176414392+176359736+176366319+176287784+176174640
2534+176072956+175974060+175929157+175894758+175738802+175503195+175343267
2521+175260970+175231848+175270932+175228225+175070648+175008712+175017647
2507+174932092+174814489+174706274+174588845+174585014+174739193+174882435
2494+174864895+174816910+174963566+175269783+175598521+175873561+176064596
2480+176204197+176277229+176264340+176198641+176121621+176109516+176158459
2467+176205399+176285119+176401921+176476642+176546068+176719320+176898024
2453+176898268+176841051+176950834+177146432+177264157+177405570+177713808
2440+178067365+178327148+178504249+178594019+178615947+178624604+178653134
2426+178750010+178948482+179184803+179319510+179340202+179352464+179436922
2413+179664028+179974321+180185352+180320233+180562754+180830792+180983945
2399+181176565+181452005+181675907+181864818+181991774+181973799+181868214
2386+181552469+180615320+178707058+175716664+171914718+167836740+163788806
2372+159674826+155361885+151125617+147308030+144170971+142371429+142315902
2359+143787307+146716967+151218765+157343388+163541652+166422246+164411064
2345+159768880+156660552+156109514+156785645+157978274+159207810+160080184
2332+160831505+162212121+164253784+166162464+167584621+169075682+171205477
2318+173718318+175931613+177598504+179061522+180597363+182177566+183777382
2305+185257435+186414810+187347570+188220153+188998733+189646803+190205156
2291+190747764+191336214+191977475+192565786+192854185+192806235+192712041
2278+192755236+192915303+193096027+193206663+193297582+193421682+193542821
2264+193686602+193915660+194167813+194294857+194364126+194602885+194971126
2251+195242839+195309444+195209433+195156919+195311151+195535837+195711266
2237+195854246+195922105+195973817+196159279+196416779+196609156+196704882
2224+196697114+196684399+196781955+196911924+197008104+197117608+197248430
2210+197387910+197494418+197551356+197647152+197772297+197869661+198006336
2197+198167239+198267912+198347719+198487460+198653100+198722927+198729894
2183+198858505+199133371+199368733+199457563+199476670+199470591+199478220
2170+199611377+199849770+200056899+200184552+200241438+200215607+200232067
2156+200422632+200620042+200668619+200680899+200804493+201039577+201241638
2143+201325608+201319477+201273738+201308295+201462387+201624945+201758990
2129+201893209+202030982+202165097+202253456+202319956+202428641+202529036
2116+202602607+202702079+202782513+202791186+202798798+202901474+203060740
2102+203158121+203165628+203127466+203142202+203297531+203486633+203534078
2089+203482156+203516138+203629996+203718077+203828469+203934088+203958926
2075+203999004+204095758+204171716+204163808+204064389+203986167+204031348
2062+204174798+204384244+204592017+204707774+204735973+204709028+204670866
2048+204636867+204591321+204567633+204593080+204689364+204826527+204957628
2035+205108812+205258272+205361854+205455821+205567851+205647484+205712921
2021+205772263+205690975+205610367+205855553+206284163+206579529+206777601
2008+206982309+207119298+207145494+207115657+207121074+207243833+207339873
1994+207167161+207002008+207286053+207818506+208291374+208662559+208940159
1981+209175591+209338898+209423355+209571683+209823087+209904775+209659659
1967+209565709+210023267+210626923+210986960+211216749+211446677+211735582
1954+212069771+212297174+212387885+212403857+212259605+212026593+212293952
1940+213159237+213901379+214291183+214550408+214837675+215179685+215466551
1927+215474824+215115658+214933140+215072898+215159742+215770417+216973061
1913+217706321+217760716+217842682+218384837+219110276+219683922+220076826
1900+220324085+220392745+220452835+220733553+220812071+220770025+221505654
1886+222574113+223171882+223577257+224113420+224741287+225265850+225520041
1873+225064068+223639926+222838668+224373272+226681423+228044134+228722807
1859+229308053+229924911+230476559+230947598+231315264+231299588+230563263
1846+229485659+230046451+232572616+234540446+235417365+236173303+236642374
1832+235894083+234921175+235616778+237071471+238601948+240536092+242017033
1819+242789325+243490624+244089804+244145435+244311912+245480139+246986823
1805+247794960+247679813+247383367+248066186+249315631+249438076+248461859
1792+249159779+252273298+254771386+255807066+256374476+256822855+257641234
1778+258882458+258952006+257189685+256042934+258163759+261762565+264586082
1765+265572348+265317304+265980580+267356807+268534561+269629617+269420067
1751+267926168+267811125+269892552+272160747+273390040+273829745+274750713
1738+275601698+274515612+274249524+277899189+281813739+284768027+286789328
1724+287802313+287820184+285721548+282505597+283191760+288249125+292906740
1711+295369611+295480595+294500825+294467628+294179821+292620849+293109410
1697+296169666+301059353+306381133+308940462+309416029+308343459+305469675
1684+306012335+312280373+317414706+319236473+319399536+320329944+321169990
1670+322090575+326285930+330930831+332784333+334540227+338203024+340769703
1657+339418522+334747042+335256678+342542805+345227261+346863461+353621280
1643+360569995+363900431+363977626+362050936+363587090+370922265+376678333
1630+379259468+381281745+383548947+386197279+390711932+394999879+397290525
1616+401423177+408452360+414252564+418560332+423094806+428346254+433676499
1603+439088084+444830288+450560334+456150553+462194114+468908703+475667636
1589+482148586+488689383+495877031+503841500+511766396+517872591+522395535
1576+529693191+538928790+545288584+551423135+560595995+570074289+577827658
1562+582187260+583662558+592999596+610289468+624317598+635850984+646161800
1549+656118274+664300392+669727339+673481300+679743660+695922504+712870227
1535+723175957+731801385+742030966+750952840+758323094+765362971+771524241
1522+779073685+789367989+799788605+810885230+821886058+829357054+832121561
1508+832963105+842759617+861200438+873939185+880751520+885372803+891452210
1495+898491809+902352713+904051408+908806945+916985161+923003049+926514070
1481+930517589+934771293+937133734+937386566+938037842+942640105+950545493
1468+956513080+958416186+959482207+960359562+956876757+947969932+944886615
1454+952433481+958494774+958139248+953438402+949079009+946598756+944376700
1441+940979589+934971733+928096277+926928050+929655771+928962415+925165537
1427+922150706+919906913+918720851+918905755+920255960+926199232+936762393
1414+945389981+949337903+952520778+955949937+957311011+958272596+959782834
1400+959847209+960179395+963093762+968339846+974226336+976819803+976394259
1387+976712442+978204704+979606535+981043619+983731140+987933845+991390454
1373+993319966+995007652+994871447+992712722+992020480+992687222+992828653
1360+992371896+991261565+991294727+991950044+990089227+987800148+987489768
1346+987237702+985344977+981681726+977322891+973134886+969923794+968687221
1333+967960005+966625894+965869068+965922435+965880494+965687369+966468161
1319+969047693+972656392+975569435+977728022+980508413+983271457+984999135
1306+986674768+989097195+992093355+994562461+995475417+995646945+996755673
1292+1000076426+1004828270+1009472753+1014837554+1021230267+1027884800
1281+1033644909+1036091233+1036713944+1039239552+1043314970+1047752254
1269+1051860835+1054256370+1054910223+1054327363+1052651799+1051390354
1258+1053297849+1058318063+1062856647+1064713423+1065236157+1066911722
1246+1069763943+1071415959+1070108601+1067109166+1066264487+1068439098
1234+1070771929+1071608109+1071018073+1070167472+1071109689+1072442198
1223+1070398916+1068209674+1070357392+1072238762+1070571070+1070240625
1211+1072530610+1072879656+1071240599+1070466914+1069966056+1068997364
1200+1067780577+1066622243+1066022732+1065860401+1066014859+1064769368
1188+1060928599+1058704453+1060004844+1059588844+1057114792+1057858310
1177+1060106144+1058637221+1054468863+1051414390+1050100622+1048729098
1165+1046495686+1044080574+1041027494+1037841135+1038306183+1041883808
1153+1041792959+1037938046+1036295018+1035476465+1032962491+1032553180
1142+1035061928+1037217658+1036457837+1031740688+1026271800+1023833906
1130+1022801744+1020357023+1017324635+1016109729+1018268594+1021199264
1119+1020001845+1015572364+1012232871+1010658049+1009357867+1008373012
1107+1007450302+1007048375+1009738405+1013211874+1013075878+1010833269
1096+1009146279+1009747880+1014134932+1019402892+1020471979+1018557655
1084+1019299850+1023951300+1028744528+1030325899+1029638604+1030304231
1072+1031163960+1027082062+1022157157+1025345885+1034209794+1040493613
1061+1043436753+1045164709+1044666429+1042916388+1042900294+1042763602
1049+1039810637+1038369164+1041476378+1043171868+1040702065+1039762286
1038+1042189520+1044520122+1043499596+1040315606+1039672830+1040247608
1026+1038587719+1037352330+1037223441+1034091843+1029135656+1027525233
1015+1028013690+1026819406+1024876936+1025453107+1029179200+1031958337
1003+1032597351+1035058375+1038581588+1038885698+1038242853+1041569109
991+1045068843+1043379694+1040278332+1040607593+1043543836+1045539465
980+1045634146+1047440272+1051565643+1052383918+1049533717+1048790338
968+1051863483+1057471851+1062727270+1064417604+1063609014+1062958017
957+1063169605+1064260080+1066932065+1069778434+1069450985+1065806755
945+1062598171+1063045592+1065428795+1066705986+1066347116+1064755643
934+1064429936+1065917391+1065105038+1062660665+1064512425+1069908160
922+1073040733+1073083859+1072133560+1070615102+1067935383+1065064212
910+1064103671+1064371970+1064738365+1066694072+1070530940+1073509961
899+1073741823+1071307273+1066850203+1063094292+1061542322+1061102077
887+1062622904+1064061869+1060952078+1058064743+1059614622+1060221518
876+1058611931+1056872061+1053985423+1051857282+1051709094+1050569432
864+1045675251+1037922719+1031882606+1030555043+1032164282+1032562516
853+1030919487+1030309108+1030861104+1030123786+1028730455+1028682313
841+1029593527+1029478851+1027382549+1025784527+1028344831+1033640938
829+1034306635+1027481620+1021157183+1022047009+1026562254+1026765273
818+1021601260+1017410260+1017626446+1020341765+1021808320+1020778109
806+1019523630+1018589355+1018509235+1018643349+1015192105+1010733920
795+1008312259+1004677574+1002501082+1005654696+1008788245+1008401367
783+1007263029+1006990549+1006720229+1004522697+1000576169+997329336+995816800
770+994209094+990382747+984465114+977826048+973708479+973560221+973212707
756+970489584+967782625+965226919+962148479+960126237+958894889+956560804
743+953196926+949232004+945073609+941133351+937450663+935454616+935032137
729+932966003+927771615+920554914+913648245+910418412+911331229+912264668
716+910579908+908125850+907856158+911579463+917728540+921754980+922885864
702+925115723+929594043+931427619+927159842+920296578+914126112+909883416
689+909585229+911906146+913844088+916583513+921414503+925405969+925719553
675+924581215+926117509+926916136+921947827+920222727+924054718+924559965
662+927390659+933892405+932109131+922081593+918022339+922945084+928744696
648+931653977+930809646+929866314+932521717+931256858+924217886+920441073
635+923074252+927150437+926563954+919401945+908960079+902229815+906679292
621+920119964+926146352+918642611+914313455+917911982+923594269+931392645
608+931864380+921017593+916647958+918189895+912267664
##END=
