##TITLE=Sample description
##JCAMP-DX=4.24
##DATA TYPE=INFRARED SPECTRUM
##DATE=12/9/2023
##SAMPLING PROCEDURE=Instrument type and / or accessory
##ORIGIN=Default
##XUNITS=1/CM
##YUNITS=ABSORBANCE
##RESOLUTION=4
##FIRSTX=4397.6552
##LASTX=599.8556
##DELTAX=-1.9287962
##MAXY=1.7494979
##MINY=0.12697189
##XFACTOR=1
##YFACTOR=1.6293469e-009
##NPOINTS=1970
##FIRSTY=0.15054315
##XYDATA=(X++(Y..Y))
4398+92394784+92275317+91982231+91549476+91274682+92108814+93554175+94227804
4382+93882983+93278896+93195389+93250563+92668316+92344237+93210735+94372485
4367+94903252+94915251+94727641+94498711+94465193+94584240+94301800+93792835
4351+93714038+93687763+93304284+93136327+93522221+94047592+94264230+94037761
4336+93788747+94022131+94503357+94763253+94526815+93957509+93748206+93981781
4321+94143629+94295325+94671570+94939002+94881486+94689769+94476497+94228938
4305+93832646+93626123+94251244+95452045+96341699+96142438+95104453+94779551
4290+95461365+95749685+95595638+96101877+96887447+96982258+96687389+96328338
4274+95753736+95597138+96174611+96469937+95897622+94991662+94572799+95159545
4259+96228515+96736903+96410208+95821139+95736671+96446232+97363433+97166128
4243+95767747+95069837+95704973+96279583+96207279+96154062+96312855+96385826
4228+96709979+97335008+97563225+97308066+97025626+96974759+97220351+97515897
4212+97420555+97297741+97882841+98765865+99021152+98434844+97583656+97151861
4197+97374563+97798446+97766236+97981329+99086395+99370088+97852908+96578403
4182+96827581+97312163+97119678+96659926+96494328+96744594+97089324+97650454
4166+98334143+98271634+97609638+97311724+97441078+97540590+97615235+97820853
4151+98106640+98478194+98809772+98972434+99030416+98906760+98800224+98902178
4135+98891706+98583659+98085752+97651488+97288842+97073868+97590030+98501295
4120+98878555+98765380+98482858+98297177+98557970+98716845+98118255+97617110
4104+98064470+98675946+98467091+97844128+97671215+97798264+97981118+98444813
4089+98846738+98835398+98645711+98263110+97826468+97998632+98512032+98564874
4074+98419900+98534173+98828420+99012582+98646516+97841650+97434273+97934458
4058+98775065+99056700+98787430+98593920+98622345+98374950+97938171+98182337
4043+98932367+99265665+99050618+98580330+98293519+98470996+98792121+98955487
4027+98974098+98926359+98814144+98637069+98612175+98793575+99095587+99607788
4012+99984399+99880991+99876711+100354554+100513996+99777291+98890737+98516797
3996+98347285+98189224+98392619+98975936+99303317+99176296+99050938+98932687
3981+98624320+98348062+98294049+98375252+98527415+98987066+99634173+99787177
3966+99221383+98526290+98557512+98956987+98775111+98382303+98046481+97374334
3950+97099274+98031766+98337079+97066067+97030702+98787100+99930587+99509209
3935+97534929+95831016+96474519+97421543+96467834+95530742+95869354+95448433
3919+94731427+96483217+99955692+101797866+101331684+99532311+95431614+89311952
3904+85847882+87478128+91935663+96878375+98676056+95793986+93143397+94573796
3888+94546478+92305780+92540316+92335201+92284060+95407114+95346854+91444157
3873+88185083+86964517+89797467+92317349+91519443+93041278+97009045+97317239
3858+91148127+80427007+77928087+89898598+98714293+99926609+96570089+91914802
3842+87782691+84596396+85248459+89494130+92354050+94123390+96265152+97025717
3827+96285144+93207040+87225081+86328065+90434715+92260135+96449470+101682560
3811+101556764+96604239+92925661+92777129+90664752+90274102+94663568+96963757
3796+98929468+102150946+103393533+103060290+102060652+100619919+100171543
3782+99558970+98631527+100779178+104178490+104496176+101550188+98905406
3769+99622238+101549466+103463203+103940433+101232437+99865087+101811977
3755+100899176+94897472+91736117+98119407+103005966+104974512+114724226
3742+125398457+128020796+126161757+126191644+132356778+143226054+152182599
3728+154490717+152728310+151610558+151607778+151918011+151908353+150643094
3715+148229117+148662896+158969515+175950479+191115315+201779055+209938050
3701+219259563+227652628+231352249+230567622+224986116+214837906+207136972
3688+207428073+207969430+203403275+195265497+185305556+173673986+164669656
3674+164647158+165074636+163365565+167076125+172060302+173303521+172642504
3661+171281930+168583721+166648336+166724572+162794302+154241997+152812549
3647+163064898+173172539+178317311+180920481+183265583+185201298+186556475
3634+187022767+184376833+180793853+185196688+192112501+191782459+184608341
3620+176255060+173515184+173443044+171431843+170690894+172628401+176323395
3607+182046399+186793050+188259455+188409112+188599978+187810339+187151608
3593+187882570+186707193+181916753+179172688+181365098+182899746+182092035
3580+181166659+180895422+180748839+180652390+179698480+176073851+171816996
3566+172487067+176552142+178995485+179889054+180426881+180199634+179120248
3553+178281040+177885480+176450243+174655845+175162248+177567071+179204972
3539+179214684+178764269+178613936+178281534+177500949+176840974+176782535
3526+176867862+176951726+177548871+178359655+178754118+178662260+177982769
3512+176720053+175978190+176430672+176518011+175641307+175653928+176814068
3499+177426816+177134032+176837024+176952714+176918528+176363617+175636643
3485+175036388+174832243+175265720+175844263+175828807+175516508+175669274
3472+176056018+176104580+175978245+175819772+175405207+175112607+175354596
3458+175557296+175366686+175262446+175345725+174932678+174140606+174264784
3445+175240058+175926134+176337625+176690678+176842822+176982766+177213470
3431+177258575+177121338+177246174+177498480+177357017+177202349+177707619
3418+178640238+179414476+179788764+179707534+179353567+179181907+179450327
3404+180119062+180946161+181480111+181761335+182174784+182441137+182435448
3391+182566064+182784586+183037422+183480813+184016281+184644265+185386512
3377+186185882+186998330+187478157+187493009+187523299+187883814+188422025
3364+188999855+189734676+190680612+191498455+191909508+192273992+192911176
3350+193370352+193404703+193761505+194926657+196200440+196963264+197444225
3337+197956958+198477299+198861153+199292033+199921005+200363792+200371255
3323+200387918+201008183+201933157+202304701+202004437+201759374+202019362
3310+202475923+203173247+204204126+204889982+204898195+204703524+205078416
3296+206240623+207706918+209112414+210236540+211111068+211800052+212191588
3283+212683030+213369014+213727572+213984797+214514778+215122696+215566216
3269+215446995+214946500+214960218+215534865+215899953+215722457+215274182
3256+215016810+215253331+215613589+215435106+214716911+213933290+213642427
3242+214024397+214346977+213954782+213379403+213437075+213860236+213812990
3229+213188427+212545317+212212842+212034871+211733491+211200565+210757247
3215+210721232+210531189+209652418+208788061+208766953+209152051+209001498
3202+208186453+207201082+206496075+205958979+205216275+204539308+204001243
3188+203159035+202143137+201329939+200798367+200407325+199845481+198958516
3175+198054485+197435994+196920939+196412158+195981735+195588040+195360043
3161+195325620+195248359+195046811+194777074+194342170+193773632+193489116
3148+193526777+193277069+192673467+192257677+191884687+191102602+190109495
3134+189352432+189020890+188804727+188304305+187667669+187287601+187194409
3121+186982362+186320631+185177318+183823074+182670981+181685775+180713409
3107+179776601+178603107+177134380+175864018+175000391+174113152+172913996
3094+171912822+171426941+170922751+170300218+169897304+169437579+168633216
3080+167741312+167197979+167092696+166945893+166488070+166031107+165902796
3067+166052014+166139957+166070067+165898955+165653161+165550732+165652576
3053+165934366+166231430+166017682+165422512+165034707+164814904+164621880
3040+164463590+164161771+163561004+162727412+162091691+161981067+162078558
3026+161942967+161418511+160691591+160206186+160191059+160426811+160483970
3013+160228043+159728956+158938622+158072600+157531535+157304288+156989281
2999+156347451+155614550+155264516+155568530+156293529+156964369+157365928
2986+157652639+157874856+157733321+157421533+157546003+157975584+158191930
2972+158097933+157800814+157413448+156995829+156519148+156123844+155877337
2959+155585815+155250213+154976269+154837386+154955673+155224240+155385474
2945+155332339+155101416+154893832+154974038+155138016+154906983+154357193
2932+153862935+153490787+153087645+152664977+152378669+152051261+151460234
2918+150857272+150506973+150314040+150258033+150559596+151176102+151694386
2905+151895705+151971978+152067274+152134265+152098314+151906241+151795562
2891+151965769+152202307+152428868+152624783+152607992+152516418+152536127
2878+152491927+152245767+151976954+151834622+151634464+151288043+150952623
2864+150554228+150070578+149823906+149782852+149552185+149121844+148591781
2851+147872398+147188069+146830974+146731691+146824417+147029294+147116789
2837+147148167+147403143+147835413+148169864+148342658+148498442+148634902
2824+148592092+148333952+148020298+147912802+148034007+148129733+148123002
2810+148127127+148170476+148252475+148500473+148958277+149414673+149669704
2797+149712633+149702665+149815492+150052973+150241388+150194472+149968515
2783+149734226+149552240+149512759+149624782+149667454+149474174+149167023
2770+148992646+149030069+149238431+149487096+149467882+149207976+149207592
2756+149563708+149861064+149983632+150136060+150333392+150460761+150459919
2743+150372233+150336236+150311973+150171974+150049370+150121857+150334864
2729+150491856+150503196+150495011+150567864+150616810+150607701+150708997
2716+150864662+150846728+150757577+150780478+150867744+151021068+151294884
2702+151589011+151766918+151786408+151717231+151681472+151687929+151697559
2689+151777006+151956303+152105813+152113011+152051453+152012639+151934336
2675+151822880+151785429+151743424+151625484+151532483+151429752+151231862
2662+151029491+150896452+150767418+150586850+150409299+150280979+150202447
2648+150170666+150085165+149910212+149778618+149687227+149536034+149340074
2635+149157457+149018509+148840648+148549063+148271900+148115384+147989048
2621+147827914+147711227+147654077+147529314+147294696+147091986+146970361
2608+146760838+146453056+146234104+146113932+145963974+145791709+145748552
2594+145851310+145888962+145765023+145623387+145537529+145412053+145199073
2581+145015084+144989678+144996446+144882987+144752069+144626392+144458664
2567+144287122+144018007+143649088+143396215+143254991+143020958+142703509
2554+142481886+142453956+142524678+142515185+142424462+142328489+142216869
2540+142096889+141951321+141728601+141506567+141413758+141404448+141340046
2527+141212777+141136906+141113137+141041226+140992636+140985649+140864728
2513+140698280+140638029+140649690+140654592+140578392+140471911+140523720
2500+140704389+140813714+140827990+140845239+140960609+141179186+141426160
2486+141748419+142156252+142498504+142690477+142730589+142651133+142549380
2473+142504201+142488581+142444847+142440997+142583365+142824622+143033478
2459+143105736+143055107+143059945+143154930+143238593+143416701+143727483
2446+144035164+144352759+144667309+144889279+145057629+145166396+145188007
2432+145237173+145354290+145439901+145474507+145551293+145727060+146005046
2419+146350910+146632334+146789170+146935141+147157322+147402119+147579989
2405+147729006+147894868+148068120+148343984+148784888+149570896+151606882
2392+156665878+167148813+185586322+213400566+249718881+291878781+337609571
2378+386513348+439174016+495464233+554255118+613784189+670065919+717945878
2365+752927782+771797617+777799833+772908025+746390446+697075524+637777029
2351+583359258+554182722+562066456+600229415+632852883+634350108+621539630
2338+610265446+604368623+604029106+605703461+603425358+595710889+584067557
2324+569085393+550649567+528910977+504062815+479443399+462903065+456183807
2311+448783942+429850674+400221071+369856939+347177244+331342392+317059162
2297+302298630+286724278+269728352+252415463+236645123+222751857+210686077
2284+201460390+195687854+192390085+190067974+187954344+185921815+184007630
2270+182316850+180943345+179787228+178576586+177264867+176019454+174820372
2257+173579220+172331594+171076980+169769944+168519135+167530015+166841031
2243+166264372+165635620+164969427+164324414+163774441+163404690+163222603
2230+163124344+162977833+162786931+162638445+162578048+162597619+162641225
2216+162636103+162600838+162647682+162737454+162781169+162838438+162925686
2203+163014050+163111156+163211574+163337104+163504192+163674682+163822583
2189+163937725+164020363+164128628+164287338+164412009+164452670+164502550
2176+164596840+164613484+164582829+164718621+165038585+165326814+165495566
2162+165609757+165651606+165646741+165691737+165767809+165876366+166067598
2149+166235436+166309916+166422241+166576086+166656146+166718738+166855700
2135+167051395+167271710+167487306+167648467+167750293+167828853+167918332
2122+168118161+168427260+168661220+168789842+168984238+169314628+169651017
2108+169881885+170106242+170414042+170769216+171210285+171748094+172321863
2095+172988605+173836410+174880183+176101068+177513588+179157013+181060718
2081+183304927+185794785+188164598+190248195+192195762+194078487+195753098
2068+197100922+198327002+199764745+201332866+202788223+204174568+205569949
2054+206979084+208449001+210006220+211527571+212822004+213889758+214856892
2041+215760886+216520931+217094426+217546340+217892241+218098124+218135639
2027+217947333+217527830+216956000+216145966+214988770+213887782+213203353
2014+212521118+211463516+210279780+209222087+208231613+207275691+206409979
2000+205663178+205131002+204647755+203749742+202829505+202779333+203374356
1987+203967349+204402162+204761269+205170364+205645600+206188769+206809070
1973+207514315+208158870+208549949+209171183+210576935+212274318+213694227
1960+214972034+216242725+217583691+219149763+220797339+222277389+223512468
1946+224316539+224766405+226080007+228727752+231192368+232742051+233848545
1933+234817636+235738842+236541633+236812998+236309100+235811512+235614939
1919+235230116+235624908+236927883+237329168+236477742+235570931+235317419
1906+235279758+234884691+234167740+233216098+231840782+230329766+229203902
1892+227823831+226204587+225934978+226633821+226893168+226845612+226822767
1879+226851959+227068725+227353314+226665867+224327422+222851488+225281680
1865+229406713+232180464+233680304+234950154+236393037+237793796+238899155
1852+239630812+239726693+238611786+236597256+236709654+239795668+241896806
1838+241884624+241402602+240384601+237320169+233597739+232384591+232608893
1825+233021062+234131469+234675186+233989824+232935661+231697034+229725030
1811+227905573+227744247+228368810+227968512+225996984+223787491+223446383
1798+224302181+223547184+220996711+220916414+224811127+227864986+228395972
1784+228141783+227851304+228066552+228917393+228118261+224473731+221553067
1771+223740099+228567798+232418539+233522563+232494721+232667351+234070304
1757+235194064+236156480+235016697+231691674+230608868+233306693+236479334
1744+237956548+238034395+238762101+239546289+237276362+235597929+240024470
1730+245650441+249903108+252466129+253356789+252918428+249371060+243595634
1717+243160309+249853393+256563652+260081278+259931859+257719549+256612690
1703+255305947+252023542+251789528+255994785+263148727+271079780+274813880
1690+275092744+272854790+267422191+266846245+276022638+284097952+286867405
1676+286984577+288585585+290213572+291642937+298025038+305565945+308985166
1663+312287453+318832800+324080733+323386994+317327783+319045597+331657545
1649+337495801+341827979+354222776+367025681+374369905+376714989+375779882
1636+380263509+394029544+405197200+410712255+414466914+417933783+421244703
1622+426447677+430344347+429424019+429004315+432758498+435041503+434454655
1609+433842457+434564548+435840306+437511039+440059189+443197077+446249107
1595+449553625+453793873+458637356+463806492+469453205+475739955+483015331
1582+490767626+496268194+498918262+505022725+514934195+521113101+526404420
1568+536640080+548205565+556943340+559979494+557084620+564280065+586562847
1555+605303950+619377784+631483987+643021780+651680721+655934833+657841703
1541+663039116+681358393+702037423+714379213+724585205+737488893+748028365
1528+754819799+760740072+765891685+772774647+784211620+796559190+809610158
1514+823054454+832267685+834531520+833211206+842994822+865112034+880573019
1501+887263194+890228964+896486668+906602375+912897466+913395273+915039045
1487+924020493+934664881+941754020+946512743+949192003+947966069+944034025
1474+943070749+950096454+960041177+964708372+962869765+960443871+959881680
1460+955421246+946761865+946707285+956032384+962769311+964175374+961776477
1447+959116533+956563261+952208695+946637048+940128172+932829201+928437175
1433+926045302+921474244+917439916+917147042+918815031+921216708+921225414
1420+918443139+921393910+930752591+939114926+944747884+949175321+952322538
1406+953997624+956599257+960135120+961174778+960645950+961886955+965883164
1393+972319973+977588649+978409327+976242800+974974138+975162901+976285674
1379+978740540+981487623+984774582+989457142+992295314+992730492+994228815
1366+995945385+995369000+993971644+993633773+993950719+993936672+993780321
1352+993459936+991619134+988835834+986580193+984814018+982446070+978371794
1339+974026008+971696617+970355963+967782498+964515805+963558603+965752933
1325+968107711+968530452+968628491+971376965+976777335+980499180+981413874
1312+983267627+986956182+989737286+989372564+987551589+988602222+993278124
1298+997815526+999141328+998837845+1000118285+1003080616+1007174865+1012925690
1285+1019473196+1025864424+1031118979+1034309801+1037375805+1041608114
1273+1045472336+1048755564+1051641658+1053381275+1054449101+1055019267
1261+1055180154+1056515029+1059331325+1061888036+1063015856+1063963255
1250+1066178217+1068355720+1068886816+1068650717+1069051508+1069364649
1238+1068698346+1069142743+1071947187+1073741823+1071965405+1069193665
1227+1068071405+1067796309+1067458658+1067216998+1066562620+1065769451
1215+1065558007+1065274790+1064988866+1065025521+1063801124+1061450882
1204+1060591206+1060747777+1059643076+1058453578+1058293569+1057275348
1192+1055911281+1056282222+1056141747+1053726023+1051584517+1050477694
1180+1048869041+1047396838+1046923687+1045995750+1044517987+1042354312
1169+1036822394+1030875051+1030233111+1032487070+1032426636+1030185262
1157+1028802465+1028657674+1027551875+1026719783+1027165131+1025192195
1146+1020685448+1016756623+1013590530+1011445732+1011554161+1013297875
1134+1014366945+1013263707+1009971919+1006018511+1004296380+1004442122
1123+1002484624+998299944+995622147+995093758+995651486+996875810+994930237
1109+988069297+982560132+983633007+990007334+997539040+1003307497+1006893477
1096+1007858143+1005964809+1003465824+1002917461+1003923757+1003287377
1084+1002756062+1007938330+1015349901+1018313257+1018970926+1020713616
1072+1023507963+1027980469+1033474343+1036293785+1035956280+1035436304
1061+1035967328+1037831616+1039298185+1039391249+1041265927+1044483453
1049+1044348393+1042378529+1044112439+1047235292+1046185318+1043089975
1038+1040413202+1036621632+1033681031+1034148474+1035750763+1035659893
1026+1033519997+1031086348+1030304153+1029150652+1026285555+1025575647
1015+1027804583+1029540688+1029471109+1028337948+1027804949+1029942358
1003+1034550802+1037019424+1034346456+1031464166+1032472949+1035244688
991+1037324517+1037877782+1037503549+1038728897+1041511026+1043037663
980+1044429532+1047696371+1050673481+1052671147+1054254193+1053565648
968+1051200919+1049916528+1050310222+1051665290+1052473531+1051947849
957+1052173706+1055586214+1059890150+1060104667+1057317929+1055954447
945+1056568146+1057865341+1058660266+1058448310+1057558053+1056099458
934+1054369865+1053015675+1052909368+1053729462+1053735315+1053075523
922+1052910246+1053122202+1054156519+1056087971+1058136925+1060267237
910+1060523823+1057147969+1053166246+1051412070+1051091539+1051658193
899+1053146565+1053124104+1050522178+1049161989+1050925384+1052730117
887+1051582103+1048419449+1046118958+1043903557+1041076432+1040883280
876+1042666356+1041233662+1035722595+1030707359+1027925669+1024860104
864+1021712230+1020403475+1020757222+1020933035+1018492069+1014620385
853+1013602749+1015954235+1017281354+1015321221+1013757417+1014634066
841+1013863139+1010215482+1009408997+1013126818+1014915747+1012299627
829+1010868835+1013177374+1015145701+1013580873+1010924952+1009659729
818+1008957503+1009151972+1009980480+1009587297+1009250304+1011102228
806+1012528118+1008872486+1002451480+998707174+998462734+999961642+1000237762
793+998868647+997187195+993656893+989250527+987868755+988873806+987281468
779+982322862+978356064+976315012+974769060+973620680+970704223+965728569
766+963240413+963428883+961013964+955707902+953060322+954093395+953834176
752+951163256+949369791+947741383+943803632+939723503+937373919+933244844
739+925760036+919905904+918789424+919162047+917791981+914235047+909366359
725+905934828+905077055+904601344+902213934+897848759+894428423+894138767
712+895342385+896022736+897230964+899889811+902435621+904332759+907113278
698+911894389+917044100+918442115+915944886+914154421+914943785+915882770
685+915507586+917015932+921809335+924040466+920741947+918093562+921495681
671+927412295+927883910+923465325+922832970+921465172+914995878+909225957
658+909510857+910198744+905383099+901787316+906999728+914867988+914881669
644+910522421+909244395+906655053+898949729+893167809+894879258+898681949
631+895544244+888261369+884924731+883735160+882265006+885803502+893285603
617+893886205+884870297+875778226+876303981+883844248+886741463+883811616
604+879183783+872689907+865466952
##END=
