##TITLE=Sample description
##JCAMP-DX=4.24
##DATA TYPE=INFRARED SPECTRUM
##DATE=12/9/2023
##SAMPLING PROCEDURE=Instrument type and / or accessory
##ORIGIN=Default
##XUNITS=1/CM
##YUNITS=ABSORBANCE
##RESOLUTION=4
##FIRSTX=4397.6552
##LASTX=599.8556
##DELTAX=-1.9287962
##MAXY=1.9471536
##MINY=0.33147994
##XFACTOR=1
##YFACTOR=1.8134281e-009
##NPOINTS=1970
##FIRSTY=0.33878767
##XYDATA=(X++(Y..Y))
4398+186821677+186924852+187097165+186715808+186403048+186977786+188061000
4384+188719603+188386645+187393589+186450247+185843807+185848047+186493272
4371+187132285+187505227+187850856+188118553+188435964+188691993+188464757
4357+188257044+188331968+188151865+187980029+188345543+188648886+188270931
4344+188149301+188954908+189384466+188893641+188950915+189897593+190387448
4330+189816999+188589180+187417337+187122506+187815555+188416161+188215959
4317+188018353+188091239+187531374+186736236+187313209+188779620+189032576
4303+188266823+188167149+188863123+189202737+188908284+189093400+189801584
4290+189960947+189435018+188503180+187786318+187794831+187924497+188166656
4276+188911094+189436317+189463614+189170591+188486844+188234053+188616001
4263+188658369+188890009+190028360+190864715+190688277+190152274+189807122
4249+190080555+190996962+191725475+191427292+190186523+189073563+189003373
4236+189582894+190091386+190291768+189947553+189422988+189037293+188739274
4222+189112891+189794813+189908062+190130795+190689477+190624677+190101871
4209+190099356+190708245+191296772+191331267+190906376+190343421+189621876
4195+188780426+188350292+188792949+189455150+189750293+190183549+190799422
4182+190913492+190339395+189927865+190334514+191105411+191452141+190868462
4168+190291982+190730645+191057029+190630067+190569704+191145626+191501937
4155+191504961+191420965+191143867+190971850+191015960+190850352+190820425
4141+191281455+191530187+191356149+191261980+191030931+190623756+190793095
4128+191391006+191499209+191116636+190825339+191079905+191759511+191814040
4114+191275243+191325482+192039172+192696657+192720388+192375417+192135871
4101+191458813+190333495+189771887+189918760+190202300+190796678+191559227
4087+191634167+191369953+191402362+191506210+191575513+191307191+190561191
4074+190202382+190491954+190880049+191493243+192094096+192128213+192090217
4060+192247772+192425574+192926014+193530136+193570039+193129798+192394744
4047+191568956+191453308+191921799+191806348+191147779+191219268+192123102
4033+192532791+191998645+191472059+191777457+192357882+192334627+191994718
4020+191720578+191511058+191523499+191858790+192222644+192188132+192040750
4006+192345474+192827293+192829397+192350092+191929408+191970181+192404276
3993+192925668+193339976+193323722+192881411+192322811+191712082+191482232
3979+191788435+192070200+192038022+191710109+191403874+191442215+191867517
3966+192389928+192402188+192445772+193176767+193417463+192640321+191747251
3952+191198610+191311563+191959401+191994668+191483711+191800038+192474713
3939+192229366+191462166+190790761+190563656+191268143+192136233+192156217
3925+192271963+193043206+192858847+191822947+191966024+193185494+193701595
3912+193300008+192724760+191464795+189163179+187695979+188382766+190243090
3898+192019418+192139372+190122479+188667983+189967619+190722050+190236977
3885+191138707+191749815+191845298+192717266+191883113+189735551+188163172
3871+187501726+189000842+190279574+190117302+191584125+194157382+194302004
3858+190272852+183600976+182791885+190043266+193975817+193718621+192080373
3844+190319263+188547076+187114174+187885630+190354350+191423578+191511206
3831+191966155+192126997+191793990+190329090+187600759+187835637+189976297
3817+190137977+191561807+193508394+192725844+190043102+188624629+188987744
3804+188163665+188820361+191970773+193032869+193432944+194508894+194697362
3790+194124086+193104342+192200425+192671579+193130045+192497967+192937337
3777+194203924+194146125+192685219+191513622+191971299+192793636+193478944
3763+193462641+191834550+190980297+191819381+191024604+187545310+185512180
3750+188093458+189183147+187984252+190561257+193853809+192801212+189246517
3736+187305912+189541923+193563564+195347616+194355546+193175107+193564747
3723+194872469+196832039+198951071+199748691+198438980+196932272+199209138
3709+203958832+207393096+209120401+211125609+216086352+222289129+226477463
3696+227963727+226692061+223564361+222043635+224257344+226147282+224965824
3682+221684957+217779194+213579867+211393192+213292991+213702598+212454137
3669+214262036+216749967+217554555+217692685+217183601+215471169+214183677
3655+214510094+213325908+210143910+210642837+216212731+220746644+222582218
3642+223092780+223221543+222918282+222260287+221393332+219511052+218013695
3628+220947158+224372647+224421555+222801533+222096832+223930648+225996810
3615+226419384+226367928+226238509+226395094+227715060+228853115+228816434
3601+228553732+228478727+228270718+228478217+229415462+229877938+229293109
3588+229669174+231776899+233156143+233203720+232961907+232842019+232903006
3574+233307437+233264182+231858692+230616395+231811066+233770028+234673336
3561+235213102+235696072+235743271+235553291+235600260+235709006+235388637
3547+235015431+235444825+236654977+237644418+237675100+237205426+237087067
3534+237326398+237483625+237647277+238082571+238559148+238740138+238450271
3520+237900742+237580045+237525927+237285839+236706039+236492870+236995396
3507+237299808+237075776+237243093+238096080+238742406+238765069+238528350
3493+237976521+237147249+236762375+236901047+236891055+236664805+236661929
3480+236862838+236796805+236217909+235716171+236089869+236865747+237101299
3466+236840980+236369301+235917901+235950425+236303925+236404487+236253752
3453+236171695+236232601+236345159+236489747+236524489+236495483+236954886
3439+237803649+238249477+238182409+238017261+238052496+238374772+238567956
3426+238210643+237864472+238311944+239176697+239796400+240288885+240728320
3412+240947619+240979797+240929952+240969854+241173507+241353249+241330109
3399+241450063+242245941+243247542+243754111+243937813+243999853+243864434
3385+243673912+243947674+244936687+245917450+246093395+245662637+245306770
3372+245413493+246019884+246735070+247217744+247857825+248732537+249146319
3358+249035782+249061107+249559328+250346035+250888004+250861627+250723119
3345+250945737+251390168+251974800+252771993+253479898+253703469+253618471
3331+253895816+254579612+254891205+254672202+254512790+254818862+255268519
3318+255129485+254633335+254380001+254360642+254445886+254264419+253689549
3304+253006509+252552924+252812240+253870113+255334322+256659957+257729202
3291+258935969+260298713+261391524+262051935+262985991+264451992+265481203
3277+265959620+266607524+267446492+268231408+268705092+268723137+268804273
3264+269354705+270104403+270535539+270335633+270096596+270278688+270333135
3250+270014310+269439522+268753015+268334582+268396129+268854776+269307292
3237+269662552+270237849+270400515+269554940+268643793+268518383+268788398
3223+268534505+267523750+266828893+267350007+268420303+268658567+268089712
3210+267817709+267643654+266929060+266107496+265596210+265400593+265476503
3196+265655685+265752236+265546217+265188000+265280146+265347182+264536300
3183+263632449+263391030+263341776+262995671+262231955+261326100+260753481
3169+260618441+260571242+260455643+260480508+260437303+260011672+259591268
3156+259595393+259704286+259380762+258760730+258590702+259134396+259581194
3142+259206723+258542451+258288032+258092580+257601853+257222649+257099754
3129+256815918+256176462+255395227+254688226+254072763+253549842+253052295
3115+252143449+250735625+249555762+248872902+248297934+247721009+247057263
3102+246090009+245049721+244358924+243826701+243054867+242304726+242001514
3088+241895069+241449373+240803178+240461740+240421312+240405486+240206944
3075+239637629+238891465+238480543+238461479+238578392+238719447+238671295
3061+238388018+238248590+238432686+238668403+238781536+238743491+238494528
3047+238321821+238465620+238568400+238234423+237686834+237475441+237498498
3034+237205048+236590259+236112253+235978642+235888944+235622825+235326647
3020+235168023+235269932+235505402+235582347+235508114+235232626+234564130
3007+233918002+233769896+233711440+233462296+233430250+233591749+233572488
2993+233529463+233869110+234657198+235554195+236148162+236336252+236372456
2980+236564392+236830791+236870102+236620120+236185714+235795138+235663812
2966+235646260+235413830+234950845+234588190+234501417+234635209+234884812
2953+234954082+234709590+234472493+234475944+234619185+234841228+235072475
2939+235027379+234703164+234475944+234403568+234206899+233888617+233674923
2926+233563170+233446651+233119790+232430160+231749618+231388508+231292319
2912+231434212+231684670+231953222+232200360+232231503+232031942+231791229
2899+231629549+231678293+231954816+232204732+232366067+232546465+232679583
2885+232814508+233021892+233202422+233304791+233398384+233616926+233882109
2872+233923063+233766100+233758458+233938364+233974913+233918478+233958348
2858+233842503+233517647+233227615+232887443+232448879+232170746+232098928
2845+232108788+232200442+232328876+232418656+232570459+232809890+232941019
2831+233016715+233269178+233675695+234017281+233961388+233504878+233227484
2818+233479618+233921749+234038645+233771507+233619638+233837918+233983558
2804+233882882+233978743+234461696+235060001+235414422+235456756+235475311
2791+235624830+235736007+235686704+235660410+235810783+235973893+236021684
2777+236019646+236035587+236087963+236086451+235919939+235640475+235407585
2764+235403756+235628938+235808975+235846445+235909964+236039597+236218845
2750+236494842+236751381+236854160+236938961+237053787+237020146+237000770
2737+237266906+237510544+237406515+237219740+237296159+237607621+237850470
2723+237879000+237894596+238000465+238033794+237974023+238038461+238209887
2710+238215442+238177775+238448660+238852844+239068724+239209138+239315287
2696+239290011+239383736+239792505+240197017+240218612+240016093+240023702
2683+240302542+240599739+240710883+240579097+240375460+240334588+240401985
2669+240425486+240433046+240421854+240350694+240287094+240254258+240168586
2656+240014778+239858078+239796679+239945195+240154173+240149506+240010127
2642+239952722+239941366+239823385+239649116+239484544+239228728+238962526
2629+238835440+238848620+238970250+239039751+238946684+238814158+238750787
2615+238751461+238763179+238695996+238491028+238224892+238008518+237839130
2602+237681444+237511382+237321189+237269322+237470428+237639060+237576692
2588+237508095+237476509+237311230+237125769+237103073+237080082+236895246
2575+236757675+236733467+236562896+236227687+235993302+235914319+235815730
2561+235737305+235719803+235507522+235078703+234757397+234669244+234609620
2548+234501368+234468385+234352967+234040634+233848994+233877294+233861353
2534+233714874+233514015+233307239+233110702+232918356+232803973+232754786
2521+232630313+232495075+232459002+232455633+232400858+232271734+232159176
2507+232135001+232139192+232205635+232419478+232589852+232501994+232372624
2494+232413808+232477063+232503753+232599646+232811845+233056979+233141927
2480+233106742+233215881+233507096+233706279+233591634+233297477+233040035
2467+232921265+233069255+233370528+233498633+233474885+233551551+233690470
2453+233700067+233657831+233750159+233940254+234155526+234465344+234812271
2440+234982744+234974329+234979325+235094842+235256456+235363229+235440996
2426+235516741+235588000+235781382+236071266+236249512+236354214+236532000
2413+236695093+236785400+236950383+237182730+237349456+237471250+237551926
2399+237617498+237830700+238154208+238377368+238454133+238473262+238440032
2386+238097723+237094183+235205986+232340084+228754953+224899857+220788864
2372+216313030+211991727+208363719+205211730+202343970+200148717+199320266
2359+200415379+203396354+208015231+214153192+220247240+223131943+221378672
2345+217107050+214117710+213260779+213486701+214499544+215901105+216988099
2332+217790304+219150534+221111156+222809240+224147218+225947212+228470772
2318+231046824+233053527+234483290+235843504+237465071+239174429+240799809
2305+242270345+243514681+244578683+245489831+246260958+246922732+247428825
2291+247887571+248450476+249040794+249614645+250121017+250407351+250499334
2278+250535341+250605318+250730564+250849695+250967217+251130836+251334177
2264+251551158+251677833+251732543+251920189+252200788+252399248+252589836
2251+252879078+253164558+253330971+253420718+253492371+253635694+253921502
2237+254172700+254245947+254242414+254267821+254351735+254497473+254646861
2224+254722557+254780455+254948248+255213251+255405088+255477135+255576152
2210+255671766+255653228+255633441+255750289+255984510+256205024+256315249
2197+256366803+256492114+256674189+256738151+256729556+256871795+257131982
2183+257322537+257446582+257573110+257664731+257711995+257749646+257817076
2170+257956866+258099729+258175721+258321607+258598015+258771856+258773697
2156+258840075+259021772+259167675+259261087+259382487+259573141+259814412
2143+260038181+260161224+260172416+260209130+260336955+260435544+260499621
2129+260631851+260806350+260943987+261041442+261148084+261260576+261325163
2116+261415568+261624447+261821116+261897223+261914117+261934134+262037719
2102+262237181+262382789+262392567+262407440+262515643+262605802+262677652
2089+262795749+262868470+262840400+262804639+262842800+262978415+263220179
2075+263430932+263499397+263500383+263407119+263271898+263356863+263649688
2062+263852602+263905487+263990683+264129535+264211592+264197557+264136799
2048+264097505+264106988+264172938+264210852+264179068+264278265+264612078
2035+264918642+265013698+265089098+265229019+265273228+265240540+265281510
2021+265400938+265528862+265694256+265965734+266250441+266384593+266448638
2008+266632750+266896405+267071758+267105679+267130166+267305223+267527661
1994+267518277+267404453+267613530+268092752+268526962+268799655+268946676
1981+269101223+269357088+269648796+269830477+269930298+269990152+269957497
1967+270036529+270408453+270880855+271253272+271531372+271776374+272016741
1954+272241857+272412247+272564116+272709148+272700718+272594700+272843334
1940+273480572+273982819+274255299+274538740+274914082+275328307+275691192
1927+275876718+275883292+275947024+275994749+275974765+276463190+277396984
1913+277998510+278198351+278488218+279040047+279621096+280112053+280558473
1900+280912204+281044894+281138536+281465117+281692633+281785125+282361178
1886+283246655+283947050+284521591+285009360+285371570+285694635+286030222
1873+286039590+285423338+285144120+286340928+288007360+289051066+289705905
1859+290340530+291009733+291665952+292266328+292756857+292955876+292687341
1846+292351030+293248373+295184557+296426756+296960474+297554145+298028076
1832+297771242+297486074+298293358+299493025+300790771+302414738+303754457
1819+304717340+305601962+306241254+306416378+306641297+307559873+308777322
1805+309574284+309780468+309928475+310816088+312072585+312422273+312006256
1792+312940938+315558551+317629891+318652791+319284294+319805588+320617242
1778+321667818+321835184+320773992+320298484+322233419+325169660+327441070
1765+328368454+328500290+329312569+330628722+331857839+332976091+333185266
1751+332655722+333057769+334787506+336609374+337757733+338394757+339375718
1738+340236609+339832359+340250677+343272869+346224163+348489131+350125160
1724+351005839+351136557+350009956+348528606+349800781+353696256+357215025
1711+359340434+359818637+359380270+359405119+359226281+358558098+359804537
1697+362824329+366963458+371078955+373107335+373819826+373453572+371872105
1684+373016914+378041126+381875531+383344326+383930371+385350783+386572702
1670+387587155+391060401+395156965+397267583+399101184+402109079+404380423
1657+404063834+401510248+402450878+407931600+410364493+412278294+417707873
1643+423169038+426114417+426809487+426280238+428469839+434574175+439251164
1630+441636430+443778010+446607034+450212510+455001383+458975973+461293333
1616+465484887+472047016+477431663+481638633+486151839+491397354+496644250
1603+501801053+507434581+513288459+518836595+524451026+530458598+536527502
1589+542576093+548783735+555413474+562628896+569889086+575683341+580302941
1576+587320693+595704525+601899775+608237872+616616182+624703737+631518296
1562+636096153+638647011+647153245+661649893+673271206+682835214+692175519
1549+701790275+709778305+715285618+719111247+724652743+737919124+751396060
1535+759635599+766988017+775836281+783684685+790737343+797624541+802991176
1522+808807125+817343795+826531721+835832255+845334799+852956016+856893464
1508+858606899+866023411+880515063+891569591+896648627+898902354+904429125
1495+912190231+916642268+918894417+923095930+930048602+937335284+943545193
1481+946861164+947729615+949512534+951793081+952530058+954121945+957754702
1468+959801555+959281838+959889905+961644623+960105983+955798238+956429839
1454+960116172+960472466+958975701+957171747+956181945+956030224+953899163
1441+948398884+940293711+931282091+926632054+926134819+924354268+920836287
1427+917914147+917350781+919869033+922112899+922955713+927966383+936546769
1414+943351138+947796864+949952972+949877177+950512591+953979953+958952825
1400+963259189+966075821+968437619+973362371+979730510+981583767+979255757
1387+978373501+980557876+982826919+984221398+985983149+988344553+991270045
1373+993843911+994793876+994928572+996134451+999508993+1002249634+1001194292
1360+998749665+997058581+995220838+993526402+993389011+993999642+992638624
1346+988652728+984500188+981656275+978919118+976315079+975417046+974737457
1333+972567677+970809541+970692069+971850946+974736471+978301979+980708282
1319+981898647+981848030+980937967+982248959+986986164+990900472+991105703
1306+990483634+991855762+994155110+996284463+998559554+1000723615+1003152268
1292+1005625096+1006996304+1008344043+1011449853+1017150235+1024014557
1281+1028045746+1029819198+1034128257+1040028546+1043254457+1044503525
1269+1045578128+1046397408+1048094999+1050279834+1051356408+1052735439
1258+1055325279+1058047842+1059795065+1060075630+1060986548+1064175843
1246+1066874938+1067925349+1070086781+1072287261+1072122064+1071231196
1234+1070489946+1069870441+1069946630+1069857622+1069527819+1069771901
1223+1069616104+1069244822+1070985997+1073741823+1073642757+1071355833
1211+1070774982+1071763666+1071247696+1068703609+1066817484+1068846587
1200+1072364239+1071202009+1067932317+1068503046+1070094144+1068797745
1188+1067183047+1066647028+1064829137+1061811941+1059727093+1058190228
1177+1055974563+1054875309+1056342756+1057749790+1057146259+1056813301
1165+1057737366+1056575662+1054233453+1054653710+1053923832+1049798902
1153+1046845208+1044736694+1042328749+1041334477+1041138778+1041967524
1142+1044046522+1044527453+1043328805+1043499721+1044155251+1041477126
1130+1035918801+1031515278+1029756748+1030152287+1032045184+1032232205
1119+1028269514+1023328723+1021473822+1021853782+1020994731+1018891937
1107+1016988062+1014698509+1013806787+1017133801+1022824652+1027318497
1096+1028766223+1025916591+1022107856+1021516617+1020583546+1019848475
1084+1024263831+1026140031+1019840061+1014624555+1016957034+1025245679
1072+1034287998+1038978858+1037896301+1033332445+1031054725+1035508208
1061+1043024837+1044384344+1037663001+1030632430+1028917024+1032090082
1049+1037428517+1041722785+1042647310+1041393246+1039045055+1035863977
1038+1036242556+1040920991+1043567431+1042983949+1041403895+1036535283
1026+1029170308+1025170870+1027308768+1032933356+1036024572+1034687942
1015+1034152317+1035256304+1033394633+1030677460+1031787955+1032925073
1003+1029859035+1027103012+1030395711+1039169429+1045065313+1043256429
991+1041606431+1043808422+1044082611+1040436970+1035787261+1033702019
980+1035991638+1040866298+1045492801+1049525831+1054460114+1058898741
968+1060949669+1062359070+1062576594+1059847194+1056626279+1054674154
957+1054794387+1058388228+1063994146+1068103299+1067464796+1063865827
945+1061866240+1061764282+1063829869+1067103505+1068736346+1069302868
934+1067593772+1062734625+1060235897+1064067180+1069583104+1070511508
922+1068407661+1066639665+1065117328+1064312510+1063809951+1062304574
910+1062274006+1064235795+1064317703+1062746655+1061770527+1062337969
899+1065209360+1067997068+1068388137+1068739041+1071098670+1072615288
887+1070832830+1067779150+1063548975+1054472210+1044408009+1041284188
876+1041966143+1043098529+1049105969+1056180517+1055161133+1049843800
864+1048530836+1049472649+1049626605+1049368128+1047512767+1045551307
853+1045932450+1045646757+1039713797+1032417452+1030771990+1033169352
841+1039712417+1049465813+1051401307+1043384945+1035470278+1030434693
829+1026717793+1027539571+1032823575+1035488816+1033133131+1031445531
818+1031474850+1029510366+1027617601+1025984497+1022645321+1022948237
806+1026959508+1026631152+1023019036+1021993802+1024367038+1028221198
795+1022450740+1005575596+998854318+1007781926+1016243394+1017021062+1014290019
781+1010321412+1005815076+1001089836+997309959+995205193+993000703+989970294
768+986734654+984007226+983952007+985298367+984793638+982677039+978530810
754+972425356+969649744+973390967+974960700+966250879+955276221+950338716
741+950441069+953072389+955583870+956548626+958105804+959164038+955479545
727+948597935+941524702+933833343+926265767+919493083+913584512+911455357
714+914598702+919049030+921407147+925343478+934549876+941976972+940788250
700+939357813+943751673+946409617+942108117+936693559+934520492+931165736
687+925274651+920981303+919409663+920472301+920815974+920024041+924781689
673+930372488+924346642+909023351+905195881+920884341+938620507+946618134
660+940771159+928614353+922241284+926378835+933070465+932995854+926254987
646+919383697+923287816+938184408+949974533+955802774+962632124+966949203
633+952769736+907146232+858490281+849702101+881777016+906210006+898496757
619+886079304+875544229+871200001+881064690+895387661+899711182+898251887
606+896078293+885597123+877564393+886600467
##END=
