##TITLE=Sample description
##JCAMP-DX=4.24
##DATA TYPE=INFRARED SPECTRUM
##DATE=12/9/2023
##SAMPLING PROCEDURE=Instrument type and / or accessory
##ORIGIN=Default
##XUNITS=1/CM
##YUNITS=ABSORBANCE
##RESOLUTION=4
##FIRSTX=4397.6552
##LASTX=599.8556
##DELTAX=-1.9287962
##MAXY=1.8598986
##MINY=0.28506708
##XFACTOR=1
##YFACTOR=1.7321655e-009
##NPOINTS=1970
##FIRSTY=0.29787937
##XYDATA=(X++(Y..Y))
4398+171969344+172720834+173354365+172998251+171953119+171363874+171517568
4384+170991880+169450617+169103381+170412889+171141961+170989729+171386877
4371+172065263+172116655+171664450+171563334+172542949+173726171+173970089
4357+173252786+172012374+171420978+171361792+170790802+170628918+171340406
4344+171934434+172268439+172884490+173694668+174323192+174948465+175126230
4330+173998856+172320382+171762106+172537925+173344868+173455498+173111135
4317+172632107+172159031+171810625+171719713+172045442+172990027+173692465
4303+173335663+172917369+173345057+174186445+174694912+174878577+174584299
4290+173177048+171571008+171092134+171646745+172487617+172859525+172815342
4276+173021306+173300599+173089904+172808615+172976762+173038735+172641742
4263+172792769+173965495+174946745+175080464+174749693+173963224+172983919
4249+172911193+173929399+174359375+173653977+173017521+172671076+172615590
4236+172885953+172969553+173068930+173223674+173250497+173559159+173969435
4222+174348432+174953730+174961300+174187219+174079876+174610571+174666678
4209+174401356+173855812+172867543+172052032+171885829+172559483+173689472
4195+174144103+173766568+173665763+174063565+173953796+173136134+172513511
4182+172227044+171840339+172087440+173302061+174267034+174525096+174429779
4168+174375135+174590940+174098131+172681761+171915267+172356014+173123265
4155+173433234+173107040+172621749+172336073+172382940+173126516+173990323
4141+173987157+173477796+173096941+172894280+172677408+172406150+172273291
4128+171932610+171221793+170728605+170843312+171414578+171945824+172342112
4114+172658069+172682862+172688574+172664143+172098452+171422957+171456868
4101+172017277+172560997+173026760+173402936+173689420+173780625+173169048
4087+172045236+171549088+172093290+172879656+173240794+173046219+172469689
4074+172093204+172009380+172101136+172500366+172313552+171239996+170708802
4060+171089795+171643631+172266048+172660151+172124827+171048880+170773614
4047+171396822+171678110+171570750+171643339+171350678+170804325+170815956
4033+171233424+171636732+171833663+171760420+171540744+171179554+170852655
4020+171121108+171906716+172279623+172179041+172103304+171753125+171418518
4006+171767010+172040487+171687057+171389011+171376485+171396702+171629592
3993+172264947+172853607+173165177+173532130+173556768+172890357+172114556
3979+171747757+171963029+172407337+172475212+172162352+171897615+171935725
3966+172274444+172735562+172989631+172914565+172717685+172538304+172206449
3952+172039025+172799806+173824344+173878093+173432666+173321968+173288349
3939+173069997+172732551+172251819+172039145+172228403+172071508+171515297
3925+171420531+171854327+172121077+172357735+172825580+173156918+172917748
3912+172219405+171685216+171181292+170390143+170087538+170638536+171735490
3898+173029616+173002707+171069510+169882228+171238654+172145818+172122178
3885+172631952+172032556+171264875+171991005+171387531+169411561+168126949
3871+167864001+169120913+169762221+169173699+170392914+172692445+172973940
3858+170298457+165554577+164572656+169971093+173390789+173209067+171412238
3844+169726520+168435749+167200034+167630939+169987988+171287638+171066946
3831+170820137+170888080+171002874+169914333+167365634+167393111+169505450
3817+170275092+172096731+174173404+173530857+170587900+168635295+168842102
3804+167997497+168244444+171390422+173022046+173535812+174378284+174649421
3790+174430501+173922809+173427298+173649022+173853575+174022049+175580018
3777+177190222+176756633+174812337+173770612+175036040+177026067+178722125
3763+179290517+178565781+179001314+180644982+180543557+178474128+178738779
3750+184285198+188695073+190953226+196196574+201752886+204466342+206492551
3736+208889637+211235020+214955206+219154644+221634727+223020024+224365009
3723+225397272+226362417+227638633+229310329+231592191+236044287+244931774
3709+255797846+265296549+273518004+283143647+295934968+308136442+316879491
3696+322716334+325618583+325199463+323072827+321884151+320007438+314954982
3682+307642342+299778756+291601657+284864309+283143423+282270326+279760288
3669+279342115+279928263+279463326+279153098+279329108+279164523+279014906
3655+279063597+277234559+274099489+275179153+281111347+285536586+287169088
3642+288168265+289854017+291746938+293178138+294035097+294142389+294504869
3628+297109088+299029606+298106510+295488355+293243518+293134231+293242211
3615+292074216+291709189+293499119+296667774+299934739+301955735+302615384
3601+302965373+303457718+304024700+305155394+306450260+306631328+306043975
3588+306190564+306468773+305839233+305198716+304926770+304618074+304662223
3574+305304150+305765113+306117820+307216994+308031284+307234853+306093595
3561+305599943+305396611+305550288+306146175+306347751+305934275+305940193
3547+306960292+308040884+308075536+307508657+307354877+307571147+307555525
3534+307541210+307591552+307487220+307841613+308541006+308412552+307705004
3520+307405529+307152888+306358074+305386770+304927183+305162551+305578195
3507+305751968+305799420+305589138+304789576+303749244+302927831+302603409
3493+302775875+302735133+302416457+302570341+302990527+302837917+302223036
3480+301919088+301735508+301108584+300589811+300833334+301100360+300494460
3466+299824522+300117046+300692045+300501032+299759314+299162189+298833776
3453+298615889+298217002+297535709+297053034+296943505+296948219+297045188
3439+297163147+297166829+297300273+297758792+297990478+297332619+296112836
3426+295294314+295114760+295202610+295561030+295888755+295730329+295525243
3412+295481748+295078767+294390075+294050582+294389972+295213897+295639245
3399+295176389+294707409+294669592+294423282+293859397+293541307+293863285
3385+294347062+294287154+294067649+294091186+293900036+293451289+293391896
3372+293942223+294491758+294513540+294356112+294510547+294781839+294728709
3358+294478063+294623860+295275664+296130351+297088958+297522014+296784804
3345+295854620+295861502+296607108+297481134+297941650+297944127+297701052
3331+297045911+296348135+296205297+296289947+296288261+296335644+296331308
3318+296314929+296365340+296238503+295815977+295100377+294631362+295216271
3304+296084929+295967349+295559240+295948182+296791170+297185411+297122749
3291+297799362+299261051+300150975+300288238+300441261+300728245+300895755
3277+301303794+302071114+302660703+302948030+302806603+302273791+302379294
3264+303611155+304828941+305251502+305057840+304272662+303332395+302752751
3250+302383458+302044686+301862208+302038974+302421240+302343920+301666240
3237+301201458+300929890+300254000+299508290+299292227+299675835+299913336
3223+299593318+299347215+299292192+298958479+298749745+298976992+299149630
3210+299169553+298624595+297486571+296530923+295772103+295228624+294770896
3196+294226350+294186710+294584460+294401878+293400499+292433220+291636962
3183+290375749+288927274+288417896+288723874+288399452+287212858+286509628
3169+287061555+287449103+286275035+284571475+284099501+284838965+284892147
3156+283373905+281828633+282057790+283171760+282699528+280899103+280471639
3142+282116580+282577337+279835785+276907350+277142236+279130009+278455804
3129+275026422+273370899+275585695+277498419+274878543+270922335+270759023
3115+273818304+274137306+269791057+266234097+267085309+269362646+267273431
3102+261679939+258907917+261009864+263399190+260660305+255524042+254391576
3088+258147170+260546372+256547840+251190145+250389448+253133254+254100979
3075+250987330+248015056+248675927+251635021+252374847+249568294+246834192
3061+246810036+249004925+249593912+247072467+244913760+245023891+245825018
3047+245291329+243852799+243050880+243054648+243048506+242376779+241323698
3034+240429473+239848572+239439948+238838539+238077189+237711251+240100698
3020+251444095+271803020+284737919+278722210+264606585+253474330+246665322
3007+242288344+239180957+237068446+235806786+234980917+233940018+232979139
2993+233023409+234411045+235862118+235574257+234193038+233668381+234939298
2980+236749564+236334213+234059611+232787112+233533681+235358830+235721981
2966+233642092+231611271+231818216+234702502+237063199+235015328+231270040
2953+229952910+231599021+234201210+234083406+231271124+229132822+229511492
2939+232148866+233608266+231516316+228654775+227974170+230080968+232463911
2926+231249187+227703325+225637750+226190933+228072601+228063035+225494482
2912+223483103+223698702+225392713+226338124+225004563+223015327+222409255
2899+223568871+225235749+225087062+223174372+221788559+221952766+223072586
2885+223679484+223060285+222306867+222353356+223070092+223677849+223404321
2872+222688307+222353338+222435752+222755167+222969441+222669468+222078622
2858+221674385+221523134+221261752+220547029+219612183+218979150+218851504
2845+219012150+219062424+218883558+218746518+218809008+218901159+218984811
2831+219175858+219322962+219197915+218926709+218841973+218903464+218851470
2818+218736608+218561820+218242714+217919824+217658493+217559150+217791559
2804+218174513+218478426+218655847+218620507+218471200+218480164+218621763
2791+218583498+218262087+217960342+217916864+217957348+217904993+217850848
2777+217850177+217795946+217637967+217486252+217337615+217096226+216952769
2764+217015912+217060319+217044352+217027353+216920474+216762788+216740542
2750+216962644+217292280+217391864+217149493+216852238+216714218+216619211
2737+216462437+216329939+216366070+216570812+216737669+216795977+216868274
2723+216944476+216955917+216940759+216838354+216545830+216357381+216533649
2710+216706269+216605360+216504521+216608612+216813183+216959651+216998242
2696+217031035+217146293+217147687+216836134+216488279+216506224+216808778
2683+217013125+216951358+216758676+216614221+216496400+216304148+216093023
2669+215983718+215981154+215962074+215825826+215590940+215317480+215079479
2656+214966544+214887641+214673143+214497065+214555305+214617312+214430601
2642+214114506+213923597+213842233+213709925+213543499+213360211+213089831
2629+212823408+212678299+212533104+212271206+212067427+212090964+212139603
2615+212003750+211757268+211500342+211316401+211204498+211016806+210702036
2602+210421023+210287356+210122031+209818926+209582904+209533233+209504758
2588+209340861+209139302+209032698+209015132+209017781+208966561+208817805
2575+208587306+208337727+208014372+207632295+207430821+207433075+207403500
2561+207173465+206819691+206562198+206438423+206429408+206531194+206569871
2548+206435378+206183235+205895770+205666028+205544043+205480418+205312547
2534+205023895+204840745+204803977+204772991+204722235+204633903+204516099
2521+204536040+204737909+204857503+204716299+204479366+204323297+204208263
2507+204053605+203862283+203742500+203785685+203888916+203952868+203997155
2494+204049046+204114202+204116370+204094227+204260292+204592490+204877426
2480+205102178+205286773+205297423+205160539+205086436+205118162+205086625
2467+204995024+205033306+205176694+205318603+205387441+205344807+205364489
2453+205516360+205664721+205792762+205969133+206155036+206270483+206374988
2440+206531469+206698911+206806598+206820156+206833180+206922493+207036821
2426+207137851+207245469+207383043+207586202+207835712+208030390+208125466
2413+208107469+208034037+208087167+208343078+208676068+208875425+208935970
2399+209153599+209806332+211288804+214671956+221610399+233635519+251513707
2386+274758295+301536203+329435875+356936867+384227680+412577785+443016125
2372+475121273+507251335+537785748+565848285+588239769+600198649+604425426
2359+604023167+591841995+566075773+535696000+508110255+492578191+497129183
2345+516552143+526985056+519074638+506464849+496255570+491241825+493627057
2332+499177432+499723320+495313824+492636310+492451595+489021489+479588786
2318+465704364+451531307+445328440+449233892+452356023+444058659+425055128
2305+403415685+387203257+377088985+368353300+358626490+347422370+333936490
2291+319405083+306217714+294864974+284827094+276232561+269247130+263661380
2278+259084460+255017881+251133850+247539417+244545499+242141583+240048136
2264+238105957+236272618+234544403+232990202+231649501+230475812+229383933
2251+228349192+227476508+226731040+225983059+225325268+224806634+224332560
2237+223941623+223687966+223484979+223275040+223071313+222886288+222791487
2224+222808090+222825571+222790730+222721083+222647170+222684040+222894925
2210+223139807+223275350+223416003+223740064+224139466+224450193+224733322
2197+225080954+225408129+225554511+225584723+225707328+225939186+226184395
2183+226454242+226730128+226860509+226840258+226815672+226793718+226748451
2170+226762233+226816584+226834942+226853369+226841153+226714368+226484007
2156+226177616+225862691+225649415+225489458+225258770+225006318+224883937
2143+225051877+225450350+225850854+226249482+226632815+226931549+227270992
2129+227727980+228157096+228448088+228704050+229000978+229324678+229650872
2116+229940298+230187813+230443534+230766322+231094976+231352986+231534536
2102+231742083+232084622+232457391+232818769+233232280+233711429+234271184
2089+234899691+235554076+236197293+236918571+237867389+239139699+240613156
2075+242043531+243524953+245265366+247249629+249483627+252032394+254683239
2062+257327134+260279983+263589050+267028291+270478612+273952660+277556091
2048+281267416+284928794+288423264+291791843+294883797+297505084+299777242
2035+301665036+303108899+304225038+305027111+305469389+305613879+305452907
2021+304896592+304104704+303083091+301680039+300115601+298612551+297052139
2008+295244247+293325106+291590783+290043929+288520732+287060058+285788626
1994+284593447+283306099+282045884+281007737+280093124+279188231+278409299
1981+277787450+277263653+276828154+276384139+275923899+275649733+275601025
1967+275640494+275703603+275763615+275908156+276232062+276662743+277112368
1954+277509551+277891369+278392799+278991627+279589716+280276463+281189356
1940+282131704+282908555+283651184+284406357+285091401+285760581+286488638
1927+287192539+287829821+288480489+288986701+289278124+289728970+290345055
1913+290714107+290796520+290882478+291196508+291656060+292009214+292194412
1900+292395059+292657680+292912524+293171979+293273008+293271115+293597430
1886+294181995+294637211+295017688+295539557+295976398+296071716+296049314
1873+295972854+295606933+295321498+295826816+296738384+297309701+297321298
1859+296897911+296421154+296130317+295938650+295851420+295840202+295348407
1846+294199407+293511714+293579261+293321114+292772611+292515393+292217363
1832+291076174+289608671+289218800+289516795+289643632+289583035+289463906
1819+289453961+289270037+288658460+287889626+287262014+286996984+286952096
1805+287070003+287395182+287275176+286679513+286416307+285950871+285097904
1792+285505668+287098753+288202555+288796859+289010995+288851950+289039452
1778+289511633+289124928+287611693+286824949+288758835+291612427+293145311
1765+293206149+293007875+293742780+294874437+295681191+296259218+296504358
1751+296441146+296572216+297444384+298838421+299837598+300035940+300448143
1738+301129746+301085735+302030613+304949103+307254192+308717566+309850600
1724+310808209+311183972+310251826+309158571+310773180+314287694+316917652
1711+318326142+318622829+318505455+319057743+319307426+318821550+319833011
1697+322519162+326321451+330091085+332243460+333484164+333445246+332034726
1684+333775208+339410543+343315100+344664783+345370989+347085457+348844383
1670+350913175+355152546+359290406+361671749+364405180+368554085+372015917
1657+372943314+371811760+374514393+381117971+384245332+387227413+393708558
1643+399839508+403539529+404944440+404746924+407166909+413547885+418200664
1630+420294128+421959905+423702762+425335367+427960990+430272032+431064299
1616+433166228+437295176+440497794+442664105+444940186+447693300+450833359
1603+454503615+458412783+462138716+466018428+470510235+475401202+480252873
1589+485089369+490106692+495553630+501637541+508112560+513727525+518195829
1576+524358917+531769558+537199876+542656827+550402557+558615960+566031280
1562+571143817+574247470+583462355+598536829+611236980+622307932+632775324
1549+643062956+652142712+659807508+666286864+674009057+688431245+702608913
1535+712398350+722203134+733410145+743087129+751293959+758736327+765366538
1522+773566899+784345981+795997920+808341716+820127098+829969252+837249477
1508+842566791+852345836+866736711+877196258+884094801+890072108+896814153
1495+903136459+907550291+911495384+917306350+925589503+933588288+940023804
1481+945649367+949612078+950562151+948810657+947019661+949021318+954620798
1468+959150249+960401690+961099328+962558538+962372102+960389164+960466450
1454+962047474+962272106+961467313+959262221+956683431+954576890+951457511
1441+947016633+941064859+934089511+929875122+927005425+922133108+918725163
1427+917995936+916061861+914855361+918196756+924289682+929674164+933610379
1414+936024412+937350454+940029447+944890065+949803331+953751796+957051072
1400+959856421+963370694+966835141+969571050+972752023+974186940+972940111
1387+971379527+971197840+973251801+976701864+979012872+980549369+983251073
1373+986395572+988672375+989868690+990250990+990388976+990426966+990337774
1360+989826021+989816593+991314962+992373842+991152545+989467189+989568287
1346+989528852+986288899+980604150+974781209+970452784+968705420+969216622
1333+969461900+967638488+965647361+965285982+966700115+969588806+971845170
1319+972479974+973431424+975046376+976027970+976801586+978630021+982047945
1306+986676568+990612025+992751256+994207851+995343328+996386929+997962379
1292+998784583+999130959+1002010565+1008132052+1015673383+1021668446+1024444821
1279+1027629304+1034354970+1041564034+1045131437+1045946965+1047632941
1267+1049556762+1048690444+1046430708+1046542955+1050010017+1053795720
1256+1054652059+1053726968+1054136178+1056844007+1060477341+1063130733
1244+1064759174+1065803188+1066197050+1066907764+1067469894+1067403963
1233+1066984637+1064526559+1061257220+1060228897+1061014213+1062560482
1221+1064405916+1065268793+1065276914+1066723186+1068715622+1067605953
1209+1064983806+1064600748+1064818498+1062605216+1059157561+1056873118
1198+1056150429+1056815653+1058023048+1057149434+1053634129+1050687972
1186+1049486496+1048472144+1047490275+1046291552+1044842527+1044572060
1175+1045133983+1046110828+1048241456+1048899866+1045181332+1040273228
1163+1038982216+1040793583+1041482206+1040048252+1040003794+1041110779
1151+1038296759+1032416696+1028628378+1027496755+1027604116+1028959200
1140+1031942795+1035568696+1036693850+1033500282+1028300790+1023982000
1128+1021317872+1020666688+1020958695+1019186762+1015682055+1014144939
1117+1015701256+1018895649+1022575093+1024663121+1022837783+1018828342
1105+1015776133+1013901175+1013518461+1015363001+1019308437+1024042493
1094+1026000587+1025581261+1025077216+1023232402+1022305452+1025312928
1082+1030186209+1033630492+1032948958+1028482546+1027388981+1035517837
1070+1046971296+1054513110+1058535488+1057037187+1049412582+1042681824
1059+1042881129+1047930110+1050763469+1047962387+1041017389+1035414400
1047+1036723581+1041967118+1044967850+1046432704+1047674578+1048008359
1036+1049226972+1048971096+1041997744+1031534205+1027121405+1032575191
1024+1039074917+1037332371+1031336895+1028360596+1029961027+1033455893
1013+1035109592+1033373101+1030363767+1028718052+1029751329+1034428126
1001+1039172643+1040345559+1041941104+1045468178+1046879558+1046734621
989+1048453425+1050973442+1051624144+1050368712+1048110214+1047824608
978+1052765539+1058167916+1057523820+1053641080+1051940651+1054978064
966+1060166132+1061710268+1061523350+1063987760+1067135493+1068060447
955+1066706119+1063770905+1059674819+1057111032+1058285531+1061080900
943+1063898912+1067339616+1069851650+1067605884+1062116105+1060225112
932+1062091949+1062660961+1063024266+1065877377+1068757603+1070381709
920+1072099961+1073741823+1073561994+1068775565+1063158467+1064601436
908+1069442096+1070137532+1068315153+1065674699+1063630854+1064878165
897+1068009932+1070646188+1070110003+1065543664+1060996044+1058813800
885+1058669620+1060142251+1060540174+1058405417+1056492814+1053960753
874+1048963801+1045283050+1044041864+1043194815+1041947435+1040400616
862+1042055553+1046605375+1046861114+1041533890+1037050824+1037950521
851+1042521609+1043606571+1037496922+1030309880+1027513410+1028329901
839+1030905732+1031739773+1029036761+1027154027+1027880225+1028477729
827+1028075539+1027462276+1027852077+1028750948+1028145805+1026676616
816+1024684455+1022135809+1022771646+1027495516+1029643969+1025224562
804+1019855977+1019758526+1022329058+1021333632+1019684750+1019495355
793+1013202986+1003394486+999631425+1001683046+1006204721+1008035771+1002170161
779+994125954+990500329+990554697+991990922+992441149+989435806+984407265
766+982094193+984000602+985271725+982602298+979931150+978998076+976013242
752+970637293+966765563+964776775+961783614+957596410+954754104+954949418
739+956063905+954515777+950519964+945993334+942516637+940365018+937858903
725+934817086+932066037+927696388+920594960+915870883+916823365+919650667
712+920732395+921257430+925457917+932815566+938340650+940697974+939968266
698+937127336+935199799+935656357+938229435+940500733+939778801+938252077
685+939192103+940307002+939183913+938753232+941775986+944806172+943404152
671+941226794+941470696+941200574+940156835+937688915+931571902+925132050
658+924833642+931360140+939061481+943086474+942941469+941264784+938782343
644+934890587+931744643+929229856+925214360+926336761+942238187+961678318
631+965402358+954809230+939362916+930360447+927845729+922799020+923114908
617+929851241+924348042+909176599+904094034+907203640+903898238+901140032
604+910971932+922878095+921671801
##END=
