##TITLE=Sample description
##JCAMP-DX=4.24
##DATA TYPE=INFRARED SPECTRUM
##DATE=12/9/2023
##SAMPLING PROCEDURE=Instrument type and / or accessory
##ORIGIN=Default
##XUNITS=1/CM
##YUNITS=ABSORBANCE
##RESOLUTION=4
##FIRSTX=4397.6552
##LASTX=599.8556
##DELTAX=-1.9287962
##MAXY=1.9554504
##MINY=0.32942942
##XFACTOR=1
##YFACTOR=1.8211551e-009
##NPOINTS=1970
##FIRSTY=0.34482476
##XYDATA=(X++(Y..Y))
4398+189343982+187922953+186726723+186294110+186134491+186504984+187247900
4384+186939347+185737291+185329684+186120957+187268094+188438500+189533483
4371+190110561+190381787+190594182+190380854+189614569+188226498+186642380
4357+185915730+186505164+187764217+188300384+188074373+188242290+188346417
4344+187773266+187648225+188448826+189061121+189087272+189131865+188989412
4330+188454259+188260094+188367773+188294885+188347055+188472228+188820252
4317+189909703+190595949+189539243+187534017+186557726+187253497+188366578
4303+189408949+190330958+190186280+189206651+188457254+188480164+189546771
4290+190873098+190815561+189577912+189547360+191040851+191687511+190748695
4276+189707258+189379116+189517347+190260656+190933925+190038132+188487430
4263+188230098+189080808+189995191+190566984+190472970+189950532+189904319
4249+190150572+190082921+189620967+188791352+188571282+189732344+191208276
4236+191530150+190802502+189873848+188790812+188051414+188463800+189695557
4222+190884030+191155206+190317376+189433446+189431581+189844098+190116698
4209+190490905+190771573+190864049+191092514+191210715+191269692+191517173
4195+191325659+190469173+190044432+190314463+190064413+189378216+189202445
4182+189506285+190260771+191007549+191045875+190790359+190533698+190225816
4168+190347159+190709404+190276595+189498512+189797982+190698293+191014161
4155+190850614+190705166+190771540+191051455+191649546+192292000+192316891
4141+192191391+192587232+192690493+192015898+191325021+191012999+191081370
4128+191202549+190721727+190129675+190104293+190097960+189889689+189818274
4114+190064691+190793812+191538627+191731025+191474609+190939587+190289409
4101+189872801+190106634+190637057+190803975+191284306+192434061+193015230
4087+192440999+191525568+190922699+190646090+190924434+191927546+192732206
4074+192354562+191475394+191344577+191825137+191978603+191637076+191199145
4060+190772228+190702907+191185759+191353839+191165778+191692682+192480143
4047+192402821+192022640+192014540+192023917+192107359+192193339+191749746
4033+191137304+190891509+190810160+190699536+190541079+190387301+190535580
4020+190702809+190297886+190028935+190794729+192068150+192774050+192614185
4006+192100879+191622201+191455430+191763606+191883378+191167316+190434317
3993+191007337+192475250+193450395+193483484+192760025+191713449+190855065
3979+190442221+190404942+190427574+190699618+191345264+191537923+191201763
3966+191183615+191559770+192139614+192764526+193006262+192788336+192609897
3952+192816385+193014641+193079248+193003791+192792214+193234384+193633678
3939+192724465+191335789+190525205+190651621+191542424+191731417+190602789
3925+189962740+190261949+189673481+188859559+189713542+191386306+191963843
3912+191581715+191125570+189745321+187231699+185920639+186621826+188290205
3898+190381197+190923976+189159324+188228134+189847223+190655352+190670784
3885+191364410+190324102+189251768+190606406+190576099+188580904+186780709
3871+186201275+188265347+189639967+188611539+189070694+191112839+191217146
3858+187775377+181784868+181022560+188301889+192593778+192588345+190833464
3844+188708204+186797074+185680932+186929512+189399016+190035775+189767234
3831+190080467+190310650+190329044+189228088+186362645+186232089+188733012
3817+189676230+191323810+192965940+191989617+189185410+187453504+187439839
3804+186312079+187010713+190653552+192014245+192624249+194091982+194310072
3790+193473027+192535831+191700767+191583760+191394701+191083644+192451456
3777+193935914+193128587+190592431+188997316+190173499+191985558+192885508
3763+192211994+189765515+188503566+189216911+187974844+183526920+180890367
3750+184135549+186294994+185918872+188804902+191899514+190587472+186990813
3736+185055578+186780006+190422731+192729604+192586987+192006783+192691458
3723+194050171+195930650+197987506+198932492+197892199+196088993+197223283
3709+201221298+204837627+206864700+208885161+213928820+219960748+223511422
3696+224839894+223830416+220272966+218131113+220634540+223132846+222438319
3682+219396941+215244658+210215269+206832609+208050506+208356817+207184577
3669+209311097+211954850+212309305+211922383+211841509+211150190+210372696
3655+210486511+208740826+204809202+204327529+209193403+213522260+214979487
3642+215016586+215313569+215640548+215234954+214047495+211588563+209430083
3628+212208582+216115512+216342520+214082663+212172302+213127220+214903163
3615+214998617+214609747+214458916+214606638+215950378+217260406+216974829
3601+216179530+216254872+216678402+217060710+217614894+217332737+215738408
3588+215448314+217587484+219240856+219506240+219437083+219640069+219976376
3574+220114198+219673992+218428964+217236612+217758002+219444300+220739879
3561+221578887+222128146+222121846+221592634+221153966+220845724+220025748
3547+219542634+220587541+222149109+222915885+222915983+222808599+223061431
3534+223454294+223415150+222989231+222686552+222469183+222338692+222563180
3520+222816209+222732340+222536784+222412250+222235088+222157029+222379210
3507+222568843+222470688+222422724+222493337+222188597+221771301+222061821
3493+222712768+222713783+222227119+222096481+222291448+222517933+223073753
3480+223776004+223855093+223350068+223050565+223288145+223504876+223276919
3466+223152107+223488266+223816457+223902256+224021062+224297410+224527053
3453+224602575+224377694+223790405+223626596+224282338+224894306+225292634
3439+226058477+226741238+226720242+226432308+226438723+226860699+227473435
3426+227737575+227362680+226997702+227551101+228682315+229430517+229591756
3412+229639312+229996729+230431796+230746584+231341745+232172375+232632300
3399+232674242+232759076+233153297+233829217+234433248+234697846+234847303
3385+235187194+235751033+236214313+236569635+237294632+238122955+238546992
3372+238773232+238901350+239118376+239790401+240559763+241113521+241761049
3358+242558786+243086509+243164290+243233855+243556400+243868439+244142773
3345+244570804+245087464+245561839+245931039+246192102+246447895+246733849
3331+247192203+248025206+248926972+249305140+249057038+248689376+248536515
3318+248515978+248491251+248169213+247737190+247956246+248584987+248874835
3304+249161836+249487392+249249272+249191750+250127277+251429516+252872261
3291+254714627+256198234+256785229+257414903+258892210+260781526+262273741
3277+262983437+263112210+263405380+264470792+265767320+266519040+267140826
3264+267967562+268300645+267941607+267535211+267525523+267942393+268160319
3250+267694896+267286519+267422329+267482403+267121287+266844988+267006752
3237+267376213+267895999+268388506+268239507+267507326+267089834+267290578
3223+267284114+266700702+266230370+266271969+266428021+266222564+265989844
3210+266173961+266266061+265958555+265468667+264779934+264268804+264133732
3196+263793906+263243813+262825585+262343274+261721488+261195172+260780937
3183+260384408+260025142+259494244+258825655+258457732+258139328+257437012
3169+256634627+256176322+256206515+256434031+256576467+256700068+256581917
3156+255958036+255390089+255469735+255821916+255849572+255662820+255702029
3142+255867065+255649368+255049805+254474216+253972071+253416070+252819387
3129+252253617+251887870+251553330+250911186+250323504+249990519+249277697
3115+248113001+247259854+246835898+246237300+245319824+244320819+243315874
3102+242512426+242028232+241406004+240415657+239383988+238379403+237543880
3088+237242724+237155632+236742575+236278691+236179112+235977109+235407362
3075+235190483+235420028+235285741+234711330+234417570+234567044+234673921
3061+234544837+234391289+234443017+234666687+234853554+234807766+234438501
3047+234044934+233917602+233921055+233907030+233864941+233743729+233495986
3034+233112549+232653181+232422687+232508797+232418972+231898384+231343218
3020+231050097+230950339+231189735+231605803+231403947+230540587+229793171
3007+229582330+229576947+229309485+228972261+228806947+228686750+228740883
2993+229154513+229730658+230304317+230861152+231213202+231350206+231447820
2980+231478307+231551685+231803126+231911083+231597032+231223544+231204300
2966+231299688+231124359+230808000+230569585+230235978+229948765+230089565
2953+230132964+229646119+229267804+229280536+229362784+229422547+229431662
2939+229479840+229726715+229997531+230012505+229733359+229356877+229078091
2926+228955340+228802545+228300662+227551510+226964826+226773623+226838770
2912+226756719+226655913+226943618+227296306+227306141+227116509+226907010
2899+226756784+226767192+226900006+226958444+226985724+227243285+227700182
2885+228155508+228479820+228546064+228415868+228450381+228793970+229055655
2872+229027295+228915346+228879835+228965437+228997234+228920419+229026461
2858+229284316+229352769+229097515+228535231+227813752+227212929+226943536
2845+227080556+227439675+227744366+227997378+228260650+228454095+228543266
2831+228599821+228745842+228960839+228954064+228705831+228638687+228841214
2818+229072919+229174412+229044560+228861866+228972540+229438519+229943954
2804+230190452+230262669+230456588+230942124+231393702+231339536+231055317
2791+231128761+231446200+231579341+231603561+231729731+231823467+231829539
2777+231948230+232136848+232190785+232186841+232071275+231646632+231244916
2764+231301030+231646747+231903948+232001808+232023245+232055991+232204941
2750+232401380+232479014+232509517+232670446+232915324+233091930+233187237
2737+233271416+233303163+233294588+233388995+233470916+233514429+233735399
2723+233977218+234110654+234302152+234509670+234583359+234592900+234677439
2710+234790960+234930565+235147330+235307424+235404825+235564985+235622883
2696+235411257+235295069+235617270+236104147+236464264+236705313+236836246
2683+236911817+237048330+237219454+237336918+237410559+237397860+237316021
2669+237344675+237429443+237396436+237317657+237213383+236968586+236692696
2656+236588144+236631559+236724247+236842955+236912652+236892344+236909363
2642+237005079+237027891+236904601+236760102+236681176+236571910+236408854
2629+236253555+236110103+236049489+236022373+235884371+235773142+235743194
2615+235542762+235173955+234913939+234900978+235087190+235219006+235031403
2602+234678437+234452443+234307486+234210330+234297029+234463047+234512894
2588+234438615+234279323+234084765+233910696+233842276+233986840+234217121
2575+234283120+234169992+233971703+233732912+233583291+233625413+233608329
2561+233269011+232869225+232617032+232349603+232189918+232284063+232302424
2548+232109781+231989469+231958327+231812863+231561521+231337556+231183598
2534+230992215+230780868+230683973+230585688+230342331+230077210+230005255
2521+230136826+230208911+230088501+229944117+229809503+229611230+229492146
2507+229497415+229509574+229548080+229645448+229688749+229594571+229463671
2494+229360837+229323018+229415249+229510261+229562546+229733539+230078012
2480+230438767+230579568+230473526+230331776+230365684+230541078+230642358
2467+230636451+230635223+230662307+230718601+230813989+230841678+230748122
2453+230722594+230880708+231092104+231295450+231575332+231895078+232087460
2440+232093793+232037990+232051736+232233284+232592845+232851143+232872629
2426+232875837+232906422+232884952+232853303+232927549+233172427+233413869
2413+233538550+233730343+234039010+234305572+234477890+234539306+234518654
2399+234587794+234786312+234951021+235070629+235292565+235554659+235614848
2386+235257937+234251536+232374002+229664644+226415044+222838759+219155319
2372+215490289+211656410+207776465+204167893+201059404+199048205+198662101
2359+199940120+202776402+207046673+212668392+218318045+221045797+219403487
2345+215366933+212619708+211957959+212227597+213138676+214495621+215676174
2332+216503973+217664904+219398725+221156176+222667373+224291699+226523197
2318+229175787+231459357+233008847+234229902+235588566+237098782+238560460
2305+239808042+240810843+241653010+242406171+243109812+243704221+244191981
2291+244762759+245479934+246141159+246525676+246706438+246856796+246898001
2278+246880606+247147904+247648593+247909181+247852806+247853706+248103346
2264+248403226+248527416+248572746+248711206+248914879+249136962+249397518
2251+249689232+249927073+250025621+250093239+250270728+250441983+250502270
2237+250576434+250745839+250918092+251038109+251178795+251352095+251476449
2224+251490408+251424394+251444850+251605565+251716288+251728561+251822003
2210+251985108+252094848+252232146+252441056+252633126+252787656+252940926
2197+253122278+253283812+253328356+253260542+253221349+253307099+253447801
2183+253639315+253934874+254168592+254222530+254247797+254319637+254414289
2170+254599830+254803797+254882020+254940310+255030119+255050263+255115132
2156+255325924+255518681+255616476+255749830+255956481+256129421+256232485
2143+256325779+256430218+256541022+256723421+256970034+257140470+257201494
2129+257235908+257282874+257328269+257411679+257597106+257773041+257852654
2116+257960545+258073771+258030896+257973915+258126743+258332020+258390703
2102+258418866+258503995+258538131+258545789+258673793+258858483+258924513
2089+258883815+258923286+259111511+259294924+259384962+259464870+259595786
2075+259748663+259899544+259999531+260016109+260058673+260166122+260214217
2062+260146419+260135291+260323647+260535109+260635145+260682144+260727343
2048+260798676+260842320+260828541+260860845+260995590+261104087+261147388
2035+261239372+261356002+261492172+261654622+261729146+261734514+261800675
2021+261918025+261928220+261894608+262081376+262394969+262608002+262807470
2008+263109100+263405658+263570989+263695834+263901176+264099006+264186589
1994+264218009+264375648+264709354+265041210+265330976+265585215+265769774
1981+265960339+266197608+266445040+266633428+266769433+266854954+266767322
1967+266688445+266983334+267495445+267872107+268062378+268147342+268314096
1954+268666146+269008999+269198320+269256284+269132453+268875399+269006299
1940+269773239+270618482+271153127+271392377+271493935+271647221+271873461
1927+271967589+271830815+271856998+272111172+272308642+272878471+273838119
1913+274415721+274525134+274690219+275166230+275771161+276252769+276515812
1900+276692745+276962334+277386928+277839701+277918349+277858324+278464564
1886+279405426+280026623+280522958+281081021+281575197+281965720+282277856
1873+282151457+281332576+280869657+281987583+283758845+284984776+285777801
1859+286482195+287095014+287582120+288000266+288397825+288635438+288369253
1846+287769330+288301406+290183489+291623533+292420289+293256647+293789835
1832+293332087+292741721+293437213+294734821+296152675+297841199+299109547
1819+299899658+300711829+301367555+301501253+301763053+302894856+304253831
1805+305007286+305074904+305021195+305727979+306921018+307265131+306842632
1792+307841751+310611151+312729995+313632662+314197892+314829694+315771766
1778+316832318+316885404+315680976+315186931+317302699+320451821+322804319
1765+323653375+323631578+324407485+325830151+327126286+328186314+328200551
1751+327333951+327474654+329312487+331391075+332557407+332949501+333734310
1738+334629482+334265011+334692551+337894301+341066824+343509327+345275189
1724+346302324+346574630+345243213+343011387+343614321+347633479+351561650
1711+353920203+354448056+354005822+354150026+354012106+352834548+353302475
1697+356100676+360592736+365206253+367428325+368055348+367395433+365215515
1684+366061986+371569595+375833992+377446322+378098121+379541176+380642181
1670+381564322+385042829+388930645+390617761+392176939+395284168+397624949
1657+396976848+393705614+394218511+400107151+402726979+404562293+410143967
1643+415761971+418680844+419116566+417889326+419248333+425331253+430398722
1630+432873560+434807290+437085034+439902873+444396798+448489269+450631351
1616+454371789+460692878+466025452+470244158+474778210+479986086+485265704
1603+490325744+495354952+500525550+505983280+511917414+518052242+523928052
1589+529511199+534976391+540928722+547902625+555141730+560684523+564738013
1576+571016227+578577485+583483894+588098688+595751455+604403637+611737166
1562+615895978+616977607+624326061+639137715+651502809+661961699+671632211
1549+680636492+687702690+692700675+696620107+702192814+715211376+728814609
1535+737418417+745289160+755080116+763674694+770335707+776570130+782417302
1522+788919644+797152109+805880876+815524944+825775022+833633852+837152812
1508+838902113+848226615+863652921+873782032+879458949+883932484+889505649
1495+896315775+901787611+904814981+907375308+913020149+920336463+926014753
1481+930680146+935697179+938504414+936874639+934507872+936924845+943119600
1468+947684187+948796058+950258522+952314495+949309249+940292336+936752756
1454+944073979+951044608+951309451+946858761+944446763+944171053+941908299
1441+938130910+933858986+927911401+920953405+914482744+909376164+907685252
1427+909640877+913376896+915305356+913315103+912386712+918828047+929335376
1414+937830261+942110957+943362384+944811233+947432108+950490113+953435202
1400+955174227+957492031+961864564+966041051+970125438+973571477+974267362
1387+974120867+976366406+979296113+980644614+982213382+985138899+987029132
1373+986742818+986221969+986259672+986234929+986629903+988572633+991468498
1360+992123668+989967937+988273162+988410624+988006552+985755973+984074093
1346+984171560+983293964+980331921+977432783+974359593+969812155+966107883
1333+964740006+964764880+965880286+967213994+967182116+966583305+967061935
1319+968271665+970404616+974267166+977586282+978504201+979393449+982178558
1306+985165737+986641031+988476213+991781322+993650673+993026923+992581350
1292+994389957+999053713+1006126457+1012927812+1016709455+1019877167+1026024530
1279+1032301566+1034997587+1036832900+1039704873+1041014820+1040732957
1267+1041741404+1044134813+1044974771+1043542025+1042873632+1044548050
1256+1047616069+1051045417+1054071478+1057186235+1060981755+1064236919
1244+1066311482+1067401620+1067802747+1069099995+1071771928+1073741823
1233+1072436066+1069306057+1069097966+1071328842+1072135548+1070483124
1221+1067067653+1064813736+1065995712+1068069031+1068131085+1067011948
1209+1066146069+1065415295+1064819561+1065260487+1067462562+1069878684
1198+1070011826+1068318230+1066702528+1065477677+1064614678+1064268994
1186+1063383804+1061828259+1061409589+1062393947+1061659377+1056570405
1175+1051330160+1050626748+1051549837+1051528105+1052575041+1054931270
1163+1055545332+1052988867+1049807474+1046819837+1043657755+1042258523
1151+1041731520+1039289934+1036718611+1037496056+1040343678+1041156602
1140+1039151098+1037210921+1037817390+1039920557+1040385768+1037503387
1128+1033520919+1032100675+1032275514+1030970934+1027438490+1022215722
1117+1017053044+1014013368+1014754615+1019180628+1022013653+1018704355
1105+1013293199+1009839827+1006338476+1002120554+1001650173+1006252987
1094+1010122083+1010893244+1012534670+1017492464+1024282691+1027918559
1082+1026582037+1025484108+1027683369+1028797007+1026791764+1026259852
1070+1027513570+1026529605+1022517745+1019513417+1021779051+1025468006
1059+1025903040+1027937215+1033249988+1034656551+1031800419+1031386200
1047+1033997912+1036438450+1037031828+1036577025+1036600393+1033604640
1036+1026698945+1022866637+1025872668+1031850429+1033098714+1026793793
1024+1018836777+1014497889+1014384581+1016728569+1021149868+1027714461
1013+1030084370+1025345337+1022112298+1023662345+1022326804+1016437084
1001+1015054348+1019869247+1022593873+1022220631+1023939691+1026908541
989+1028678200+1030692934+1032930814+1034318329+1037287638+1041584829
978+1043649376+1044487436+1045966330+1045388990+1041413721+1037963623
966+1038937312+1044923648+1052919154+1057374688+1056283568+1053417159
955+1054021926+1059342947+1064720065+1066416935+1065467204+1063822897
943+1062218389+1061022339+1062528071+1066488939+1066148426+1060441595
932+1056698376+1055892260+1054398965+1053067417+1054587746+1058787994
920+1062377321+1062752134+1060176948+1056809654+1055553711+1058264133
908+1063825843+1066141945+1061607862+1056591745+1056241348+1057907452
897+1058535129+1059329921+1062821912+1065759539+1063062078+1057722598
885+1053263202+1049313397+1047217561+1047839412+1049556050+1050549769
874+1052312947+1056059112+1057178052+1050878303+1041217151+1036553395
862+1037106646+1037682743+1038358859+1039211385+1036072670+1029492106
851+1025791238+1028201142+1032263273+1033369187+1034970880+1038632997
839+1038852347+1033780853+1028423568+1026032647+1023571751+1019405018
827+1016581681+1016000806+1017551049+1022394161+1026788491+1022693108
816+1013294377+1010586900+1015973510+1021462169+1022908006+1020928620
804+1017755802+1018033868+1020357171+1017838868+1013485907+1010319373
793+1002658489+995004673+997770931+1005388941+1005768467+1001473239+998405024
779+994965922+991699238+991095518+991253664+990936389+992095390+993471776
766+992157313+987928918+981444839+977160150+974306833+958812189+939192705
752+942591092+963051057+971008467+964066705+955668042+951240197+952529263
739+953748484+950606825+949124330+951233520+949706645+941999940+934678914
725+931658548+928970381+923204704+917501932+914646717+913108976+912104653
712+912217633+913926940+916582312+916454276+913607701+914118274+920526487
698+928841429+934553562+935357976+930739582+927816748+930765634+930558329
685+925690998+924293468+928536984+936875032+943825042+942959686+934545772
671+920912559+906816492+906554594+919048772+929096585+932769698+928299371
658+919187412+913648939+915258684+918345556+917754077+917041107+917391701
644+917062512+915412118+910215729+904799991+902940327+901755078+910169712
631+945559157+981844919+955273723+904143250+895936380+920500304+926873170
617+914421214+915476660+922442838+915497344+899089822+886016603+883450450
604+890313205+896482824+899887101
##END=
