##TITLE=Sample description
##JCAMP-DX=4.24
##DATA TYPE=INFRARED SPECTRUM
##DATE=12/9/2023
##SAMPLING PROCEDURE=Instrument type and / or accessory
##ORIGIN=Default
##XUNITS=1/CM
##YUNITS=ABSORBANCE
##RESOLUTION=4
##FIRSTX=4397.6552
##LASTX=599.8556
##DELTAX=-1.9287962
##MAXY=1.6800605
##MINY=0.13513137
##XFACTOR=1
##YFACTOR=1.5646783e-009
##NPOINTS=1970
##FIRSTY=0.18766773
##XYDATA=(X++(Y..Y))
4398+119940137+119459374+118302006+117386420+117476312+118347947+119444489
4384+119857121+118751713+117268738+117332612+118805969+120020563+119955308
4371+119343054+119218897+119449498+119515857+119067740+118346404+118295854
4357+119154870+119966974+120196471+120270049+120352561+120222699+119858921
4344+119706784+120127778+120402083+119893710+119410728+119568341+119462812
4330+118828663+119084987+120609066+121848631+121631534+120612923+120307457
4317+120914864+121291803+121010613+120501555+119685213+118468819+117833147
4303+118424535+119490487+120490222+121133218+120953739+120752994+121052802
4290+121123133+120974129+120888932+120953587+121029012+120639884+120382045
4276+120920769+121457426+120966072+119718955+119184298+120046514+121043545
4263+120974595+120749642+121135647+121127637+120593276+120297001+120254383
4249+120720833+121326916+120844895+120190652+120524878+120850933+120582733
4236+119722040+119081025+119742687+120623018+120986100+121465368+122024596
4222+122253330+122114411+122074851+122251406+122202199+121750691+121596382
4209+122387697+123310387+123240923+122067508+120835667+120584105+121079192
4195+121593944+122026776+122752865+123100814+122104336+120610780+120055028
4182+120552049+121117676+121335811+121490567+121483825+121322592+121211063
4168+121082439+120881513+120585771+120351818+120696558+121449197+121661999
4155+121173893+120726385+120767508+120858171+120653369+120753270+121549975
4141+122470884+122683334+121986568+120908398+120068771+119852179+120010316
4128+119786419+119291456+119479040+120480537+121359429+121445874+120978919
4114+120176196+119216782+118611185+118371184+118579024+119390738+120197366
4101+120704453+121082306+121234081+120848295+120098122+119944699+120401216
4087+120423472+120097284+119981098+119792209+119716841+120121912+120525773
4074+120615713+120146939+119276304+119096958+119526676+119564494+119329369
4060+119294732+119625892+120325066+120768146+120604951+120339028+119931014
4047+119346587+119408395+120002411+120165044+119783572+119284694+118880223
4033+118524198+118182067+118021854+118205438+118742828+119325759+119480697
4020+119339673+119346863+119556151+119883130+120021144+119772439+119563760
4006+119594712+119423042+118835215+118386031+118378736+118254579+117978951
3993+118100356+118549168+119003466+119259495+119087559+118514455+118016188
3979+117976903+118107994+118189686+118357499+118571739+118913841+119447288
3966+119578693+118829863+118084147+118162239+118579148+118638022+117823642
3952+116321201+115351045+115805781+116055830+114952936+115200070+117370182
3939+118576786+117687095+115014505+112845193+113904183+115613103+114450640
3925+112997197+113887374+113895260+111895922+112054221+116045297+119431137
3912+119340987+117053460+111937445+103917019+98727139+99781263+105057892
3898+112165027+115313942+111278745+107069753+109352728+110545904+107810908
3885+107234871+106719575+106773773+110602083+110626749+105973669+101763821
3871+99391611+101795143+104423439+103438970+105563617+110942957+111903103
3858+104596052+90774912+86363680+101371692+113870642+116428140+112093191
3844+105264475+99431943+95495094+96176917+101346664+105264085+107953493
3831+111186519+112560784+111622875+107768880+100181249+98279289+103095877
3817+105751744+111047077+117441732+117187275+110906691+106132873+105634024
3804+102351714+101160957+107189787+111275059+114467630+119166841+121359886
3790+120991319+119710984+118370194+118294892+117624002+116196606+118864233
3777+123991249+125448225+121868468+117650163+118047767+121309478+124950128
3763+126198864+122849813+120872513+123071891+121623277+112941780+106386226
3750+111959606+116745757+116477995+124613979+135779434+137297265+131571357
3736+128068845+135223139+150119755+162397941+167507548+169970164+174736240
3723+181520396+189337352+196710020+200688696+199113572+196215143+204179027
3709+223538425+242670784+255801701+264999618+277104210+292212637+304058535
3696+308501537+302390080+287261940+274703192+273897621+276332390+274293988
3682+267941588+258521165+245962684+236532490+240013203+244672597+245186255
3669+251222476+258968159+261792990+261400700+259698456+255971924+252481288
3655+251678097+246257055+233691945+228734181+239890541+252276838+257926901
3642+259310356+259691523+259163523+257403186+254403885+247990649+240507700
3628+244646789+255869813+260120231+256120814+250217940+250574728+254392152
3615+255492093+255570071+255649897+256181383+260274950+265011979+265613500
3601+264229093+264194885+264352041+264972780+267440806+267861838+263632124
3588+261935461+267537907+273009824+274887738+275405262+275481773+275280257
3574+275558285+274772447+270105453+264411125+265552493+271910797+276244070
3561+277968560+279134461+279504733+278239103+276956101+277137885+276786412
3547+275681538+276786717+279839921+282013595+282133096+281130141+280764974
3534+280827638+279569798+277290184+275969756+275995964+276725538+278021549
3520+279292150+279936946+279819960+278796168+277319002+276564287+277072726
3507+277397800+276658950+276790450+278158496+278502560+277889839+277955303
3493+278400297+278088670+277249805+276722700+276307744+275617788+275235287
3480+275436175+275758240+275935624+275943795+275824694+275336331+274427259
3466+273640106+272938608+272131932+271868799+272435083+273197246+273580109
3453+273480207+272736882+271565267+271042219+271138501+270982012+271191414
3439+272232671+273232483+273449256+272782690+271949348+271729013+271808534
3426+271562067+270995897+270624101+270982888+271761984+272000851+271664520
3412+271468794+271301886+270780895+270257600+270182536+270451878+270429612
3399+270046083+269855614+269706686+269613547+269966543+270399671+270549399
3385+270519495+270668099+270959232+271001744+271316171+272177111+272694026
3372+272418817+271776478+271346646+271362741+271628884+272087896+272883048
3358+273706790+274083443+274227000+274785837+275765420+276226661+276149483
3345+276768889+277885001+278465437+278597642+278630898+278707867+278876661
3331+279161279+279471058+279571931+279544637+279238590+278645164+278751960
3318+279960850+281112104+280985309+279760686+278859557+279208077+280325104
3304+281323030+281241756+280115968+279645928+280142482+280363750+280414929
3291+280752117+280664768+279940508+279445669+279394432+279298112+278992828
3277+278599242+278402582+278557491+278751141+278532083+278065166+278130021
3264+278555453+278060976+276616533+275655558+276060438+277110153+277193807
3250+276273592+275496611+274890480+274466953+274813169+275622378+275867931
3237+275462765+275359530+275884273+276487794+276528421+275990155+275505487
3223+275482231+275804867+275893092+275483354+274980820+274713877+274812312
3210+274972668+274676564+274096395+273727665+273480684+272735434+271418472
3196+270325502+269706058+269130345+268855136+269116479+268961094+267817573
3183+266497640+265501866+264553634+263587554+262737985+261952813+261062674
3169+260311501+260039301+259974008+259642839+258716168+257345169+256211953
3156+255755017+255870956+256034474+255675896+254924076+254451559+254147208
3142+253294344+252221164+251653946+251097642+249870734+248406120+247212201
3129+246309586+245754844+245436589+244935274+243854493+242395994+240934503
3115+239347818+237918441+237103956+236385581+235087933+233308397+231407780
3102+229547694+227704923+226029897+224912033+224005818+222745216+221509736
3088+220593465+219775761+218990532+218315985+217743910+217131113+216393997
3075+215505286+214641888+214073547+213596917+213056098+212751557+212609562
3061+212195996+211582970+211056456+210691193+210636185+210712697+210400575
3047+209672296+208841716+208090639+207587552+207296343+206776553+205733866
3034+204539967+203714530+203126951+202432081+201693269+200940591+200068394
3020+199147266+198330990+197734383+197237544+196607071+195840908+194949055
3007+193981585+193196280+192546856+191758332+190915353+190151913+189471881
2993+189230366+189699511+190414590+190868649+191039196+190957084+190648295
2980+190294956+190120238+190294003+190647191+190577117+189983786+189512070
2966+189250346+188779772+188138995+187411612+186575337+185954388+185750091
2953+185612267+185254699+184929035+184894731+184948425+184862066+184698053
2939+184472137+184096265+183635329+183104720+182208885+181060831+180401731
2926+180285050+180008945+179279143+178213372+177098136+176291060+175666454
2912+174952270+174447108+174246467+173998838+173846501+173972344+173976763
2899+173645022+173271645+173085804+173011693+172922305+172854708+172859050
2885+172848346+172925391+173202010+173292959+173025102+172850689+172856651
2872+172647191+172219893+171909789+171874153+171963902+171942779+171794079
2858+171526622+171108352+170545934+169755867+168832224+168096441+167725483
2845+167576403+167493720+167547927+167623887+167538309+167415170+167381400
2831+167446388+167557756+167570136+167428846+167250072+167087639+166901246
2818+166711310+166454919+166070552+165803400+165862674+165992155+165892482
2804+165741059+165826313+166119826+166484061+166725176+166655331+166523260
2791+166610247+166610190+166291230+165986384+165959908+166028744+166030382
2777+166077809+166098989+165895644+165578303+165263057+164905965+164645308
2764+164654584+164745076+164702335+164605957+164467638+164270617+164167078
2750+164252637+164390917+164286159+163974037+163828271+163862708+163834004
2737+163756026+163690047+163625231+163665553+163724408+163596832+163436380
2723+163345793+163142334+162903466+162838840+162805032+162641228+162469939
2710+162413865+162492243+162603058+162569859+162411808+162305564+162293088
2696+162301145+162311183+162328192+162343239+162317354+162265242+162271013
2683+162306478+162309126+162161607+161829848+161621093+161580295+161342722
2669+160887424+160510924+160303331+160166574+159986828+159694334+159422468
2656+159289015+159092880+158685218+158263767+158057269+157987015+157851248
2642+157608276+157264269+156935224+156737736+156488678+156093883+155649261
2629+155235133+155004560+154850470+154497455+154090745+153872353+153701074
2615+153395199+153058068+152844152+152710300+152489641+152090865+151583112
2602+151189631+151035875+150971601+150980381+151102482+151086511+150912184
2588+150837110+150822863+150709515+150574777+150521874+150460448+150346109
2575+150307777+150350090+150331405+150217066+150042453+149816461+149570527
2561+149378553+149233358+149003700+148686978+148458272+148410150+148401874
2548+148226852+147922206+147641073+147404234+147221260+147126006+147057123
2534+147003401+147022057+146956060+146688441+146386413+146187830+146126375
2521+146112823+146027693+145941248+145900831+145868937+145839633+145778988
2507+145680344+145567062+145436114+145360603+145436248+145595547+145754341
2494+145938030+146119061+146253809+146398908+146643576+146982240+147325684
2480+147625140+147778878+147711518+147596665+147586904+147620607+147617874
2467+147643416+147804210+147982089+148019564+148013698+148077381+148153378
2453+148148721+148134331+148269784+148510556+148755595+149014224+149261034
2440+149468312+149604926+149630449+149605297+149598117+149568594+149469445
2426+149415457+149555690+149824099+150066205+150189953+150143859+150023768
2413+150006016+150131126+150359394+150595814+150708401+150763589+150914317
2399+151161651+151474592+151744744+151859264+151936585+151994764+151817551
2386+151166451+149691723+147118311+143531621+139224300+134579962+129923721
2372+125233937+120469871+115885064+111642141+108020186+105660071+105115462
2359+106575219+109917965+115033981+122135134+129558315+133093921+130752738
2345+125297849+121429779+120160634+120222699+121027089+122155848+122975580
2332+123409212+124523725+126555356+128470878+129970224+131812881+134537945
2318+137588454+139972263+141544635+142947766+144534109+146214553+147908311
2305+149450684+150669031+151643843+152479718+153185426+153851792+154545520
2291+155179544+155696859+156193565+156717803+157054696+157013307+156793353
2278+156675129+156665091+156697385+156765906+156808286+156774906+156771763
2264+156894568+157061372+157206290+157329724+157399436+157448063+157491385
2251+157499089+157543126+157649817+157752633+157830592+157880580+157900627
2237+157930226+158003328+158073878+158140114+158238634+158286271+158249081
2224+158192093+158172694+158216921+158240472+158249253+158338773+158410304
2210+158388029+158370706+158448017+158598697+158660990+158607373+158657152
2197+158893477+159154458+159287311+159309167+159337071+159399230+159421677
2183+159438658+159560215+159683506+159681830+159674744+159731657+159776426
2170+159846243+160001247+160148689+160224534+160255504+160226172+160160479
2156+160153146+160228686+160313236+160337901+160352853+160508410+160793999
2143+160960146+160902129+160783143+160757886+160848512+160975745+161059209
2129+161093608+161119854+161188099+161336837+161540468+161664520+161636083
2116+161616122+161731261+161886398+162066277+162325163+162583897+162840268
2102+163180275+163597003+164077862+164688716+165500192+166511870+167753349
2089+169333349+171256213+173388079+175585981+177699276+179650768+181491692
2075+183202392+184723023+186057585+187133793+187916927+188700118+189807735
2062+191084775+192297131+193454156+194476900+195318603+196097223+196909518
2048+197760915+198606809+199440703+200355355+201473410+202631559+203515375
2035+204129219+204626192+204939476+204870717+204376506+203574268+202628835
2021+201529389+200114774+198800078+198215623+197989764+197449650+196718915
2008+196164040+195842337+195706037+195712761+195822928+196057891+196185239
1994+195774301+195491492+196466467+198238003+199945046+201498990+203007031
1981+204636458+206473840+208505081+210673898+212958444+215131033+216965614
1967+219310520+222907876+226851868+230372255+233665603+236757797+239660721
1954+242476067+244908970+246688429+247767210+247871358+247197002+247418765
1940+249114590+250382563+250416086+249917266+249333153+248831000+248363017
1927+247370519+245422704+243699756+242856396+242023036+242302416+243995212
1913+244572944+243375425+242114918+241842071+241800225+241186628+240166683
1900+238838655+236909105+234779868+233216362+231344811+229127386+228783036
1886+229826484+230274792+230198147+230029944+229930900+229893092+229487335
1873+227587556+223441724+220238220+222263766+226762823+229343759+229928557
1859+230094646+230566610+231092077+231338639+231082115+229841455+227032261
1846+223128040+222269614+226133189+229231534+229356654+228528055+226869639
1832+222459302+217275394+215780076+216346265+217173359+219165878+220445279
1819+219954516+219021788+217767376+215278532+212906694+212807555+213791233
1805+213376010+210798084+207874189+207510850+208781433+207668882+203724205
1792+203021526+208204082+212436368+212848048+212051582+211420043+211499678
1778+212401988+211139119+205898413+201322063+203585715+209595042+214489742
1765+215795352+213981912+213608288+215009551+215995002+216849695+215011323
1751+210007560+207905464+211124301+215101681+216823696+216727928+217436816
1738+218048185+214199409+210892957+216469404+224208115+229974765+233271351
1724+234004982+232737465+227151362+218208941+216535706+225291352+234506716
1711+239284429+238831703+235310668+233216953+230797345+225232840+223906926
1697+229538000+239411263+250279843+255281625+255256121+251797979+244006107
1684+242590196+254670428+265608091+269218056+268816166+270191259+271832381
1670+273056985+280730613+290325829+294110798+296914773+304090305+309920038
1657+307552218+297005055+295189197+309068145+315137831+317615513+329941564
1643+343846511+350365933+349510536+343662594+343953783+357053731+368121561
1630+371607111+372491765+373583421+375252275+380489306+385421814+385230544
1616+387388829+396282794+402920955+404712090+405208034+406719713+408475155
1603+409950645+411879451+414200168+416257351+418567249+422027162+426297256
1589+430850082+435589074+440515258+446152845+452350108+455977025+455966054
1576+460764548+472087226+478855211+482956663+492838288+505196662+514285249
1562+515988121+509073094+513754373+539534663+562638974+580000025+594135820
1549+606914065+616104553+619252173+618461421+621611250+643403341+669990041
1535+684984015+696176145+710872378+723068510+731080260+738771640+745365917
1522+753248909+766974281+781870811+797477183+814299815+826466919+829992811
1508+828064271+839364741+867692025+888066301+896595213+899783593+906884061
1495+919076765+926551696+926818124+928216702+937938562+949794668+957448716
1481+961911946+964235748+962603807+957045759+953275228+959127665+969924686
1468+974916887+974282091+975065910+975066901+966483743+951610603+949345008
1454+960612412+967038161+965721028+961291092+959020393+959599420+959841925
1441+957167736+949142730+937197407+930323674+928522215+924731647+921086902
1427+919924125+918514576+919214741+921642158+922291582+926622550+935572476
1414+942133306+945180053+947456162+949274458+950204558+952228790+955417704
1400+957677889+959897618+962896368+967347331+973813993+978083935+979037196
1387+980110529+981235136+981273458+982426864+985825751+988115802+986861143
1373+985636196+987012528+989359491+991689464+992414390+991421131+991872543
1360+993275007+993333138+992789996+991439873+988401735+985275752+983853251
1346+983284129+981606475+977544373+971547104+966670479+965675391+967449347
1333+968283526+966888833+965636536+965613679+966101357+967208441+969649039
1319+973284184+976258934+977456605+978413218+980687727+984290797+988583442
1306+992608974+996098448+999913549+1003684994+1005687741+1005923466+1006629269
1292+1009304601+1013182023+1017460269+1021844873+1025736085+1029558652
1281+1034424458+1040843579+1047299804+1051318402+1053207934+1054302904
1269+1054272962+1053547274+1054280124+1056993245+1059441005+1060357391
1258+1060667551+1061266844+1062122584+1063064341+1064920807+1067758115
1246+1069354857+1068850875+1068737889+1070708866+1073113655+1073741823
1234+1072691956+1071149688+1069648942+1068787030+1069010489+1069240576
1223+1068223317+1066347042+1064194205+1062086014+1061302652+1062607595
1211+1064113522+1063343797+1061256482+1060466644+1060593039+1059330152
1200+1056773291+1054526515+1052096584+1049230630+1047747178+1047296680
1188+1045337817+1042283756+1040832913+1040748649+1038875422+1034688906
1177+1031476755+1029882679+1027655407+1025645117+1025288787+1025374117
1165+1025078357+1024145971+1022232669+1020158381+1018754699+1017480916
1153+1015918610+1014750424+1013658197+1011534083+1009461548+1009109560
1142+1010237444+1011146439+1010006747+1007441659+1005178273+1004271030
1130+1005254233+1006204522+1005672122+1004499441+1002307291+998888214+997189913
1117+999635083+1002550254+1001949666+1000253879+1000743995+1004429805
1105+1009981224+1013489593+1013485936+1012968698+1012863558+1012006904
1094+1012767562+1015503844+1017698432+1019670094+1021206877+1021214648
1082+1020793254+1023087419+1029124535+1035169346+1038140210+1038259139
1070+1038533567+1040976679+1044095500+1047227883+1048078138+1044453506
1059+1039873405+1037554936+1038444047+1042265547+1046376028+1047495378
1047+1044942632+1043579328+1046554916+1049649967+1049017685+1045275267
1036+1041870438+1039596919+1036330066+1035183745+1037431359+1038610593
1024+1037987301+1035603616+1031615721+1030606615+1033032280+1033496568
1013+1031975251+1032175701+1033362249+1034107670+1034935221+1036117502
1001+1037971073+1039043644+1037248433+1035722240+1036822086+1037238604
989+1037442864+1039841330+1042905753+1045672663+1046952693+1046616324
978+1048022978+1051425979+1052137496+1048961763+1047678686+1050600104
966+1053294026+1053569902+1052360345+1051289984+1052801625+1056344964
955+1059142273+1060330192+1060303069+1058713793+1054752869+1050255888
943+1048113260+1048046977+1049403957+1051739111+1052005006+1049553285
932+1048605662+1050199204+1050325752+1047993493+1046447644+1047367230
920+1050039820+1053178983+1055338295+1056101163+1055579658+1053135175
908+1050034715+1048849539+1049449974+1050447043+1051672294+1052842690
897+1052927182+1051450969+1048643527+1045423529+1043989599+1044859206
885+1045164338+1043043805+1038988560+1033869278+1028883934+1024939466
874+1021744991+1018205385+1015043289+1013391006+1011930868+1010473625
862+1009913036+1010305632+1011710610+1012366967+1011105831+1008719098
851+1005370571+1003221087+1004594904+1007219038+1008496021+1008473469
839+1007305816+1006696238+1007823892+1007283264+1004104941+1002542025
827+1002985362+1002073242+1000454024+1000081390+999306637+997963447+998470858
814+1000386370+1002676116+1004685796+1003516619+999496421+996618201+995692748
800+994280990+991999243+991955664+993539378+992370430+989293588+986257812
787+981851266+977954263+976594160+974416562+970099765+966674136+964588116
773+962732564+960901544+957613739+953204374+950600049+949080941+945662093
760+941146446+937507949+934232410+931570029+930793371+930215488+927711654
746+924515198+921239430+917108912+913733110+911357576+907904367+904066563
733+900464635+896058699+891110153+885298020+879229819+875610064+873748797
719+871306219+869311243+868583574+868893963+871018686+874382146+877008032
706+877808385+877458073+876795850+874635394+871163595+870553408+873954047
692+876311753+875124138+873412810+873449227+874139488+872554250+869294253
679+868618011+871429948+875605873+877537994+871969433+863661313+870967488
665+886181112+891564689+892594214+893145813+890873971+886482205+883171772
652+882889116+884572865+887644602+890603809+889631730+887257339+888887833
638+891370639+890882504+892330223+894103721+886596639+874469610+869846233
625+869080470+861464059+852136852+849381370+849983177+851495504+853749365
611+855912030+861661233+868520262+866485440+855525301+841693190+829768515
##END=
