##TITLE=Sample description
##JCAMP-DX=4.24
##DATA TYPE=INFRARED SPECTRUM
##DATE=12/9/2023
##SAMPLING PROCEDURE=Instrument type and / or accessory
##ORIGIN=Default
##XUNITS=1/CM
##YUNITS=ABSORBANCE
##RESOLUTION=4
##FIRSTX=4397.6552
##LASTX=599.8556
##DELTAX=-1.9287962
##MAXY=2.0022223
##MINY=0.34222341
##XFACTOR=1
##YFACTOR=1.8647148e-009
##NPOINTS=1970
##FIRSTY=0.3543832
##XYDATA=(X++(Y..Y))
4398+190046861+188935920+187479043+186459967+186201518+186720957+187271162
4384+187129527+186697111+186419116+186876800+188028608+188595034+188258353
4371+187697328+187557691+188388752+189731340+190017486+188725386+187871119
4357+188737324+189386251+188196965+186693324+187281790+189381073+189976236
4344+188595338+187734007+188584694+189892617+190612792+190727881+189977626
4330+188926043+188437881+187847130+187043926+186614595+186170225+186064902
4317+186858916+187484333+187231462+186756246+186833823+187672715+188616531
4303+188923613+188602227+188222041+188337928+188629029+188355589+187820375
4290+187962250+188820975+189530587+189716045+189695604+189377573+188545378
4276+187749126+187900638+189185195+190465676+190756776+190405934+189621398
4263+188657573+188891905+190480044+191506871+191208323+190169125+188851693
4249+188810603+190375520+191086091+190558037+190491919+190567914+189792632
4236+188651388+188147180+188462590+189114266+189650534+189834793+189996262
4222+190256229+190080168+189674187+189729070+190049962+189856193+189633672
4209+190726266+192201363+192437677+191826452+190850257+190028721+190155157
4195+190583577+190142819+188995533+188599957+189536500+190380187+190102895
4182+189446888+189314731+189957105+190860118+190939022+190163979+189671422
4168+190235148+191317465+191398975+190463950+190151673+190754859+191226542
4155+191318776+191340592+191028443+190476736+190144912+189739683+189383438
4141+189706631+190463422+191041244+191064850+190444803+189753715+189711522
4128+190143586+190463950+190906290+191644015+191897653+191595461+191386621
4114+191162582+190729974+190213780+189975293+190310968+190553978+190424729
4101+190636318+191126781+191071035+190221307+189683233+190485350+191453858
4087+191322756+190945703+191069389+191120388+190664016+190265610+190472021
4074+190720289+190619073+190640793+190945175+191307157+191281234+190622478
4060+190015472+189911508+190222490+190892274+191231913+191026796+190881070
4047+190822655+191138528+191932638+192103328+191319895+190611066+190553786
4033+190546498+190102479+189793415+190025541+190479980+190788997+190576417
4020+190204350+190458804+190880127+191057402+191170509+190754986+190462495
4006+191371485+192264046+192181689+191879129+191588844+191144953+190569337
3993+190195065+190687605+191606297+191986610+192058003+192123066+191603707
3979+190569688+189979672+190118478+190804739+191668707+191779448+191140350
3966+190643414+190455735+190615893+191029098+191262327+191538132+192005789
3952+192275457+192340009+192335662+191693496+190656552+190853581+191772831
3939+191712530+191108418+190655593+190482218+190926844+191671808+191931599
3925+191886833+191894504+191029178+189392436+189146326+190726794+191695685
3912+191114379+190180441+189085018+187741807+187515274+188995773+190962004
3898+191944832+191226143+189230233+188176268+189476103+190222410+189857200
3885+190164299+189977610+190184021+191456175+190721152+189082301+188529955
3871+188336650+189261989+189423490+188136328+189097628+191395507+191223378
3858+187965814+183525867+184439684+190850225+193553349+192577186+190159200
3844+187774730+186416687+186376444+188165480+190188704+190206412+189670799
3831+190246719+191102792+191372764+190063882+187315161+187321266+189446648
3817+190004780+191429101+193288875+192777747+190090253+188115727+188278522
3804+187834903+188275837+190755786+191537669+191464310+192051306+192308796
3790+192213893+192023849+191745342+191564998+190977683+190544037+191605114
3777+192678721+192148974+190638636+189981590+190998748+191977852+192352539
3763+191986258+190626170+190234541+191142412+190417330+187212395+185235216
3750+187317190+188264618+187743165+190608749+193411587+192215811+188858118
3736+186757476+188052246+190940860+192586551+192414151+191955892+192415541
3723+193412114+195003849+196982834+198171769+197620989+196339949+197517249
3709+200838502+203722226+205744811+208457668+213708330+219157715+222375116
3696+223655757+222856677+220501789+219575027+221277695+222280533+220966489
3682+217894255+213895833+209459898+207151647+209223281+210229731+209552212
3669+210991589+212337054+212034078+211819820+211996024+211272860+210420096
3655+210713561+209790283+207360519+208342196+213282435+216573514+217140900
3642+216660042+216399372+216125947+215563964+215051845+213880091+212995554
3628+215854122+218974494+218949514+217293626+216309647+217295991+218441007
3615+218535814+218514174+218375624+218508900+219935267+221125049+220817391
3601+220272156+220323076+220440130+220953272+221997871+222148456+221041462
3588+220795879+222273964+223449154+223652656+223650834+223969472+224527508
3574+224984073+224704943+223422480+222604653+223785644+225165088+225351409
3561+225347733+225683663+225919929+226105275+226594156+226872982+226312165
3547+225631689+225863719+226752875+227346136+227329531+227305318+227538706
3534+227565189+227376534+227284716+227380274+227567171+227569408+227277732
3520+226904819+226627287+226345440+226002317+225900574+226401889+227276981
3507+227737765+227807416+228076237+228114163+227553122+227107138+227298429
3493+227610450+227290550+226683401+226654297+227040811+227276534+227321555
3480+227115385+226581881+226076315+226044447+226486387+226908638+227074950
3466+227258985+227447543+227490728+227505223+227483775+227337825+227288616
3453+227596610+227701565+227247142+227192323+227791625+228417218+229066433
3439+229497122+229349063+228960071+228849042+229226671+229796597+230126471
3426+230125704+229955157+229976302+230392303+230923505+231276329+231381029
3412+231491530+231894219+232183162+232092846+232230373+232880339+233519197
3399+233831186+234051885+234342762+234765620+235406748+236001047+236246503
3385+236393012+236748553+237103582+237325623+237543302+237683610+237813401
3372+238167712+238595317+238948540+239515015+240324851+240948446+241340874
3358+241837506+242464985+243109197+243653952+243690423+243236671+243101653
3345+243611886+244200001+244604064+245143097+245856353+246455782+246894511
3331+247317481+247383791+246831669+246503298+246899082+247639683+248553611
3318+249137507+248963780+248499528+248186419+247998804+247730654+247398671
3304+247065553+246636893+246652124+247577768+248764018+249821611+251056990
3291+252395375+253588513+254625633+255793743+257513416+259166299+259752831
3277+259957005+260659680+261492754+262301408+263004930+263331000+263621301
3264+264196758+264845924+265069708+264532560+263798848+263752499+264266216
3250+264659507+264746435+264456741+263714925+263107184+263238542+263451202
3237+262974420+262376220+262076649+261893749+261903594+261984656+262071663
3223+262418062+263037214+263452944+263137710+262440054+261938531+261487144
3210+261094061+261218483+261680322+261595456+260782759+260150246+260095027
3196+260014828+259676037+259215061+258665847+258346458+258259643+257976597
3183+257493438+257051609+256580884+255922975+255348174+255026963+254685470
3169+254418615+254423937+254565507+254842496+255000224+254683520+254379442
3156+254555279+254697776+254228889+253365848+252718120+252588952+252826400
3142+253003419+252885055+252511070+251850876+251140593+250645112+250276433
3129+250114309+250080491+249871140+249563913+249265636+248883133+248301044
3115+247370270+246214227+245308449+244754249+244107096+243107839+241863765
3102+240691867+239835523+239063021+238273674+237771464+237472868+236976891
3088+236224958+235513509+235061100+234795603+234510304+234157735+233946226
3075+233886085+233787395+233718400+233789025+233911177+233870007+233543058
3061+233155665+232977607+232917929+232861512+233049799+233435530+233504238
3047+233279991+233143311+233008948+232799645+232592435+232339244+232053098
3034+231536952+230800889+230493279+230835043+231315566+231321095+230739278
3020+230065898+229689596+229606393+229591401+229577944+229572287+229279764
3007+228788086+228605840+228665934+228506783+228170580+227968836+227931310
2993+228081191+228398311+228780255+229353538+230072371+230607984+230878563
2980+230979283+230980833+230964020+230850354+230639565+230596892+230662164
2966+230469594+230039416+229672192+229394276+229096335+228975510+229201259
2953+229339889+229036466+228868636+229234965+229548217+229460123+229220917
2939+229027004+229089048+229358125+229327007+228898427+228478574+228200099
2926+227956370+227713808+227492901+227231528+226798968+226358785+226217886
2912+226212084+226085009+226019338+226104188+226282390+226619983+226845269
2899+226615268+226246110+226248460+226523994+226705104+226788979+226937678
2885+227177156+227390487+227459610+227464597+227585582+227824341+228043202
2872+228264524+228527032+228641353+228485238+228258786+228152904+228092171
2858+228041843+227986161+227749800+227243418+226606830+226154436+226159215
2845+226560018+226919107+226967741+226942153+227076771+227358618+227679749
2831+227977003+228259809+228473380+228566540+228531811+228321021+228052248
2818+228082550+228353449+228411193+228313254+228403473+228671751+228892242
2804+229029226+229249142+229437636+229412320+229366547+229481795+229772384
2791+230213718+230513593+230420576+230246625+230376897+230719684+230974489
2777+231072348+231069103+230902393+230588917+230228038+229996983+230109753
2764+230399511+230554411+230608160+230689349+230709375+230635329+230716823
2750+231056270+231364327+231434122+231426482+231563306+231797942+231922363
2737+231989505+232193118+232423470+232512460+232531462+232599243+232663684
2723+232635411+232645336+232781233+232906198+232985486+233170241+233507961
2710+233756661+233687826+233507945+233569685+233865213+234154203+234254348
2696+234207504+234227530+234415193+234727982+235040706+235285362+235446815
2683+235416784+235327076+235430657+235611033+235631106+235481768+235347485
2669+235347230+235367719+235343490+235386594+235457331+235394425+235254757
2656+235170067+235146173+235214242+235339542+235356963+235321690+235381528
2642+235425031+235323224+235128848+234980389+234910068+234797776+234681282
2629+234696321+234668864+234363443+233985383+233889298+234070856+234249314
2615+234140203+233726950+233321704+233124643+233081395+233135000+233170337
2602+233116029+233060555+232964805+232821748+232782288+232767025+232681632
2588+232637041+232589526+232474438+232383691+232338045+232340427+232368811
2575+232273541+232000852+231749515+231714594+231805245+231807115+231563674
2561+231076279+230638014+230461842+230372757+230225816+230148862+230164477
2548+230113285+229926597+229645246+229410227+229313678+229250404+229139072
2534+229007091+228890948+228815767+228752046+228646963+228531331+228443525
2521+228362335+228288529+228195401+228069748+228001552+227977275+227847659
2507+227650710+227588491+227649048+227715150+227840819+228013283+228068901
2494+228001088+227972304+228056307+228179834+228292748+228447041+228637805
2480+228757032+228756745+228729847+228776451+228796972+228752541+228810014
2467+228854588+228732292+228713593+228885690+228979154+228991652+229033685
2453+228988887+228923120+229043770+229281586+229567891+229922969+230165499
2440+230246306+230383657+230514759+230455082+230370871+230434832+230623423
2426+230912653+231223684+231419370+231503964+231610054+231755317+231819214
2413+231772530+231798037+232014133+232280829+232500457+232653487+232768303
2399+233001660+233288781+233446190+233538296+233601522+233564507+233419692
2386+233074092+232281884+230703685+228098053+224677533+220997846+217333502
2372+213411076+209252081+205537569+202304777+199305581+197244496+196760154
2359+197922207+200785153+205135184+210625451+216043383+218688029+217096981
2345+213104489+210300277+209760413+210609006+212066474+213395493+214175651
2332+214755326+215969481+217758326+219388003+220759359+222435497+224729667
2318+227213500+229286141+230834005+232195724+233634253+235100160+236508723
2305+237831861+238965274+239903351+240740101+241429991+242040528+242657299
2291+243111419+243479745+244019466+244600212+244936846+244996268+244957304
2278+245040139+245285227+245479379+245534694+245593381+245718761+245926914
2264+246176413+246341941+246512727+246795661+247004261+247106659+247311040
2251+247582307+247758591+247822264+247853190+247966040+248196760+248493007
2237+248760166+248882126+248919829+249085484+249329198+249421287+249402460
2224+249408486+249404027+249381380+249376058+249370752+249451606+249690988
2210+249940295+250104416+250269625+250484474+250659607+250705652+250740781
2197+250928908+251213168+251378616+251330654+251276106+251402430+251597046
2183+251742996+251883192+252019568+252128919+252253948+252389206+252486154
2170+252573257+252722675+252886589+252987501+253093879+253238182+253385491
2156+253492923+253506220+253524680+253648223+253819408+253986918+254198763
2143+254510944+254759628+254756735+254661337+254717882+254877896+254977577
2129+255055683+255167574+255216512+255222697+255304239+255449565+255627895
2116+255857048+256054205+256158314+256271196+256381170+256403257+256432840
2102+256511681+256576936+256637269+256680325+256715470+256822104+256954741
2089+257009160+257068998+257233567+257390768+257439322+257454745+257479038
2075+257454106+257455512+257584185+257705922+257724174+257801815+258043946
2062+258284735+258389706+258416924+258430653+258471040+258539508+258602238
2048+258652246+258679224+258687104+258706938+258790317+258893275+258886466
2035+258849403+258960112+259149134+259294301+259447475+259605379+259700729
2021+259714186+259657545+259720899+260040752+260386751+260590700+260798997
2008+261051069+261224684+261333843+261401000+261446565+261617991+261876280
1994+261993254+262048952+262287072+262682041+263079951+263356635+263558203
1981+263769696+263970417+264205660+264401346+264484198+264496968+264400787
1967+264394857+264729717+265181951+265501324+265769842+266046702+266258898
1954+266418497+266622590+266901304+267110208+267070237+266930648+267190951
1940+267847022+268333585+268568716+268744137+268931385+269253491+269653303
1927+269848733+269868328+270103682+270437551+270575062+270947321+271653001
1913+272115814+272244983+272480018+273013633+273600373+274088950+274458811
1900+274685407+274868372+275140134+275446418+275540201+275630501+276242717
1886+277087826+277684603+278098319+278482756+278905997+279351934+279742252
1873+279806980+279403077+279356856+280501600+282009749+283007999+283574762
1859+284000337+284483640+285065138+285636215+286139016+286497242+286454953
1846+286170725+286789046+288349488+289485090+290164304+290956543+291582760
1832+291498182+291327971+292021696+293091739+294291302+295679679+296799427
1819+297668541+298529473+299231029+299553295+299888091+300818290+301975052
1805+302650590+302824796+303036657+303807672+304859367+305318154+305345835
1792+306500328+308786396+310449284+311267031+311857543+312456174+313317745
1778+314313790+314548026+313864529+313832373+315740493+318264856+320150185
1765+320925931+321170491+322115074+323401708+324512538+325535081+325916865
1751+325792364+326317252+327784518+329397030+330535957+331219933+332162469
1738+332964554+332749241+333322652+335913086+338475551+340618769+342125032
1724+343036627+343493655+342823008+341674364+342740252+345991583+348926786
1711+350845102+351623469+351744711+352248822+352504251+352161751+353104863
1697+355537328+359258378+363058443+364999263+365734829+365406394+364133409
1684+365557522+370188952+373554876+374964606+375688505+377014872+378243586
1670+379645389+382942429+386099817+387516259+389148493+392079700+394346174
1657+394422441+392809929+394375709+399438787+401664954+403578827+408377399
1643+412951644+415503657+416224712+415773629+417707896+423174365+427475538
1630+429980275+432192153+434488322+437444685+441931124+445843513+448387822
1616+452766284+459030140+464003910+467875288+472020698+476886459+482006178
1603+487229910+492674612+498156074+503465054+508823037+514512939+520455807
1589+526516241+532569387+538678823+545045636+551528545+557166120+562246619
1576+569391832+576903485+581999135+587586143+595709085+603842832+610760201
1562+615632356+619201510+628534180+641851734+651934035+660482233+669230720
1549+678471140+686518455+693137404+699196911+705934768+716839771+728480596
1535+737779512+746440097+754697353+761611079+768138802+774381593+779638856
1522+786375818+795714369+805100292+814453547+823363839+830507645+835314528
1508+837664876+844198608+857740873+867894391+873517774+878154350+884287375
1495+890875255+895657334+898311664+900661310+905439552+910925361+915409722
1481+919206335+922027265+924900105+928129029+929929908+931102045+932966981
1468+934680533+937288707+941690472+945066816+944785785+940500179+937864963
1454+939850341+941826001+941910324+938367892+932350514+928217059+926779936
1441+925656129+923112459+918154384+911815955+906752078+902114223+898271645
1427+896157514+895067781+896799744+900915747+904031069+907298095+912824498
1414+919521505+926539307+931374638+931880380+931539192+934823031+941770831
1400+950281566+956416765+957445893+958212274+961492789+963072154+961606582
1387+959618711+959617305+961220451+963150978+966527322+971176812+974450487
1373+974818398+974369808+975849380+977681329+977114534+975536128+976229054
1360+978198258+977658890+974243804+971198932+972413518+976189035+974685106
1346+966879187+961100840+961072072+963176550+963251922+960792511+958027455
1333+955345699+952534039+952117606+955299095+958443185+957843340+956080754
1319+957633525+961814351+965637303+968145812+969509097+970823924+973634625
1306+976040592+975230100+973878514+975398873+979249954+982985579+984331156
1292+984259172+987163848+994158252+1000346448+1003814850+1007377356+1011739613
1279+1016640663+1020887017+1023207127+1025145709+1027326645+1029208906
1267+1031222988+1033356617+1035482511+1036846499+1037515899+1039928515
1256+1043105912+1043649053+1042128438+1041438197+1043068897+1045915974
1244+1048147159+1049032575+1049536399+1051651553+1053964758+1053588664
1233+1052352214+1053229447+1054325382+1051925296+1047546993+1044927312
1221+1044614380+1047021306+1051584427+1054282677+1053853969+1052459615
1209+1050877053+1049583515+1048915393+1048146775+1046542094+1045267670
1198+1045829030+1046420245+1045565899+1045080102+1045885352+1046363924
1186+1045288958+1042986493+1041305928+1042679570+1045028448+1043357409
1175+1038692256+1036456341+1037514046+1039329436+1041068240+1039641665
1163+1033739552+1028634952+1026269196+1025400529+1026837269+1030079171
1151+1032985190+1033758538+1032605899+1031314726+1029853246+1028548711
1140+1028464964+1028425776+1028305014+1027235610+1023359150+1020000002
1128+1018085074+1013994899+1009883435+1008961004+1009178299+1009201249
1117+1010413406+1011736161+1008761546+1002309004+999255628+1001408756
1105+1005483716+1008440367+1007815589+1005768456+1006559641+1008333605
1094+1009257890+1012254049+1014176713+1011354888+1009459011+1009252456
1082+1006884400+1007261197+1014795226+1022429239+1023567111+1021576554
1070+1019427838+1017695427+1017052110+1017221330+1020282504+1027184531
1059+1031889703+1030306566+1029433360+1032662221+1035017939+1036479419
1047+1037700590+1035114983+1030508901+1032181986+1040226232+1041175385
1036+1032564281+1024554685+1018354471+1012393798+1007295783+1004097928
1024+1006168587+1010836041+1011919956+1012226752+1016050407+1021323843
1013+1024822739+1024879700+1020783324+1015085591+1013491522+1016493626
1001+1018748593+1018926124+1018932708+1019705737+1022163614+1024129558
989+1022630487+1019394723+1018181479+1020560276+1025108182+1029114483
978+1031347969+1032944978+1034651690+1035522978+1037037199+1039851097
966+1040983087+1040913532+1041775806+1043739512+1046556670+1048426081
955+1048850889+1049732213+1051517302+1050653110+1046057257+1044291219
943+1046488585+1047485174+1049053096+1052531023+1052661566+1049131345
932+1047776818+1050775598+1053301048+1051443016+1050032040+1051524014
920+1052098224+1053417398+1056910925+1059223044+1060129173+1059366053
908+1057718347+1058563424+1058145649+1052163815+1047260528+1048655650
897+1053678740+1060949126+1069568540+1073741823+1071582942+1069171541
885+1066827522+1060234144+1051283961+1046111532+1048688573+1052246795
874+1048015657+1040403315+1035911410+1036339287+1040682493+1043529314
862+1041707977+1037903437+1034056320+1030668468+1028557342+1028020722
851+1029899850+1032762589+1032763932+1029285940+1025705087+1025656565
839+1027853356+1027780605+1024530392+1020769899+1018472739+1017713839
827+1017690696+1017617945+1018294186+1020659557+1024087748+1025622171
816+1021755300+1015439949+1011137722+1008005842+1007208711+1011445476
804+1016787572+1017676376+1014657331+1010991772+1008373881+1006366000
793+1004500552+1002262399+999466083+998392907+999730365+1000196023+996817633
779+991102448+985644193+981832620+982092172+983512098+982225591+982219135
766+983908457+983498481+980190541+974377735+966806564+953976788+939288661
752+937020014+947483203+957119856+959798799+955832390+948804871+946516981
739+951560401+955851313+951660130+945523397+944585623+945004741+941530713
725+934252081+926558102+921612749+920121670+918651048+915007673+911497525
712+910640557+914695571+922069010+925070539+920277465+916125534+919155192
698+923902301+927105334+930651090+931020408+926654955+921477284+919366925
685+920874370+922637467+922653960+921274501+920936061+925313533+931165910
671+931078456+927252691+928295947+929749244+926775461+923769393+924104253
658+927215931+930355802+933080839+933952510+930721604+927639461+922466137
644+907830240+896070059+904208089+921218563+920001867+907827171+904706543
631+909224850+920208741+934297726+937092125+928587719+927468451+944448623
617+962145823+952649687+924017182+902615554+902719503+921471211+944592016
604+958760912+952171114+926609437
##END=
