##TITLE=Sample description
##JCAMP-DX=4.24
##DATA TYPE=INFRARED SPECTRUM
##DATE=12/9/2023
##SAMPLING PROCEDURE=Instrument type and / or accessory
##ORIGIN=Default
##XUNITS=1/CM
##YUNITS=ABSORBANCE
##RESOLUTION=4
##FIRSTX=4397.6552
##LASTX=599.8556
##DELTAX=-1.9287962
##MAXY=1.7126061
##MINY=0.14867145
##XFACTOR=1
##YFACTOR=1.5949887e-009
##NPOINTS=1970
##FIRSTY=0.1497457
##XYDATA=(X++(Y..Y))
4398+93885118+93596501+93491118+93298279+93211600+94058935+95178418+95290789
4382+94991241+95182472+95447416+95545736+96074820+97209549+98149048+98157961
4367+97576709+97177962+97161108+97126251+96800619+96501678+96710062+97435497
4351+97931901+97963712+98502418+99507829+99715559+99244735+99106345+98968954
4336+98335384+97927697+97971064+97891027+97825695+98091872+98521225+98888926
4321+99073319+99354294+99691474+99371737+98414627+97359393+96788530+97345080
4305+98557773+99548319+100131290+100253247+100038519+99755311+99731058+99978064
4290+99973141+99879622+100038706+100394917+101326194+102185059+101630470
4276+100247660+99358433+99023533+98722798+98581549+99279601+100746381+102093708
4261+102747925+102785752+102429215+101806921+101324625+101337387+101874673
4247+102596698+102547855+101886305+101970742+102727474+103148998+102935522
4234+102653500+102813331+102648978+102084944+102569212+103956235+104595448
4220+104172150+103542251+103439857+104102847+104829664+105147907+105451650
4207+105547121+105185781+104549511+103790593+103712219+104724720+105860412
4193+106452118+106824538+107101879+107022953+106416617+105414093+104795723
4180+104837465+104884626+105001164+105700552+106623609+106940422+107005091
4166+107520375+107459920+106636287+106410806+106456444+105996335+105499605
4153+105093655+104743891+105013880+105679541+105969990+106366092+107259094
4139+107659849+107122825+106366214+105841017+105827152+106292446+106257748
4126+105850453+106242884+107121311+107726041+108085727+108183673+108009772
4112+107776453+107348483+106766063+106653738+106931266+107157196+107477353
4099+108045778+108753406+109224763+109392143+109509989+109317833+108665026
4085+108089949+107954110+108195118+108863526+109569762+109612121+109142801
4072+108769158+109036100+109690514+109664168+109219167+109257882+109502935
4058+109462099+109228135+109232769+109682227+110226791+110175538+109729509
4045+110184759+111346526+111889810+111846479+111720421+111494286+111257305
4031+111074893+110757332+110449245+110319114+110233237+110205145+110065325
4018+109751100+109788161+110309472+110495631+110000021+109902392+110703931
4004+111304466+111159984+111072501+111344059+111245898+110643587+110380204
3991+110737835+111037140+111080311+111392752+112010879+112301832+111939895
3977+111526677+111487345+111395004+111236891+111437587+111920360+112130799
3964+111928264+112101034+112703092+112925023+112831869+112656352+112115440
3950+111712863+112255307+112278569+111086094+111191543+112706110+113357272
3937+112569466+110747242+109811013+111370564+112876012+111922686+110688431
3923+111001545+110847730+110262507+111828374+114819847+116067518+115148030
3910+112944016+108633393+103286659+101470078+104103174+108422804+112688779
3896+113657605+110390331+108371980+110534794+110441379+108265280+108864423
3883+108854258+109195801+111978722+111161059+107836665+105704261+105288950
3869+108740925+110875337+109496498+110888678+114131446+113277421+106490731
3856+96843856+97889000+111458122+118517043+117935716+113953210+109604787
3842+106419634+104561021+106868541+112061796+114231196+114721340+115984444
3829+116398279+115732991+112648027+107154580+107356648+111448975+113248497
3815+117507055+121214649+119668794+115073524+112696487+112898901+110711068
3802+111572418+117293822+119638674+120885578+122986209+123386581+122755318
3788+121917764+121296732+121670011+121244339+120434299+122609996+125517612
3775+125304313+122387337+120528527+122228589+124660354+126543034+126755239
3761+124345382+123654636+125307527+123330442+116813628+114372034+120975659
3748+123949998+123005286+129287202+135453094+133413022+128222047+127031627
3734+132611446+141000289+146295751+146990141+146782962+148914413+152958112
3721+158314179+163734223+166692708+165654944+164378499+171010189+182873111
3707+191514014+195665946+199454362+207809666+218212133+226822972+233481550
3694+236713078+237015084+242030990+255006883+265877389+271009311+273683822
3680+274991920+274263822+277809838+290059632+299057251+305956023+318072818
3667+328229484+333726454+338855442+344518110+348969133+354686847+362065506
3653+364144209+362538198+369362025+385044548+397318147+404363914+409702286
3640+414893607+419695197+424557999+428874677+430103886+431590949+441935548
3626+454387813+461146654+463587173+466118202+473062248+480127710+483576956
3613+486774702+491946367+498926475+506542994+512138732+515588203+518472677
3599+521192910+523649349+527108013+532521274+536296050+536063235+536961833
3586+542679734+549579123+554759868+557438471+558758752+560220440+561929442
3572+562464318+560672616+559658246+564124777+571462553+576795992+578883889
3559+578765351+578737286+579416784+579511368+579756477+581527887+583542838
3545+585095820+586403993+586872201+586960880+587100643+587259167+588054474
3532+589566836+591183871+592282510+592659797+593264555+594454900+595101288
3518+595404395+595222703+593603837+592919518+594934281+596995159+596832600
3505+595092917+594056648+594866418+595330627+594194244+593582723+594715817
3491+595719013+594862793+593906346+594734464+595554585+594796573+593457982
3478+592778110+592947546+593071352+592417191+591986166+592591784+592532627
3464+591237011+590515808+590362367+589734440+588797351+588043450+587529725
3451+586968802+586886514+588068749+589388581+589046272+586803889+584134180
3437+583175640+583856072+584082796+583641905+583022349+581484538+579204859
3424+577176082+576094147+576375580+577635658+578586910+578326890+577953340
3410+578428798+578660641+578312577+577882860+576527377+574034690+572307338
3397+572567284+573710991+574113465+572770913+570355543+569180408+569763230
3383+570309392+570349938+571231794+572641575+572488059+570990608+569973398
3370+569940513+571082464+572587389+572462760+570740753+568783352+566657040
3356+564556176+563810982+564308301+564601319+564297426+563893009+564143985
3343+564872737+565333022+566011623+566888808+566938697+566175416+565243521
3329+563785309+561179801+558971387+558923628+559730744+559658209+559181069
3316+558885548+558397272+557742999+556924298+555356592+553774572+553731335
3302+554761438+554980351+553831487+552842229+553510703+554437702+552859532
3289+549813657+549262450+552486879+556506876+557619865+555874614+553790268
3275+553046792+554284074+555980072+555652337+553815380+552338296+550965511
3262+549324148+548950299+550373458+551364808+550218112+548258058+546825107
3248+545186061+543445257+543001601+543860026+544339146+543013298+541277165
3235+541282695+541554113+540256442+538489105+537055108+535626866+533950002
3221+532497432+532512828+533250025+532519480+531019151+530739288+530967917
3208+530477960+530075598+530363458+530449895+529727758+528652101+527295797
3194+525028039+522696117+522701871+524607552+525048667+523444786+521407264
3181+519684846+518523612+517110767+515490032+515084082+515586110+515707151
3167+514811618+513657372+513542834+512975147+510316237+507750379+507525039
3154+508207115+507308779+505814205+505876987+506679955+506497253+505048233
3140+503410533+502115776+500308117+498722585+498751696+498831070+497287766
3127+495278869+493887885+493034131+492348206+490916414+488789428+486976949
3113+485535627+484339490+483636710+482724846+480725442+478337839+476562579
3100+475098088+473361582+471426304+469704633+468651660+468231846+467877617
3086+466958690+465330556+463971448+463220088+462224440+461353384+461465905
3073+462087442+461694945+459768450+458141437+457715121+456941787+455117610
3059+453036926+451415893+450424169+449383341+448186980+447520861+446638070
3046+444948052+443519997+443058478+443219430+443123315+442284210+440917366
3032+439471411+438426024+437632473+436425947+434740861+433372897+432553374
3019+431816102+431453801+431810833+432489733+432785329+432227247+431436162
3005+431319007+431841551+432718736+434129527+436249038+439168154+443398768
2992+449265364+455725619+460863688+463947232+465716064+466703826+467101742
2978+467196213+466631291+464697808+461524725+457546246+453119028+449088268
2965+445754607+442559963+439458518+436887690+435002601+433547938+432382930
2951+431856425+432176947+433117474+434161403+434636824+434548855+434405578
2938+434060131+433158207+431876604+430461367+428848144+426781063+424191848
2924+421201841+417900692+414510640+410998986+407179366+403813605+401673054
2911+400086700+398128701+395820584+393786986+392585206+391947973+391052664
2897+389779732+388668536+387984554+387695498+387574157+387316155+387014991
2884+386892791+386786324+386190610+384698764+382601787+380560080+378784334
2870+377061169+375061353+372671994+370365932+368543138+366802072+364852818
2857+363115564+361514374+359217355+355965385+352394948+349490817+347789700
2843+346676561+345348097+343744814+342021947+340288019+338821174+337840250
2830+337010899+335885054+334662534+333611168+332534689+331370578+330396343
2816+329592590+328632482+327550584+326632106+325897450+325138989+324206796
2803+323172246+322230561+321349826+320253653+318940810+317705882+316540314
2789+315168650+313715669+312567365+311645037+310623137+309401420+308054682
2776+306799594+305734083+304670815+303495474+302362212+301468827+300799269
2762+300091670+299195987+298339299+297718155+297264764+296830712+296259923
2749+295600344+294950237+294263135+293649576+293092316+292268383+291274940
2735+290690362+290712224+290855276+290524085+289746304+289170938+288937730
2722+288428602+287555435+286805737+286404272+286339155+286330616+285992399
2708+285352682+284678715+284085598+283507858+282901008+282391917+282012406
2695+281576841+280990525+280257271+279411981+278595971+277838744+277100631
2681+276468369+275894068+275205825+274468460+273841860+273224415+272441888
2668+271591161+270869846+270265462+269703455+269279531+268980833+268549845
2654+267961418+267504813+267286087+267192774+267103441+266846728+266482185
2641+266304285+266313254+266325735+266318074+266344570+266364806+266283732
2627+266182702+266169361+266118295+265984604+265981483+266086867+266032269
2614+265884770+265903623+266054654+266049478+265797530+265596685+265585250
2600+265521665+265310973+265088865+264830115+264457855+264059547+263615368
2587+263074980+262609668+262253439+261823535+261355140+260928842+260358969
2573+259617456+258981550+258610541+258370552+257990873+257432136+256935396
2560+256635913+256472289+256313056+256067367+255890327+255974465+256136819
2546+256152869+256111146+256103616+256160287+256320081+256517974+256721976
2533+256921924+257043974+257127272+257276079+257509716+257721735+257766691
2519+257759235+257946365+258183814+258127834+257893319+257839469+257918543
2506+257826333+257525991+257297324+257281199+257216474+256874614+256430939
2492+256187044+256201488+256310066+256314083+256127439+255879527+255710054
2479+255520364+255191677+254789109+254436598+254235305+254118487+253869042
2465+253529462+253305466+253167104+253012654+252798786+252442202+251976591
2451+251628490+251456924+251229510+250871524+250541136+250274651+250026141
2438+249792766+249512043+249155945+248803957+248469253+248152262+247931742
2424+247760196+247528240+247382516+247427996+247353424+246970307+246573532
2411+246464804+246608155+246760138+246795883+246778674+246745359+246730317
2397+246821967+246904499+246816810+246687435+246480929+245969745+245146654
2384+243726054+241102104+237258979+232818663+228241890+223585072+218821749
2370+214001044+209239141+204871584+201469948+199364842+198834880+200227472
2357+203339435+207799931+213631605+219533553+222251432+220085376+215245893
2343+211991195+211214535+211412334+211992578+212671945+213082360+213380909
2330+214326237+216081541+217985278+219599212+221166732+223191977+225561699
2316+227494566+228738500+229934880+231479118+233058185+234429943+235695588
2303+236795423+237549007+238138667+238824537+239466384+239855573+240105971
2289+240445290+240816934+240974598+240896532+240696061+240440021+240215708
2276+240022430+239769398+239460797+239218790+239061238+238906078+238858226
2262+238904770+238748620+238399397+238197730+238282934+238446652+238481368
2249+238459264+238423781+238320547+238270807+238320902+238322341+238245452
2235+238180223+238226038+238440803+238651103+238667788+238610482+238583837
2222+238570851+238665303+238842082+238918952+238900790+238931153+239026914
2208+239085155+239130428+239338616+239649758+239830741+239944009+240146031
2195+240359657+240512257+240643668+240721416+240670892+240547216+240521356
2181+240641912+240739504+240759870+240797782+240812113+240736439+240604262
2168+240521543+240539462+240592341+240633859+240637783+240673340+240822652
2154+240980876+241061483+241154852+241386452+241766822+242227612+242639074
2141+242830894+242825419+242865181+243132077+243533412+243860866+244096913
2127+244305213+244414950+244444136+244561440+244776560+244993698+245129146
2114+245143402+245169730+245285651+245391333+245463214+245543840+245586012
2100+245581061+245637115+245812268+246063357+246363737+246755299+247176458
2087+247472858+247644498+247807599+248043273+248330704+248595283+248818400
2073+249052037+249328519+249540649+249608102+249709412+250010334+250345934
2060+250580636+250812723+251035578+251164542+251253015+251425403+251641962
2046+251752595+251782043+251851869+252019903+252255184+252552630+252925750
2033+253219198+253327664+253361035+253455843+253688415+254019625+254210977
2019+254144197+254190573+254620029+255092422+255349883+255545402+255782533
2006+256031884+256269352+256491535+256783655+257202367+257479148+257346167
1992+257281853+257817757+258630404+259359678+259953729+260468538+260992483
1979+261438886+261853823+262379039+262878563+263087125+263054538+263299853
1965+264039386+264781964+265268932+265645584+265873540+265950336+266044788
1952+266170239+266159177+265822997+265042489+264112724+263959582+264710195
1938+265356564+265543825+265485323+265351744+265316859+265336160+264986097
1925+264126813+263520299+263298994+263033574+263529137+264757842+265278891
1911+264955155+264876417+265527868+266299987+266711673+266977430+267223044
1898+267177396+267032121+267166223+267024964+266727145+267396627+268574210
1884+269345022+269878814+270368977+270757494+270962823+270941559+270219946
1871+268440744+267362508+268927655+271376601+272721434+273192276+273536136
1857+273960154+274322082+274657795+274920580+274707086+273569283+271889373
1844+272079044+274700714+276759724+277509496+278074230+278316425+277255324
1830+276085327+276798084+278217058+279658492+281610194+283150844+283932269
1817+284523144+284846767+284471218+284177079+285084291+286502705+287147803
1803+286690003+286016783+286480432+287563320+287371481+286075136+286897910
1790+290476494+293126528+293939492+294291723+294714582+295604529+296872510
1776+296825592+294861932+293678725+296095664+300151555+303441624+304746508
1763+304743668+305867868+307738159+309376551+310889922+310797954+309529058
1749+310315284+313550344+316788338+318868125+320354403+322801873+325017612
1736+324826128+326221148+332385919+338552185+343781137+348125543+351512344
1722+353984964+354051259+353032666+356902623+365632467+373467787+378749244
1709+381505203+383206395+385932869+388031715+389228525+393826075+401388594
1695+411417903+421943523+428903265+433974591+437594281+439765363+447567012
1682+461418595+472488694+479504753+485345227+492749372+499147556+504548223
1668+513163790+521557305+526484159+531788860+539493946+545613835+546950110
1655+544485786+548218296+559413212+565168968+570217387+581292457+592345179
1641+599933147+604631036+607110868+614109512+628793771+641930205+652181305
1628+663000353+674567174+687557491+703984349+719310138+732284760+748509596
1614+764860443+775553480+783035018+789994797+796272350+800344031+802131286
1601+803179139+803426229+801624773+797583886+791751932+784720253+776869425
1587+768341154+759473565+751088496+743309418+734717394+723503420+712801639
1574+707743018+703386355+697414114+694381618+694316669+694036319+691103376
1560+683975806+682768906+694787754+707394955+718468268+729360038+740761311
1547+750926310+758617942+765920553+779069693+805217520+830284833+846635979
1533+861629923+878291464+891436493+899975376+906285591+909690218+909680501
1520+909144243+908349459+906848831+904762018+899676492+890621604+878988937
1506+874336378+882432428+889599610+891945023+892075668+894438570+900044287
1493+903599663+904335328+907995117+917022874+926651540+933850038+938916506
1479+942621513+944561536+944373266+944179242+948683441+956478962+960555500
1466+960002649+961023820+964323960+962377435+952709455+947611372+952629932
1452+956216251+954438638+950919136+950364117+951143430+949694822+945771949
1439+938918300+929084847+922133214+919559322+916385343+913360619+912685419
1425+912907546+914200098+916335267+918903106+924666149+932973564+939693727
1412+942945286+944434404+946939012+950608293+953269108+953614630+952829861
1398+953955295+958437372+963647490+967091355+968968671+969285045+967269983
1385+964874270+964703191+966051872+967011981+967139412+967664460+970143284
1371+973494321+974763779+973292150+970574981+968422921+968651101+970034462
1358+969987376+968551324+967244870+966571539+965050507+962280049+960056836
1344+959446883+958704118+955120714+950346852+947556663+945279562+942657014
1331+941776279+942990055+945049438+947337376+949448778+951545979+953989675
1317+955661233+955287608+954388412+955626404+958655537+961755001+965676155
1304+970636716+973917574+974176174+972896552+972737132+975537262+979870083
1290+983776887+986675599+988794924+992009636+996365627+1000085207+1003315092
1277+1006164700+1008374684+1011250824+1015113532+1017576361+1017275234
1265+1016395993+1016724401+1017271347+1018035712+1019505547+1019094627
1254+1015915565+1013028214+1012288961+1013426951+1014757471+1014759862
1242+1013973748+1013090024+1013117528+1014749025+1016332315+1016262882
1231+1015119735+1014642521+1015535588+1016893089+1017805588+1018028238
1219+1017422172+1016790919+1017557750+1018662032+1018461430+1018190125
1207+1018605604+1017912840+1015782753+1015711376+1019254794+1022392600
1196+1022939995+1022598134+1021658056+1021425540+1023415714+1025271207
1184+1025554247+1025721141+1026679007+1028516488+1030139838+1030195968
1173+1029521814+1029328312+1029636390+1030965191+1033166430+1034867436
1161+1036338840+1039307210+1043284568+1044613668+1042787996+1042175951
1150+1044120833+1046380294+1048273008+1050245767+1052212398+1054720445
1138+1057821403+1059225541+1058433074+1057563401+1056864807+1055966434
1126+1054542638+1052130035+1051288463+1052588938+1051494447+1047556252
1115+1044596627+1043091216+1041613384+1040057523+1039248240+1039585317
1103+1041280044+1044697675+1046975523+1045515853+1044657465+1047880399
1092+1051772703+1053031174+1052097747+1051135396+1052368679+1054336057
1080+1053569749+1052546560+1055675247+1059523156+1060240136+1061105698
1069+1062132325+1060326311+1057117652+1054023196+1053474381+1056562110
1057+1058558338+1057743674+1056588419+1056412332+1058324104+1060019354
1045+1057204948+1051902526+1048682657+1048779520+1051199747+1052611434
1034+1051925546+1050215497+1046228199+1042269376+1041324664+1041331465
1022+1040983102+1040723605+1040387201+1040298261+1041208144+1041670709
1011+1038082746+1032477029+1031998320+1036364700+1040082038+1042703764
999+1044385860+1043783158+1041796571+1039866115+1039311320+1041255529
988+1044706121+1046599357+1046148152+1045820194+1046927316+1049318021
976+1052256868+1054240914+1055553197+1057281333+1058383372+1059524725
964+1062517460+1065976721+1068217274+1067670851+1065025582+1064577366
953+1066248849+1066325682+1064052468+1061930528+1062362898+1064132216
941+1065329997+1066868667+1068498520+1068696058+1069427164+1070928912
930+1069452874+1066770085+1067232277+1069886590+1072108158+1072850176
918+1073036577+1073741823+1072777678+1069564909+1067309259+1065887482
907+1063392739+1060854198+1060092599+1062224405+1064901887+1063624059
895+1059801936+1058180977+1058283669+1057616167+1056386023+1054676124
883+1052780272+1051710146+1051651625+1051628156+1049163010+1045867504
872+1045934471+1046264223+1041715628+1034639329+1029319568+1026839399
860+1027301890+1029630187+1030611821+1027537545+1022446412+1020324472
849+1021191006+1021705740+1022185645+1022944479+1021367916+1018164863
837+1017461411+1019119067+1019394483+1017715153+1015537606+1014280032
826+1015898226+1018923921+1020351229+1019494186+1016082086+1012602122
814+1011739548+1012805115+1014957026+1015819450+1012775369+1008256669
802+1006312834+1006084877+1004543143+1001592486+998511932+997149723+996531175
789+994071560+992521305+993751449+992989028+986844436+980183243+978040151
775+977367866+974720953+972024262+970680514+970204944+969697086+966515783
762+960843847+956704004+954053652+949690337+943581023+939558672+940391947
748+942143401+939897243+936041412+934099894+932401953+928528707+923642661
735+920973475+920517487+918228279+912993272+906770728+900464624+894785886
721+891013315+889962996+889736833+887540152+883442463+881119472+883040885
708+885879731+886879601+886952024+887619003+890127349+891183124+887858245
694+886070093+888695183+889447739+886197450+882885950+882019565+883980889
681+887281328+889783844+889683244+887928725+886478472+881986604+874628835
667+877577847+889225612+895669760+895942187+890561662+883441043+881522993
654+885760521+891241048+893239892+894503295+899235377+903141284+900710966
640+894035797+888163782+883328410+879723929+881782490+889268886+892874040
627+886071513+875751354+871477428+871628776+866987428+859258650+857640681
613+858522313+855642510+853801517+860336998+872283647+878135930+873620295
600+865184029
##END=
