##TITLE=Sample description
##JCAMP-DX=4.24
##DATA TYPE=INFRARED SPECTRUM
##DATE=12/9/2023
##SAMPLING PROCEDURE=Instrument type and / or accessory
##ORIGIN=Default
##XUNITS=1/CM
##YUNITS=ABSORBANCE
##RESOLUTION=4
##FIRSTX=4397.6552
##LASTX=599.8556
##DELTAX=-1.9287962
##MAXY=1.9878527
##MINY=0.32384825
##XFACTOR=1
##YFACTOR=1.8513321e-009
##NPOINTS=1970
##FIRSTY=0.35084397
##XYDATA=(X++(Y..Y))
4398+189508931+189509849+189208483+188497219+187992682+188449537+188666471
4384+187839818+187094781+187198257+187647820+187809296+188235115+189353668
4371+190261953+190029533+189100000+188864827+189258579+189293334+189069108
4357+188348411+186703959+185432541+185548268+186511285+187930126+189146088
4344+189648547+190092926+190616378+190589366+190138982+190293875+191047460
4330+191326064+190917583+189957335+188922007+188803092+189661039+190776277
4317+191286174+190681316+189794570+189502557+189285382+189145412+189705018
4303+190286647+190350668+190569517+190842567+190505351+190387339+190853466
4290+190570805+189811280+190058236+191108438+191623712+191070721+190566233
4276+190907973+191187784+190760099+189888227+189091709+188956053+189214181
4263+189239809+189340774+190204420+191382583+191595154+190857538+190119423
4249+190218602+191446443+192371228+192019556+191211593+190627582+190472254
4236+190314818+190007286+190248028+190966408+191750079+192644423+193394837
4222+193372590+192677826+192229552+192332931+192388662+192000223+191916321
4209+192533188+192528809+191302127+189980145+189756950+190694275+191517805
4195+191805745+192488967+193175795+192771950+191722134+191072202+191346669
4182+192252201+192971128+193298315+193205608+192795372+192686455+192888353
4168+193106124+193208312+192837146+191865661+190846367+190804287+191760591
4155+192509588+192384863+191646378+191079221+191047122+191149954+191548889
4141+192375140+192896128+192577618+191711155+191263766+191691339+192414579
4128+192792555+192516671+192115676+192579211+193349956+193157331+192432239
4114+192116191+192281885+192460168+191871328+190918211+190933423+191691226
4101+191851286+191413749+191351032+191648647+192045683+192598432+192959183
4087+192916347+192585489+192129906+191670669+191358115+191344528+191745540
4074+192461698+192724059+192454711+192500477+192740543+192626346+192527489
4060+192966202+193507248+193619546+193363060+192737710+192016353+191561011
4047+191174133+191049038+191875706+193152195+193524698+192774783+191673792
4033+191134694+191578944+192331338+192954917+193763814+194269139+193890327
4020+193337159+193164703+192929950+192337407+191676947+191405619+191665309
4006+192029279+192043413+191905777+191858707+191577511+191130766+191160595
3993+191722665+192460683+193115283+193166265+192664948+192351991+192335877
3979+192379374+192225463+191592289+191059726+191492821+192535152+193284068
3966+193477773+193209471+192904773+192585795+191992608+191798002+191862748
3952+191100454+189993152+189747678+189739967+189303202+189608110+190662433
3939+191302738+191189362+190165704+189498709+190872815+192415143+191641178
3925+190175991+190245421+190190865+189082276+189370458+191794252+193583358
3912+193574488+192434798+189320362+184505518+181729763+182939254+186911379
3898+191484692+192692797+189509559+186672053+187711712+188182427+186848050
3885+186609562+185817181+186077144+189239793+189374113+186275662+183799712
3871+182670759+184354473+185924215+185014466+185887190+188914730+189355938
3858+184945615+177259992+175876388+184985345+191379959+192042850+189120331
3844+185040351+181676737+179451349+180084201+183376630+185690137+187054713
3831+188742082+189655888+189370120+186872020+181565953+180155305+183362496
3817+184743733+187744632+192080100+192407239+188783373+186114121+186104510
3804+184213135+183543757+187078281+188910690+189677040+191380104+192458317
3790+192804017+192463774+191718496+191704603+191021494+189432226+190393359
3777+192946933+193128435+190409103+187724976+187898188+189382467+190876308
3763+191136561+188959273+187569858+187947689+185530319+179072520+174927151
3750+178551210+180748894+178814489+181610785+186839744+186719574+182130437
3736+178506700+180942695+187374415+191664246+191463153+189683174+189660267
3723+191046510+193105721+195431849+196252498+193624987+189311991+190407622
3709+197401508+203542535+206159034+207556868+212206002+218697927+222730580
3696+223723877+221511609+216589135+213992886+217273452+220730867+220385344
3682+216919767+211683243+205080403+200795514+203106333+204318769+203350617
3669+206881599+211190844+212349481+212215065+211658806+209814710+208120451
3655+207962242+205341960+199109273+197235572+204142032+211349922+214302189
3642+214567979+214497165+214331181+213891342+213043005+209929873+205762723
3628+208053581+213773667+215301507+212790673+209858560+210354677+212334896
3615+212868988+213090027+213046692+213072416+215107190+217168140+216782791
3601+215550990+215335280+215352311+215590043+216752689+216869220+214746359
3588+214255280+217509445+220341558+221105703+221050858+221027211+221158407
3574+221177210+220271372+217446020+214521344+215736903+219426706+221538427
3561+222373789+222942202+222947337+222413712+222163955+222476751+222330229
3547+221655845+221951078+223205545+223958663+223932327+223962655+224536187
3534+225004922+224415840+223034007+222069042+222007275+222505324+223164657
3520+223607555+223773555+223951902+224019046+223710114+223626952+224053898
3507+223906716+223034265+222948013+223965859+224793655+224903007+224695523
3493+224434014+224035675+223541473+223319485+223366313+223480157+223910273
3480+224432083+224511107+224485076+224783899+225049883+224820715+224459175
3466+224590114+224892656+224940917+225101106+225555739+225895563+225787724
3453+225432801+225089242+224942881+225419568+226264894+226860174+227178701
3439+227232628+227275464+227599850+227914562+228031673+228067732+228210020
3426+228436645+228433264+228513206+229192033+230086039+230753420+231153514
3412+231244756+231182056+231251855+231566052+232195104+232979565+233266025
3399+233030563+233056303+233501986+234103238+234639487+234869250+234925287
3385+235073499+235485344+236178337+236870477+237337522+237670504+238035795
3372+238435132+238656638+238656863+238943049+239734094+240661647+241532746
3358+242005908+241851804+241740681+242260510+243040512+243500570+243822091
3345+244478220+245097260+245219683+245452956+246339428+247282001+247507708
3331+247184384+247003912+247229281+247718202+248351811+248978577+249216583
3318+248897783+248451456+248157382+247867348+247752394+248117958+248488271
3304+247972306+246552772+245731947+246977351+249363346+251257555+252716335
3291+254010886+254984077+255784442+256714330+257941785+259145206+260127830
3277+261202389+262300884+263404693+264730859+265527522+265267640+264977799
3264+265360942+265816702+265906802+265912371+266059940+266100892+265759813
3250+265498707+265640544+265615062+265294104+264840099+264402626+264470172
3237+264769011+265115017+265954886+266739056+266573813+265819487+265510008
3223+265645406+265514386+265170039+264892207+264489682+263862063+263416412
3210+263496208+263763415+263810534+263603999+263293199+263000848+262442561
3196+261688879+261426244+261542293+261377967+260740882+259847616+259140023
3183+258736902+258348060+257835894+257394863+257149195+256833244+256323878
3169+255925458+255824719+255865253+255941186+255928614+255818698+255915526
3156+255878984+255387696+254981372+254741612+254497666+254527447+254659674
3142+254405201+254058085+253960452+253575393+252770472+252247552+252141532
3129+251850806+251183103+250448690+249992801+250028571+249969444+249098876
3115+247747017+246580347+245802213+245199561+244535834+243586661+242295619
3102+241258472+240655369+239699966+238386855+237564098+237263021+236999951
3088+236614490+236145321+235756044+235495309+235255243+234986394+234714953
3075+234505972+234369398+234170462+233928754+233992871+234247329+234172603
3061+233901307+233938928+234220333+234211849+233949874+233873989+233953351
3047+234112108+234293546+234135176+233633682+233307300+233248108+232924156
3034+232261798+231858661+231913603+232036670+231956632+231598988+231032942
3020+230647899+230738176+230998299+230911645+230518892+230232303+230043090
3007+229649306+229178913+228940859+228829479+228623926+228265783+228040350
2993+228421706+229221105+229996648+230753372+231374005+231606457+231562575
2980+231541068+231589893+231552449+231415972+231210565+230881156+230576634
2966+230574316+230816024+230929143+230609941+230025543+229747438+229833449
2953+229680214+229210336+229050823+229370155+229704312+229779263+229683836
2939+229574484+229529249+229543141+229549983+229480875+229265004+228837592
2926+228502436+228524265+228472430+227919359+227019960+226353014+226371623
2912+226788732+227064455+227039342+226857550+226767048+226838361+226888393
2899+226872923+227023599+227331774+227581499+227830837+228019294+227952714
2885+227998142+228559551+229175162+229200243+228912575+228954301+229212606
2872+229197570+228911658+228733874+228809614+228941133+229041712+229135175
2858+229110063+228893081+228509342+228040849+227492639+226823101+226388332
2845+226543321+226979265+227309736+227548354+227726878+227847402+228008766
2831+228225490+228524297+228925631+229185851+229107520+228839717+228726131
2818+228976484+229294077+229235593+228917920+228830686+229114023+229449452
2804+229673936+229969893+230398303+230749299+230912836+231003741+231092101
2791+231186611+231190314+231016023+230944678+231150617+231378336+231415103
2777+231303722+231309325+231568354+231815777+231817789+231638572+231478576
2764+231557230+231821346+231930538+231829959+231804717+231931294+232071956
2750+232293993+232674029+232859363+232549964+232064342+231862637+232020395
2737+232371101+232678263+232760732+232776154+232934427+233084410+233222464
2723+233525827+233722107+233619822+233556702+233725037+234078238+234504845
2710+234712281+234656003+234530038+234332470+234246749+234534964+234894556
2696+235041738+235187986+235376877+235512984+235776440+236155414+236352950
2683+236347058+236349569+236417083+236523248+236721669+236868610+236746878
2669+236551628+236519288+236576789+236577852+236394579+236108344+236014575
2656+236236595+236527144+236524391+236286353+236173846+236246173+236294644
2642+236229786+236128144+236063592+236068808+236085711+235992633+235836936
2629+235751730+235718005+235552778+235183382+234861700+234761798+234815291
2615+234904537+234918558+234963744+235028441+234847760+234530779+234310883
2602+234160063+234054349+233973313+233947717+234015537+234021139+233995914
2588+234120044+234190633+234045946+233855235+233650085+233422962+233299589
2575+233286582+233290332+233261823+233136148+232923513+232806675+232759347
2561+232566593+232316884+232156309+231987025+231784032+231680072+231652593
2548+231501129+231214042+230997865+230901230+230787885+230654564+230585617
2534+230522015+230422563+230357721+230302699+230142027+229887585+229687844
2521+229571490+229427527+229284305+229284627+229370960+229344398+229239779
2507+229175195+229044770+228865409+228840023+228910451+228957166+229052304
2494+229173794+229224293+229213523+229227239+229339327+229568334+229884012
2480+230103972+230108769+230066818+230061634+230002024+229897003+229855261
2467+229961474+230171083+230306691+230271646+230165610+230083672+230089033
2453+230218668+230365432+230466832+230542829+230618151+230779949+231050730
2440+231372975+231686495+231902946+231976448+231973631+231965743+231978911
2426+232090871+232304054+232471181+232568702+232726943+232955306+233095002
2413+233016397+232856288+232935988+233277519+233618759+233883922+234136995
2399+234367499+234556036+234676914+234728411+234831565+235013535+235019346
2386+234552060+233412837+231360258+228235020+224266646+219904568+215473946
2372+211137431+206889825+202761905+198897732+195589108+193568999+193237707
2359+194297826+196971263+201584128+207878341+214270686+217395553+215477037
2345+210793583+207598642+206865759+207396213+208557087+209789307+210687917
2332+211437687+212834249+214993411+217038150+218666907+220461664+222798835
2318+225393184+227680854+229491403+231171994+232954871+234784769+236558937
2305+238133991+239445412+240515592+241314847+241966919+242690498+243459665
2291+244181876+244857886+245439997+245864898+246143422+246312014+246351775
2278+246320706+246422686+246695607+246974099+247198502+247345796+247359383
2264+247371633+247556774+247837905+248052682+248262967+248581123+248853932
2251+248935838+248940828+249012914+249151113+249249616+249298199+249462750
2237+249789615+250050335+250107514+250111764+250184977+250277893+250329341
2224+250401057+250588403+250788852+250869953+250901231+250956285+251058941
2210+251261097+251497702+251655911+251776467+251904106+251980023+252037911
2197+252176094+252341209+252427090+252450094+252504698+252617624+252716545
2183+252855082+253153631+253438433+253487177+253456495+253550667+253677726
2170+253762159+253876276+254020400+254181780+254356231+254456263+254486607
2156+254558967+254653831+254686204+254733080+254954022+255304616+255542621
2143+255617637+255686889+255760070+255826618+256004853+256255624+256411820
2129+256458085+256490088+256549231+256617743+256709790+256824503+256912477
2116+257007840+257147553+257256165+257313956+257392561+257488616+257529199
2102+257540644+257595200+257673676+257800994+258011054+258224945+258402133
2089+258510117+258471224+258374960+258476810+258804980+259059276+259060966
2075+258910098+258827887+258981234+259165473+259076291+258886740+258894870
2062+259043404+259265456+259545719+259708483+259724259+259752430+259835784
2048+259875514+259893012+260006727+260119379+260157498+260192076+260213712
2035+260266287+260396663+260547692+260660393+260714256+260791219+260921917
2021+260896563+260647547+260579984+261004515+261595464+261919528+262040326
2008+262193528+262345041+262449757+262636652+262894586+263051974+262982448
1994+262685605+262574981+263008462+263641652+264178577+264574936+264787701
1981+264949612+265147631+265355855+265535893+265693393+265721307+265414467
1967+265187102+265593652+266233538+266646494+266961673+267184916+267313264
1954+267553475+267875446+268080339+268035619+267563134+266818837+266874004
1940+268119328+269317340+269851738+270109930+270405260+270771452+271002616
1927+270816365+270281564+270145345+270412729+270338100+270697788+272009370
1913+272984574+273106369+273154147+273690525+274471718+275117013+275556160
1900+275749302+275626572+275570681+275931400+276007284+275772064+276507893
1886+277897292+278815509+279390714+279946377+280438776+280779340+280944407
1873+280396986+278587274+277324565+279008199+281927723+283716636+284490810
1859+285039229+285661891+286300941+286850937+287164489+286937511+285874446
1846+284374166+284784563+287665677+289892869+290741092+291507089+291933390
1832+290778761+289333922+290054877+291727532+293439465+295818845+297736927
1819+298607301+299253949+299749535+299490360+299308101+300506516+302277851
1805+303125398+302630456+301822863+302422859+303973043+304132346+302717642
1792+303269860+307031652+310121200+311169713+311513175+311813398+312561816
1778+313764287+313564739+311063242+309155753+311389447+315728248+319258006
1765+320596955+320168625+320630438+322135966+323463099+324644031+324148864
1751+321846850+321188483+323513613+326309507+327811236+328224530+329200409
1738+330176417+328593330+327450613+331332913+336212244+339916277+342254962
1724+343254440+343144847+340460736+335816400+335431985+341060571+346864462
1711+350041680+350136335+348453570+347652416+346744502+344055015+343611907
1697+347165974+353520730+360375966+363518316+363615740+361688096+357338607
1684+356859923+364140173+370543770+372697942+372486578+373130650+373861779
1670+374543004+379113226+384542812+386340450+387441054+391090677+393967606
1657+392005803+385170528+383507821+391357159+394674041+395918528+403115166
1643+411222487+414828838+414050930+410418918+410752560+419197870+426517592
1630+429350252+430759741+432453388+434758621+439410587+443845169+445453594
1616+449046424+456759350+463107120+467211408+471473615+476733594+481978474
1603+487021101+492473932+498131365+503360501+508543533+514421280+520677551
1589+526672522+532313117+538049204+544324727+550827326+555744745+558661081
1576+564128078+572340711+577607194+581989715+590269830+599793658+606824972
1562+608933458+605894907+610663518+628363727+644020485+656040627+665859302
1549+674682556+681349995+684298013+684746046+688151497+702736787+719138936
1535+729183624+738091165+748788908+756778941+761834864+766813905+771246781
1522+776645201+785967035+796349261+806642241+817032194+824810831+827569796
1508+826548424+833330609+851906730+865898527+871655477+874026679+879114862
1495+886817196+892293207+895015405+898232190+905100852+913890558+920774545
1481+924220305+925270138+925427316+924676130+923516897+926647849+934038658
1468+938414613+938571534+939549892+941068878+939039335+933851731+934094421
1454+941817617+947183906+945896793+940441258+937824211+938700509+936660664
1441+930133596+922417548+916100718+913323530+912699774+911235391+908751698
1427+906043151+903482253+902834157+904331057+907026725+912962103+922580071
1414+931405642+936299108+940583176+944861062+944404400+942082071+942458051
1400+943904082+946876632+950769782+953097584+956558218+961928886+966180758
1387+968681966+971126767+973381807+973691013+973202027+975002338+977910561
1373+979555560+981413823+983949479+985778637+985186497+981445890+979012228
1360+980145962+980505458+979603403+979848669+979769468+977381266+974152890
1346+972295336+972220771+971088261+966464659+961773961+959036953+955649660
1333+952409114+951791153+953469893+955232728+955234466+955498792+959594580
1319+965542900+969336566+971605257+974122691+977308311+979492264+978502573
1306+976564208+977440957+980790453+983249548+984002860+984209813+983472921
1292+983936344+988675142+995636720+1001739450+1007553579+1014097903+1020009777
1279+1023943042+1026785072+1028976301+1030220079+1031984524+1034131065
1267+1034623270+1034839625+1037265237+1040982985+1043288508+1043311818
1256+1042653998+1043123345+1044187987+1044437245+1045969174+1049227298
1244+1050872491+1052982780+1057477922+1058926013+1056873354+1056812826
1233+1058193178+1058150422+1057841860+1058211658+1058477207+1057572770
1221+1055225972+1054991138+1059404246+1062573639+1059940495+1056282566
1209+1054494811+1053291471+1053606923+1056143803+1058852478+1060143326
1198+1060212032+1059781320+1059388727+1058637863+1056552235+1052563529
1186+1049293814+1050060068+1052046147+1052232688+1051723483+1050611192
1175+1049424979+1047734133+1044040854+1040139462+1037621513+1036207806
1163+1034860230+1032623670+1031717365+1033500290+1035254174+1035564153
1151+1035639297+1035638138+1034038535+1031502814+1031103911+1031996629
1140+1030628319+1027536065+1024408719+1021584848+1021265403+1024035894
1128+1026868394+1026245024+1021207323+1016530855+1015273233+1013186833
1117+1007957246+1003137960+1000383116+999106434+1001712470+1006088424
1105+1004558491+999678548+999604949+1003451673+1006443734+1008898966+1011509574
1092+1011114084+1008448293+1007452807+1007158153+1008024986+1014319022
1080+1021807126+1023126885+1021991606+1023809753+1025344257+1022923538
1069+1020836559+1023106989+1027253582+1031291160+1034336086+1034130035
1057+1032480915+1031997144+1031949881+1032558892+1033214136+1032493793
1045+1030657552+1028411076+1027437740+1027117910+1026837358+1029268829
1034+1031806740+1028910557+1023161206+1021581306+1025150053+1028503091
1022+1027870062+1023302480+1016793700+1013390309+1016500012+1022368101
1011+1024378197+1020662638+1016253781+1015197509+1014398802+1012201843
999+1013102030+1019340174+1025785658+1028595878+1031972547+1036273614
988+1036355391+1034190047+1033883159+1032838092+1030098058+1031112540
976+1037212565+1043875755+1047530207+1047456093+1046111993+1046270009
964+1047613400+1047652679+1046988163+1049783509+1055072142+1057190351
953+1056372327+1058898711+1064494619+1065453531+1060371722+1056443350
941+1059912291+1065620754+1061656453+1051224517+1047196017+1051036044
930+1053642917+1053985993+1058829233+1064349352+1065232927+1062915105
918+1057776181+1053755215+1053919928+1056108710+1058372507+1059678745
907+1060041717+1059542815+1058415907+1055878383+1049595358+1042318392
895+1042505319+1054957268+1070409970+1073741823+1065946573+1057300331
883+1050714153+1045887976+1046366145+1052637965+1057644373+1057067171
872+1052847752+1048001099+1043586446+1039202765+1036176384+1034009688
860+1031101271+1031148856+1035633052+1039260330+1039907461+1036816624
849+1029270697+1024129455+1023406987+1021336556+1019195487+1020161547
837+1021650076+1022108991+1022008283+1019428133+1015267373+1015272718
826+1019471468+1023710526+1026262088+1024065192+1018959301+1017391378
814+1018038637+1017496722+1016360605+1014686180+1014961967+1018473921
802+1018854215+1016068141+1017572381+1019684538+1016939095+1014569696
791+1014939108+1013810654+1008257502+1000707647+995509934+992955604+990962120
777+988579521+986103877+983817349+983706983+987590989+990998114+990478607
764+989599669+988978295+985049279+981003909+982924760+985427834+981546211
750+976059124+971274995+965076580+960584915+958382354+954054950+948551187
737+944163320+939756008+939008620+943733059+946332527+943288760+937627753
723+931399912+927084807+925826348+926134073+924026295+917700836+913093783
710+915612118+924125843+933857591+940702750+943205245+939790457+931896045
696+925730019+923269506+920915497+919246673+922563909+930035722+937455185
683+938867217+930895923+921556060+918786212+921231013+924022045+922131265
669+916275926+918350027+928596066+934883212+933436473+926984486+926605738
656+933315547+934923263+932611366+936937288+945465050+946929304+938475913
642+925302076+914916437+915681532+927600322+939406171+939907198+932460369
629+919827996+904796025+909201599+937625757+968587504+993162621+988900961
615+950661926+926596336+934734211+953009110+951735841+935817398+931199269
602+938320795+940928119
##END=
