##TITLE=Sample description
##JCAMP-DX=4.24
##DATA TYPE=INFRARED SPECTRUM
##DATE=12/9/2023
##SAMPLING PROCEDURE=Instrument type and / or accessory
##ORIGIN=Default
##XUNITS=1/CM
##YUNITS=ABSORBANCE
##RESOLUTION=4
##FIRSTX=4397.6552
##LASTX=599.8556
##DELTAX=-1.9287962
##MAXY=1.9697806
##MINY=0.33608875
##XFACTOR=1
##YFACTOR=1.8345011e-009
##NPOINTS=1970
##FIRSTY=0.34564248
##XYDATA=(X++(Y..Y))
4398+188412248+188666002+188662996+188231371+188490242+189954527+190969511
4384+190017381+188150485+187314152+187773232+188567035+188993072+189070254
4371+189313416+189974639+190785808+191162637+190756030+190339252+190593396
4357+190391303+189096685+188343302+189014175+190140716+190571546+189820973
4344+188833346+188879370+189996294+191063475+191194901+191221365+191696804
4330+191745053+190972127+189811892+189068776+188918814+188822966+189092234
4317+189852164+190116998+189862562+189994930+190387842+190521266+190733952
4303+191126426+191021432+190534539+190335678+190241065+190085189+189915181
4290+189843701+190678214+192279724+193318573+193226705+192315480+191421996
4276+191094211+191005852+190980883+190880795+190202872+189481037+189916107
4263+190868042+191099962+191260581+191812846+191816534+190999955+190319108
4249+190471864+190849831+190512331+189834473+189652020+189430773+188601946
4236+188198880+189151091+190719770+191666750+191988216+192217082+192160531
4222+191842656+191650992+191343839+190987154+191144312+191544568+192115710
4209+193139727+193718926+192979806+191374153+190462133+191260922+192458034
4195+192350262+191385818+191067650+191250168+190805692+190339788+190822035
4182+191808736+192515024+192572045+192424926+192517639+192360448+191898297
4168+191755077+191953077+192294881+192900333+193297941+192762231+192097483
4155+192226569+192369188+192175818+192377506+192779841+192401143+191590640
4141+191864409+193087660+193560988+192758608+191787747+191665597+192158371
4128+192380674+192094737+192231231+193192589+193508515+192301493+190968748
4114+191136921+192438394+192820763+191902066+191530613+191917028+191780127
4101+191200847+191104576+191795236+192512522+192684821+192845408+193075963
4087+192940119+192665895+192568244+192607103+192721552+192910357+193335436
4074+193762886+193158328+191628167+191119424+192117854+192893494+192839478
4060+192476099+191822886+191541855+192125555+192545191+192232515+191778210
4047+191600680+191703920+191853378+192057324+192578283+193047404+192951750
4033+192422473+191908564+191751275+191739059+191621994+191660203+191885431
4020+191914136+191723772+191874497+192644337+193606231+194130684+194221642
4006+194449160+194535115+194093969+193551322+192649341+191287403+190623320
3993+190999370+191694238+192633404+193882940+194730872+194591795+193823856
3979+193066557+192509175+192092511+191986039+192503489+193015952+192687372
3966+192245381+192352017+192559780+192604504+192526980+192455939+192578543
3952+192932012+193373353+193590798+193271997+192755440+192635971+192572955
3939+192290479+191922828+191386760+191168632+191904015+192932792+193142098
3925+192953050+193033156+192399453+191235125+191323029+192725110+193826569
3912+193846518+193045357+191317245+188832957+187559572+188704504+191151201
3898+193362111+193569208+191492826+190103644+191446689+191870387+190691178
3885+190722044+190576404+190523638+191698202+190848320+188625161+187614969
3871+187774662+189391394+190121124+189250562+189992070+191758521+191488018
3858+188252782+183204439+183495542+190992710+194968332+194215144+191224321
3844+188319259+187064215+187080087+188540717+190913806+191804707+191671169
3831+192069817+192418071+192182154+190633246+187627153+187237814+189231263
3817+190443321+193027357+195110903+193966101+190832513+189074120+189422326
3804+188374168+188030106+190547535+192347435+193831621+195040673+194641685
3790+193858946+193525102+193364239+193315909+192474442+191359532+192109358
3777+193633914+193837258+192648366+191614716+192376076+193834529+194747069
3763+194153102+192049542+191314354+192130558+190845250+186945039+184773832
3750+187041033+187888738+186861326+189565659+192839445+192060118+188990554
3736+187066327+188344683+191619460+193954177+193788684+192536435+192496520
3723+193779765+195781694+197862039+198939000+198235344+196919006+198597520
3709+202965503+206612740+208406922+209860761+213993997+219524261+223461512
3696+225447049+224960010+222312779+220931362+222590625+223609785+222121603
3682+219034331+215276836+210861043+207867085+209024997+209608241+208925850
3669+210936292+213055870+213142344+212781939+212447169+211447764+210879238
3655+211232040+209497626+205765913+205752770+210460641+213970213+215033089
3642+215229740+215376583+215165993+214765169+214200639+212371871+210724938
3628+213336137+216499259+216382567+214360494+212860551+213938210+215773996
3615+216131494+215967837+215921066+216037221+217050971+218035998+217759224
3601+217147290+217152261+216958485+216906597+218068051+218806894+217948809
3588+217869206+219632456+220783691+220792561+220669323+220508883+220102454
3574+219907346+219757790+218764217+217707905+218678766+220650283+221667639
3561+221891323+221832937+221721737+221558795+221470094+221721363+221783583
3547+221438400+221470988+222121294+222852129+223319706+223502954+223360335
3534+222919027+222465292+222285698+222365398+222467127+222612800+222892401
3520+223086096+223126547+223034533+222589927+222128978+222309010+222549248
3507+222088803+221856412+222839831+224030315+224082982+223312265+222678936
3493+222406938+222193554+221927827+221832076+221928834+222018411+222312324
3480+222903919+223171596+222803961+222425182+222650766+223069071+222936605
3466+222540281+222514515+222878089+223610597+224598207+225281816+225273239
3453+224828779+224443453+224371453+224578144+224830014+225114813+225631484
3439+226194665+226386151+226306061+226504499+226969509+227143709+226921942
3426+226749107+227075836+227862279+228613306+229043860+229360663+229899996
3412+230508307+230583849+230218082+230214411+230821292+231685844+232480962
3399+233108459+233639068+234068111+234439109+234804014+235098301+235482668
3385+236078796+236614685+236998338+237341328+237535559+237631830+237803723
3372+238125611+238696752+239372742+239982890+240591591+241205962+241713990
3358+242001616+242247069+242769409+243477468+244006306+244132745+243980460
3345+243844095+243951023+244573614+245420539+245901827+246277032+246638608
3331+246871226+247418552+248083398+248352520+248320842+248340726+248601255
3318+248886492+249153925+249303042+248968028+248493563+248195280+247875456
3304+247810035+248062019+248321605+248963382+250310180+252023167+253550906
3291+254573932+255470600+256617465+257957879+259476407+260743699+261550709
3277+262677933+264057742+264903464+265257388+265290318+265339623+265747562
3264+266419719+267337360+267983068+267960487+267970283+268240007+268121723
3250+267797058+267926794+268104406+267827161+267483309+267211393+267005709
3237+267268528+267623735+267537212+267590026+267826738+267440031+266655115
3223+266504422+266954064+267135981+266985629+266730852+266354493+265978492
3210+265658732+265397651+265147146+264951031+264816161+264501665+263770376
3196+262719635+261927815+261574265+261510648+261719110+261523124+260608488
3183+259752450+259203629+258614228+257976999+257494460+257177122+256882071
3169+256819835+257041114+257013205+256711591+256371866+255883138+255496642
3156+255525689+255761313+255815719+255639635+255516169+255464801+255385604
3142+255325334+255095736+254532051+253785101+253151122+252832126+252534233
3129+252021217+251580462+251301722+251125719+251101675+250889250+250012108
3115+248592385+247277623+246513306+246062332+245400378+244415692+243326888
3102+242231002+241129706+240058821+239153542+238613771+238342065+238017546
3088+237485539+236768351+236219660+236202066+236391732+236235808+235627903
3075+234941743+234691157+234838260+234933669+234911673+234906686+234757081
3061+234403239+234129210+234144546+234466336+234900951+235073153+234882382
3047+234577845+234379293+234241759+233923104+233451368+233232363+233311300
3034+233058699+232257229+231592676+231358108+231328784+231485115+231585739
3020+231435111+231219339+231062976+231022298+230948836+230686845+230389293
3007+230178622+230007167+229665964+229142437+228739631+228522608+228447619
2993+228568339+228886506+229488287+230339663+231119705+231596981+231739681
2980+231599206+231341423+231180301+231169839+231057956+230752330+230623618
2966+230761866+230877778+230792733+230480284+230167445+230018945+229927337
2953+229734958+229409675+229230163+229422818+229788714+229925989+229766897
2939+229692964+229876407+229956449+229524255+228844057+228549803+228660418
2926+228636212+228109096+227373664+226930228+226715657+226470855+226316506
2912+226381602+226518454+226585466+226470270+226345667+226544999+226761047
2899+226651602+226546380+226788892+227255982+227506958+227460707+227524145
2885+227715403+227816970+228014369+228339587+228549543+228661247+228773828
2872+228928013+229082540+229013871+228778945+228653774+228550875+228522884
2858+228767053+228913701+228737974+228391751+227895501+227460285+227240646
2845+227193128+227418712+227785876+228008715+228174776+228380135+228457382
2831+228464384+228572205+228743303+228935064+229039165+228931896+228765754
2818+228774559+228969309+229224168+229411495+229484697+229561310+229741375
2804+229980785+230186907+230313297+230446055+230753971+231205351+231547497
2791+231709481+231670703+231458894+231440505+231571345+231495170+231505080
2777+231851336+232108161+232033399+231893655+231738722+231436784+231205530
2764+231260943+231546116+231932563+232154119+232056159+231953894+232149846
2750+232567192+232929970+232929807+232667200+232561182+232714847+232987836
2737+233190450+233182847+233102562+233173294+233407782+233650651+233780712
2723+233795934+233750869+233741008+233845402+233988005+234071327+234179376
2710+234372681+234532894+234600199+234719700+235002924+235300995+235485674
2696+235695338+235979650+236154760+236191458+236237189+236299685+236321584
2683+236412055+236661001+236872695+236921448+237006639+237132948+237099076
2669+237005762+237037311+237106354+237073489+236971955+236862461+236825876
2656+236962647+237125978+237205175+237207774+237032323+236892596+236915583
2642+236823797+236660091+236513996+236336465+236270638+236305063+236387963
2629+236573600+236672080+236498205+236157554+235834886+235669361+235637017
2615+235537887+235390930+235391466+235423519+235295992+235054779+234770419
2602+234625753+234726523+234775146+234665197+234628384+234664644+234633892
2588+234523423+234362008+234193201+234162627+234282096+234284890+234124596
2575+234005680+233966869+233919335+233757530+233564680+233519323+233406319
2561+232988811+232540209+232310579+232138718+231963072+232014132+232262200
2548+232344029+232102816+231708490+231423869+231338743+231254250+231038803
2534+230828359+230724404+230643648+230500087+230319048+230167234+230100790
2521+230082189+230008142+229887389+229744738+229557233+229406946+229435392
2507+229618397+229678375+229481789+229296639+229261175+229218775+229173872
2494+229220042+229319172+229475534+229691908+229834722+229892101+230049665
2480+230286167+230356282+230248006+230157649+230128894+230149429+230272407
2467+230399918+230427291+230471576+230573403+230584970+230475540+230403914
2453+230489999+230727621+231018756+231206180+231273631+231336842+231407169
2440+231495788+231722477+232039751+232219491+232246003+232291474+232367552
2426+232405209+232518050+232788131+233029067+233088201+233093286+233255009
2413+233570935+233939658+234272706+234374842+234303833+234324627+234437159
2399+234568195+234712991+234865325+235050945+235266474+235433250+235472450
2386+235265743+234457872+232700454+230111122+227061523+223651568+219916394
2372+216123468+212367160+208676028+205284430+202594181+201020791+200510050
2359+201238188+203820746+208121521+213675651+219124477+221734473+220199699
2345+216310243+213565799+212986469+213531017+214696759+215974465+216699922
2332+217086321+218073834+219871313+221757850+223309877+224893306+226845540
2318+229036566+231141377+232855972+234285443+235767403+237252433+238545198
2305+239699601+240774645+241693050+242411911+243044429+243695271+244288230
2291+244783570+245268530+245798343+246311489+246639079+246730183+246718828
2278+246734846+246842261+247019255+247216556+247457200+247707575+247877584
2264+248042801+248298894+248583953+248836863+249017512+249095312+249140165
2251+249297893+249574602+249730249+249733693+249892753+250201839+250374008
2237+250438600+250568873+250785474+251044962+251204135+251182870+251124208
2224+251124500+251156455+251247803+251423319+251589965+251659723+251665328
2210+251718483+251868412+252031224+252164697+252301240+252456628+252648308
2197+252821842+252909747+253020021+253259625+253476648+253522444+253493105
2183+253553262+253760002+253956929+254023893+254089817+254176016+254178761
2170+254201943+254365048+254546087+254663704+254809475+254990677+255104753
2156+255120689+255171034+255350871+255530497+255628653+255754652+255903445
2143+255981130+256095287+256293579+256412951+256429034+256487518+256671465
2129+256863990+256929963+256965995+257107331+257341428+257571643+257701070
2116+257739263+257788779+257915900+258125174+258297328+258288782+258221006
2102+258257250+258329965+258344472+258350125+258464802+258696755+258948689
2089+259076541+259002933+258888013+258903251+258977444+259039160+259193281
2075+259390046+259491304+259582344+259683829+259743125+259789620+259787800
2062+259780002+259895573+260101841+260278787+260395234+260474480+260533451
2048+260559785+260549875+260544952+260586443+260678474+260784752+260920434
2035+261080630+261199645+261283423+261342621+261399464+261457623+261549345
2021+261763395+261977104+262100342+262247981+262403466+262495935+262632089
2008+262897751+263151895+263302051+263413999+263537643+263721980+263850482
1994+263745894+263670645+263993523+264582405+265111764+265398123+265495904
1981+265601370+265775781+265979125+266155973+266312304+266449951+266518085
1967+266669574+267004003+267321732+267556186+267750206+267884637+268059942
1954+268273570+268423986+268617909+268826630+268768488+268523457+268769056
1940+269701920+270573846+270963055+271055021+271118021+271311277+271621857
1927+271818411+271751415+271760594+271927045+272019270+272450327+273257191
1913+273784811+273979204+274273702+274870398+275568855+276125847+276519443
1900+276795193+276946633+277120882+277450113+277652076+277795004+278399173
1886+279234579+279891838+280436711+280924660+281381125+281793370+282040853
1873+281796977+281005140+280815686+282125915+283712382+284653774+285291668
1859+285936971+286569374+287135399+287682188+288211596+288494462+288269040
1846+287813094+288421325+290229672+291597898+292284918+292985293+293505960
1832+293179491+292737712+293504043+294854139+296224151+297748268+298950335
1819+299756792+300519647+301115855+301279415+301507176+302448373+303703011
1805+304557100+304843052+304998619+305723329+306783183+307112771+306834584
1792+307811001+310234857+312112313+313150690+313888072+314369328+315057940
1778+316091574+316376195+315547156+315333138+317319829+320139327+322297602
1765+323134795+323222846+324042104+325378911+326596216+327659060+327840164
1751+327296526+327659872+329393068+331260419+332458360+333113409+334024357
1738+334826656+334450931+334745201+337432753+340219435+342562779+344363491
1724+345414410+345697503+344607855+342979832+344007358+347717042+351057727
1711+353079995+353745474+353652517+353856430+353754539+353110471+354092152
1697+356798841+360872749+365003483+366987444+367587227+367114127+365572432
1684+366784051+371729463+375553613+377142679+377811927+379038817+380010199
1670+381111771+384674044+388459302+390119654+391562023+394436886+396824904
1657+396593504+394195835+395482151+400790812+402788419+404485875+409768998
1643+414955102+417633557+418140838+417483319+419544023+425461174+429946384
1630+432168536+433950891+435990217+438756007+443057156+446823407+449169967
1616+453323282+459531064+464822602+469336534+473907261+478633748+483372388
1603+488300612+493544096+498963615+504577333+510327772+515865429+521281764
1589+526946980+532856105+539269977+546492028+553715736+559067772+562848806
1576+568846632+576407401+581936577+587433522+595227316+603524915+610830825
1562+615653908+617962779+625041252+638052375+649491976+659276684+668233458
1549+677247157+685265463+691584624+696666335+702438868+713834542+725842864
1535+734237870+742925230+753384320+761924236+767994321+773119570+778551858
1522+786249154+795517581+804618875+814887049+825127864+832515457+836114087
1508+838142041+847765594+864278459+875334602+880014206+881807770+885751519
1495+892050730+897099236+900922703+904907261+910256112+917536615+925661556
1481+931236934+932775640+933672844+936055404+938875552+941802660+946101534
1468+949833572+950017016+948929415+949075039+945977224+938171343+937090110
1454+944242208+948412549+948710686+947616002+945980213+942698499+937295193
1441+931775699+927761575+925808675+925391816+922897813+917058153+912823350
1427+912632889+911181974+908686151+911073454+917854311+923154036+926843381
1414+932261958+938421069+943274759+946561281+948593589+952080710+955915549
1400+954472237+952042371+955722358+962682370+968791380+971628422+971053983
1387+971035073+972120725+971452062+971346531+974059069+977089238+980115183
1373+984906295+989309271+990652836+989265213+986647874+985158230+987178451
1360+990352880+990822569+988478348+985027746+983127937+984452397+986853412
1346+987301722+984956136+980458417+975787976+971577217+967178595+963892137
1333+962232176+960992452+959889970+960497875+963777769+967495316+969687089
1319+971892509+974559754+975157197+974626750+975959203+978253128+979685588
1306+980606056+982105837+984259401+987184624+991137731+993545243+993078219
1292+993381554+996914163+1001736856+1006278893+1011164554+1015249964+1018098638
1279+1022806054+1030225228+1037383954+1041193125+1040967508+1039492875
1267+1039308846+1040095582+1041776338+1044160522+1045640354+1047649723
1256+1051556107+1054172602+1055063113+1056905219+1058508906+1058197318
1244+1057960524+1060123510+1064117165+1067063767+1068976443+1072043132
1233+1073741823+1071444909+1066941017+1062507175+1060807444+1062665860
1221+1065839639+1067856871+1067288150+1064857828+1062521601+1061808555
1209+1062905448+1064319324+1064345836+1063804083+1064710644+1065460405
1198+1065212759+1065920412+1065952253+1063077066+1059842724+1059276537
1186+1059174645+1056865580+1054890651+1055294903+1057352619+1057796380
1175+1053134386+1047388431+1045979104+1047430539+1047990098+1046687146
1163+1044501807+1042974213+1044328435+1046623009+1044612016+1040722072
1151+1039678853+1038872168+1036832973+1036543544+1038474674+1041635067
1140+1044416680+1043907158+1041452273+1039464998+1035673501+1029590875
1128+1024782022+1023282241+1023520789+1023189447+1022898783+1023107050
1117+1021990272+1018577879+1012972284+1007123397+1004426715+1006987845
1105+1013365555+1018109815+1018839886+1017421007+1014677993+1011596554
1094+1009503293+1009115156+1011136612+1014103684+1013776435+1011183919
1082+1011676676+1015054368+1019372218+1022889621+1024616903+1028273238
1070+1034028031+1037336322+1036214605+1033925230+1037337232+1043837887
1059+1042141276+1034617351+1031865889+1031594720+1028113512+1026770727
1047+1031034187+1035030376+1037542380+1040395408+1038851439+1032865440
1036+1029664434+1031533377+1035077033+1036856236+1035699429+1032353383
1024+1029036969+1027688206+1025894902+1021811117+1020577111+1024275099
1013+1026468172+1024288485+1024145915+1028959576+1030871992+1027100900
1001+1025154368+1026217212+1027226510+1029380853+1031539941+1031382295
989+1032563210+1036970149+1040354340+1040269733+1039008305+1039258875
978+1040569949+1042353182+1044410312+1044147720+1042889672+1042492503
966+1040352325+1038534848+1041466569+1046717493+1049467785+1050440369
955+1052843788+1055984036+1058184646+1060048976+1060514246+1058860068
943+1057301218+1056743024+1057733088+1060085431+1062005125+1062996943
932+1062393846+1061131574+1061842540+1062683016+1060752470+1058703397
920+1059226955+1060807834+1063646632+1066240447+1065385091+1064823453
908+1067405117+1070705806+1072127284+1070961184+1067968055+1063215412
897+1059695540+1058101795+1054829373+1054165064+1060300326+1066304260
885+1065993841+1062449406+1061083942+1062728503+1062274670+1056034202
874+1046770778+1039351929+1036871052+1036919788+1035199589+1033628587
862+1037394546+1046123364+1052684387+1053208791+1049806796+1044114060
851+1038724075+1036525349+1035796707+1032613896+1028721482+1027096221
839+1026067168+1027003232+1031355912+1034218428+1032536372+1028861453
827+1026076851+1024178601+1023015296+1024853697+1028314761+1027671571
816+1023305440+1021495435+1024013937+1027064835+1027858068+1027626928
804+1029699329+1035463545+1040144513+1037225528+1028655916+1019954000
793+1013430991+1009891040+1007445123+1003360558+999374831+999394390+1003032725
779+1004986079+1001296994+993081988+986054850+987483866+996227435+1001040576
766+998350782+994849754+991747325+988776225+990769413+998941597+1001599810
752+987180595+968803271+962465916+965016973+968035965+966014640+957273670
739+948069445+944013602+944476143+945448402+943603437+938677422+932515128
725+928389300+927576052+928782310+929788229+926786587+921086573+918769385
712+920260329+921922565+924158851+929933203+938011228+942491207+941155375
698+935291802+926226248+921586154+925417484+929989998+931653533+931883569
685+930734690+933505451+938759169+936333007+931258963+933167026+934545811
671+926989785+918618822+924226302+935075348+937040399+932323886+927267128
658+927419120+929063616+928488592+930653787+934344107+935265940+933245849
644+925855137+916408400+914511969+919066287+922153900+921265988+915889909
631+922357359+961313982+1015292982+1039601200+1023013541+983667611+953102745
617+943222318+938346275+935376344+933302773+918021444+903167176+903870345
604+909075067+910403036+920794350
##END=
