##TITLE=Sample description
##JCAMP-DX=4.24
##DATA TYPE=INFRARED SPECTRUM
##DATE=12/9/2023
##SAMPLING PROCEDURE=Instrument type and / or accessory
##ORIGIN=Default
##XUNITS=1/CM
##YUNITS=ABSORBANCE
##RESOLUTION=4
##FIRSTX=4397.6552
##LASTX=599.8556
##DELTAX=-1.9287962
##MAXY=1.6762321
##MINY=0.14349432
##XFACTOR=1
##YFACTOR=1.5611128e-009
##NPOINTS=1970
##FIRSTY=0.1993289
##XYDATA=(X++(Y..Y))
4398+127683855+126686990+125968302+125256496+124777145+125134365+126086329
4384+126585773+126042249+125502305+126057063+126899534+127244765+127550403
4371+128237353+128965252+128789038+127513768+126334295+126459375+127375630
4357+127529299+127121030+127211815+127282784+126860856+126625233+126628535
4344+126593323+127106627+127963367+128068956+127893620+128273062+128308589
4330+127516126+126891239+126843981+126875432+126508915+125855564+125931324
4317+126959115+127512671+127289780+127438438+127827396+128034479+128558588
4303+129245844+129525700+129211490+128398410+127654255+127616905+127789730
4290+127239267+126879594+127855545+129533651+130858623+130961320+130227531
4276+129960255+129707746+128763562+128091951+127979126+127858637+128236275
4263+129148969+129421323+128862889+128413854+128676700+129311639+129694478
4249+129865662+129942024+129460802+128543822+128087245+128079179+128052949
4236+128434452+129522894+130228533+129397059+127898345+127238580+127429341
4222+127770248+128131210+128884414+129959377+130581191+130414655+130381476
4209+130885722+130889034+130293765+129868049+129603178+129576070+129831901
4195+129695137+129413563+130013088+130814113+130602563+129872229+129395952
4182+129116153+128814514+128470877+128403335+128676195+128783636+128563962
4168+128187117+127941070+128232227+128606639+128342704+127855678+127905456
4155+128230127+128028361+127535827+127550222+127802588+127690708+127650217
4141+128328787+129385738+129720250+128854747+127946033+127969887+128170212
4128+128064747+128093574+127978897+127607903+127791305+128481062+128774415
4114+128434538+127968884+127508709+126682332+126020200+126232495+126749330
4101+126972173+127123627+127383944+127548828+127701542+128052243+128397885
4087+128685444+128953894+128978912+128678256+128228075+127726417+127288654
4074+127364491+127850419+128142827+128364056+128521085+128177867+127648385
4060+127504490+127671732+127824007+127575641+126755554+126065616+125983164
4047+126120797+126387442+126888461+127558698+128085269+127977084+127609421
4033+127724479+128163091+128230070+127532859+126685759+126487171+126557338
4020+126457151+126142741+125485858+125084033+125382627+126075428+126949436
4006+127312183+126652446+126007972+126223494+126500028+126240981+125759863
3993+125307115+125339511+126153002+127134575+127470605+127113127+126603699
3979+126170852+125851211+125872535+126277109+126839933+127164137+126955211
3966+126297918+125643870+125614805+125950701+126092304+126152191+125669499
3952+124112798+122494330+122436639+122823048+122036627+122409635+124512380
3939+125300089+123933023+121227355+119333469+120548681+122333302+121390273
3925+119931897+120445096+120163779+118070437+118297212+122292926+125529518
3912+125682891+123930456+118893492+110618485+105693220+107487988+112870803
3898+119233693+121797634+117895759+114023723+116086979+116628574+113429705
3885+112856696+112421310+112616108+116985327+117468172+112787149+108442977
3871+106323481+109439069+112599032+111310494+112630054+117655563+118890495
3858+111934637+97696456+91917972+106585516+120142866+123819139+119817679
3844+112443216+105777437+101313941+102402936+108746229+113215968+115328458
3831+117500444+118375998+117903262+114453000+106425004+104208184+109300949
3817+112107043+117556312+124154921+124005958+117876764+113261709+112650834
3804+108667042+106659177+112681417+117138031+120591653+125580967+128389256
3790+128780209+127675932+126171787+126332443+125846801+123951092+125847221
3777+130365450+131554832+128236036+124534487+125050577+128002665+131451667
3763+132875508+129854399+127897209+129566849+127607455+119027278+112973329
3750+118335145+122118077+121339674+130124987+142118638+143759204+137423661
3736+133689200+141563937+156759465+168801177+173674813+175632441+179975439
3723+187301661+196395122+204802397+209459127+208530644+205727901+212627318
3709+230448239+248533315+261589511+272189972+286812882+303361617+314961194
3696+319325096+314187497+300284028+288773470+289176526+292839255+291569398
3682+285716060+277239277+266285606+258881285+263925111+268946564+269333527
3669+275750395+283948668+286478876+285227746+282229631+276515998+271161054
3655+269700865+264210666+251218671+245404908+256152193+268986444+275028948
3642+275937672+275617907+275157446+273918362+271163574+264713279+257557840
3628+262360402+273694565+277987928+274311301+268112770+267359003+270390450
3615+271638964+272697911+273974755+275320192+279557677+283894298+284351400
3601+283341267+283371507+283254616+283840692+286122629+286079905+281779956
3588+280580237+287166303+293845493+296020657+295504719+294662602+294791195
3574+296101887+296285671+292071457+285867906+286153594+292147361+296385743
3561+298300036+299970105+300867241+300139724+299258109+299331817+298571941
3547+297146897+297996937+300842920+302927347+303440021+303544102+304009164
3534+303980949+302894397+301846886+301551557+301303076+301483366+302775617
3520+303918236+304342006+304664291+304306020+302853964+301834210+302367769
3507+302629365+301425331+300980600+302334551+303618727+303792602+303505348
3493+303393192+302827924+301337439+300134130+299942692+299919497+300094308
3480+301062403+302026852+302097181+301598252+301214821+300881502+300503072
3466+300408689+300131782+299644289+299819062+300173228+300054371+300088905
3453+300247184+299372517+297709836+297199091+298083169+298913335+299238770
3439+299245585+299250969+299506532+299521041+299148491+298875651+298575301
3426+298132365+297861223+297702811+297564634+297519562+297726865+298404766
3412+298901060+298328309+297433407+297279022+297365196+297135500+296810543
3399+296652283+296951029+297476704+297639068+297482698+297449404+297471912
3385+297091707+296663260+296863691+297522120+298214587+298541530+298398428
3372+298286195+298287188+298292228+298771016+299781473+300725247+301255770
3358+301389231+301309605+301369072+301750766+302284496+302511959+302350301
3345+302838138+304245599+305256514+305370828+305166293+305141876+305270756
3331+305157244+305068454+305532275+306206454+306553136+306875154+307264580
3318+307006229+306120280+305208292+304514965+304372856+304861266+305258786
3304+304861304+304001375+303596544+303916690+304737121+305663809+306099128
3291+306103309+305905016+305518664+305588516+306091129+306016027+305230704
3277+304303176+303602767+303420129+303674662+303845655+303838362+303938510
3264+304119373+304371634+304433659+303489733+302217126+302270732+303025549
3250+303288405+303375343+303232737+302681730+302273844+302210941+301971394
3237+301337744+301188533+301982657+302987540+303668419+303903632+303639459
3223+303099009+302651013+302460663+302344555+302143819+301924756+301434876
3210+300388110+299380841+298956441+298733542+298513696+298422749+298129081
3196+297445815+296832134+296607593+296506260+295920470+294452550+292704687
3183+291526005+290648532+289533040+288451166+287849760+287464210+286608901
3169+285442895+284763218+284454373+283990189+283629514+283494793+283083241
3156+282294997+281437875+280502825+279560159+279087556+278867634+278213672
3142+277359833+276563743+275604754+274687860+273884362+272834866+271514896
3129+270322144+269423863+268590928+267796499+267065049+266192501+264942364
3115+263236443+261707834+260839353+259992806+258478419+256026673+253141135
3102+251240758+250441060+249337461+247747686+246501100+245511680+244394222
3088+243362575+242556233+241748803+240864515+239971102+239123830+238337648
3075+237468346+236631001+235972572+235241256+234506579+234048523+233758463
3061+233402828+232964358+232607425+232297644+231974978+231758664+231569191
3047+231199142+230666786+230221521+229824173+228993949+227629861+226181584
3034+224910390+223803813+222960283+222477677+222110129+221497822+220761962
3020+220124151+219414044+218564882+217563284+216442656+215427178+214317852
3007+213118610+212459914+212192304+211561251+210555395+209526554+208759023
2993+208615158+208974955+209369440+209603756+209569259+209210378+208747855
2980+208525223+208643068+209009261+209422492+209437268+208969992+208439984
2966+207920877+207193550+206391313+205725381+205015236+204230867+203772831
2953+203630950+203259813+202651688+202410499+202631165+202733872+202337173
2939+201765070+201413119+201011246+200204809+199257828+198556827+197918825
2926+197153146+196480819+195712677+194534893+193334658+192485439+191770922
2912+191117075+190925331+191120778+191052549+190716348+190560913+190358631
2899+189809113+189248942+188899645+188736421+188773552+188762461+188498516
2885+188244900+188327943+188662732+188853007+188704006+188382962+188104184
2872+187957436+187831840+187570339+187296983+187114173+186849904+186411149
2858+185899144+185489883+185113038+184395371+183304333+182233914+181565519
2845+181392636+181421482+181421807+181469743+181521325+181318947+180955389
2831+180879791+181139306+181336033+181159638+180649828+180045119+179559096
2818+179427849+179536206+179444725+179127384+178887532+178878445+178954769
2804+178929398+178925637+179052970+179109363+179015247+178983653+179032639
2791+178988998+178846602+178672727+178539819+178515116+178518380+178374534
2777+178084207+177823030+177613627+177370988+177096468+176781094+176488895
2764+176364120+176255114+175922043+175524809+175338353+175459272+175774722
2750+176021924+176119858+176048116+175728027+175355210+175154111+175025766
2737+174850802+174679542+174573151+174544516+174486290+174259056+174058950
2723+174121204+174190846+173994692+173634551+173306806+173187548+173232793
2710+173211049+173134458+173078828+172990363+172954530+173022492+172989561
2696+172789990+172649198+172661072+172664241+172512663+172310152+172224665
2683+172114857+171863627+171617074+171412348+171184351+170926592+170713065
2669+170627960+170526323+170191820+169748235+169467911+169275536+168943172
2656+168547828+168265156+168053615+167816264+167580000+167360880+167105794
2642+166808021+166442821+165970868+165557273+165413503+165400789+165234187
2629+164911348+164601472+164323458+163938805+163453106+163060359+162828238
2615+162622462+162343799+162059638+161799130+161483279+161123672+160757384
2602+160413470+160219683+160207293+160215273+160158746+160067666+159938576
2588+159840423+159845635+159840776+159733669+159601964+159506044+159398680
2575+159268054+159136597+158996778+158927251+158954818+158896869+158619046
2561+158229629+157915372+157688244+157468331+157289798+157199595+157109107
2548+156905794+156640141+156419665+156254943+156136506+156039441+155915143
2534+155800190+155775773+155769216+155574770+155159821+154784159+154706652
2521+154852455+154936606+154846527+154671955+154463077+154193568+153982599
2507+153996039+154123611+154161362+154100760+154077622+154141995+154186581
2494+154225439+154349794+154500962+154656425+154918050+155299228+155640050
2480+155808199+155851200+155878203+155903212+155921911+155971613+155963910
2467+155886078+155914971+156064316+156253521+156450448+156602122+156678694
2453+156661894+156609920+156616268+156674799+156753089+156851357+156999747
2440+157198698+157348587+157378301+157423125+157620816+157787724+157709720
2426+157529259+157469114+157534107+157673859+157835440+157836700+157655799
2413+157586024+157726558+157913158+158139971+158379022+158468966+158490242
2399+158645734+158920560+159131748+159203156+159243389+159244038+159038281
2386+158383508+156830615+153948170+149780651+144846938+139642132+134362892
2372+129006383+123592278+118369421+113595429+109610844+106977176+106251854
2359+107832150+111543522+117108374+124817808+132796970+136503578+133870397
2345+127838506+123653358+122516379+122836411+123887588+125105796+125890547
2332+126423905+127767652+130096561+132269492+133812018+135622058+138494902
2318+141913512+144721066+146582593+148166546+149976147+151886030+153668065
2305+155232851+156602237+157803216+158751800+159493626+160211150+160856826
2291+161360432+161871082+162446907+162969966+163289368+163331233+163207680
2278+163123396+163173813+163255692+163240458+163214552+163297271+163391750
2264+163395778+163376687+163417961+163523111+163674002+163859065+163999856
2251+164046647+164091395+164163519+164204811+164204468+164193586+164241599
2237+164338578+164391783+164429086+164536164+164641142+164648015+164610999
2224+164610159+164697669+164835292+164858869+164726305+164582363+164571577
2210+164699826+164792339+164760897+164795374+164940996+165003956+165001150
2197+165061285+165186403+165333190+165437118+165472474+165489922+165559068
2183+165697588+165845520+165917815+165892711+165850999+165812780+165718740
2170+165664657+165772442+165950517+166091290+166201862+166297448+166380357
2156+166406798+166360885+166322895+166331849+166382076+166468269+166543428
2143+166598446+166671143+166727822+166742980+166777286+166830892+166850631
2129+166854392+166874723+166907712+166971493+167087983+167193476+167191185
2116+167107340+167072538+167163695+167328560+167452037+167527120+167602145
2102+167652448+167695536+167723560+167722739+167824301+168069613+168374621
2089+168734685+169184876+169753427+170452863+171162721+171678354+171959022
2075+172173942+172538989+173060998+173447503+173479403+173458480+173868771
2062+174580596+175233585+175874374+176576807+177279583+177987227+178800136
2048+179763039+180716549+181456341+182046827+182765544+183601953+184333957
2035+184886281+185243101+185427304+185478868+185385878+185101507+184668650
2021+184121767+183397743+182844159+182925885+183273770+183282952+183069846
2008+182979223+182997951+183007802+182954978+182851852+182839940+182703023
1994+181882611+181012317+181329542+182415960+183365747+184041434+184503327
1981+184933893+185443512+185996524+186543083+187073148+187375273+187166997
1967+187196090+188370324+189974570+191109477+191901883+192518924+193079992
1954+193801973+194523076+194908626+194833677+194104022+192843022+192778076
1940+194790514+196865663+197825396+198215739+198519525+198955359+199438233
1927+199309296+198195980+197427189+197545874+197636592+198928881+201599232
1913+203019083+202708386+202538920+203515262+204790981+205528807+205879517
1900+205933314+205357814+204533355+204194596+203397990+202122272+202655792
1886+204438800+205375244+205673207+205871079+205978902+206051159+205861229
1873+204164585+200026409+196721683+198738206+203340203+206071892+206853149
1859+207151742+207611650+208113824+208399550+208238351+207210923+204706926
1846+201072603+200541278+204979900+208832178+209871766+210242045+210049365
1832+207186525+203582556+203627495+205547153+207643741+210855248+213253446
1819+213863767+214066870+213961778+212554144+211120911+211903485+213877856
1805+214510093+212786990+210439821+210570343+212327140+211528148+207750762
1792+207380885+213180692+218059845+218944801+218347156+217715205+217871041
1778+218986113+217835857+212523084+207926795+210422449+216752570+221958971
1765+223521637+221804128+221418635+222812771+223868033+224855123+222970153
1751+217743955+215632649+219069156+223159377+224764807+224418182+225029915
1738+225807507+222091745+218789978+224520793+232559011+238571143+241971474
1724+242706093+241365773+235615027+226553905+225084323+234326136+243980838
1711+248972089+248542822+245009373+243007359+240686115+235132230+234046118
1697+240134077+250443179+261800384+267218994+267448480+264085738+256242891
1684+255097141+267995994+279611951+283540533+283471292+285516718+287811064
1670+289523075+298021029+308687180+313280854+316669273+324419722+330754997
1657+328664976+318191620+316815123+331653584+338449473+341465762+354277849
1643+368563184+375467011+374899108+368956409+368839232+381564305+392194393
1630+395009583+395127295+395529263+396546593+401115774+405486872+404778961
1616+406212729+414490876+420992887+422966495+423605146+424784439+425564321
1603+425730751+426601810+428277797+429579345+430749092+433017036+436283295
1589+439975538+444029124+448652331+454237544+460063333+462871880+461926865
1576+465794167+476212887+482171470+485637758+495139870+507178565+515889073
1562+517236094+509831792+513893511+539417690+562399481+579589769+593591419
1549+606358530+615575850+618478932+617212244+620100856+641953677+668524279
1535+683456053+695156504+711125348+724471776+732907611+740031245+745246751
1522+751967272+765742090+782145890+799832414+818011777+830698364+833141100
1508+828865300+840314063+871116404+892927760+901544648+903633829+909569885
1495+921413439+928732329+929149799+931143528+940390400+951153816+958509437
1481+962916426+965594585+965740589+962316605+958916980+963457754+972537013
1468+975293290+972300978+972462484+974341746+969095313+957196244+955199385
1454+966064668+973277187+972796108+968799564+965171541+962567606+960480334
1441+956289831+946863890+936128880+932670381+932147456+927960694+924200337
1427+923982477+924623457+924556488+921973170+918947871+923958270+935519895
1414+944920102+949878346+952397520+953051940+952305733+953241088+955933374
1400+958253702+961784669+965571295+968429438+973512152+978084082+978735524
1387+978320498+978662675+978104242+977947547+980921150+985113409+986157733
1373+985193131+987211295+991440743+993785278+992923306+990225446+988789922
1360+989621196+990589921+991105515+991627677+991160877+989156687+987439312
1346+986613536+984977485+980898089+974729664+970355739+969896347+970060067
1333+968668374+967637414+967935072+968509771+970140323+972897822+974457434
1319+975372477+978637705+983086311+985623124+986871028+988322282+989893731
1306+991580714+993706396+996722074+1000509998+1003688708+1005282378+1006370456
1292+1008424969+1011220648+1014317880+1018688139+1024444364+1030820722
1281+1037334073+1042416252+1046272443+1050493720+1053229151+1054013080
1269+1055855154+1057656222+1056210084+1054348232+1055944956+1058565462
1258+1059285324+1059826270+1062363466+1065739953+1067951770+1069464191
1246+1070593734+1071019374+1071709532+1072735604+1073066403+1073302972
1234+1073741823+1072248875+1069094906+1066738382+1065162811+1064870421
1223+1066871405+1068672396+1068096552+1066929363+1066444848+1065398845
1211+1063597242+1062385229+1061619091+1060500010+1059996786+1059814969
1200+1058425720+1056351277+1053994142+1051774536+1050907448+1050650949
1188+1049515985+1048101154+1046602479+1043484934+1039146977+1035625250
1177+1034164831+1034434770+1034595817+1033500255+1031404278+1029824354
1165+1029563349+1028572403+1025705783+1022572661+1019745978+1016320543
1153+1012924050+1011109160+1010837312+1011348249+1012577062+1014109413
1142+1014760931+1013409252+1010634877+1008616102+1007153927+1005083150
1130+1004105872+1005609053+1007298709+1005821721+1002618116+1002411711
1119+1006312268+1010105461+1009963429+1008527752+1008212683+1007388511
1107+1006794646+1007595451+1008143194+1007675936+1007046487+1007073824
1096+1009310612+1013336632+1016516182+1019506355+1023698691+1027904390
1084+1030508326+1030581480+1030186690+1033158154+1038160230+1040144566
1072+1039175536+1039345823+1042562637+1045924234+1046831411+1048604760
1061+1051432130+1049983624+1044121257+1040836251+1043987242+1047640006
1049+1046366292+1043853380+1044934891+1048491745+1049871143+1047198024
1038+1042884731+1041322141+1044118279+1047126091+1046625464+1044725507
1026+1043921494+1041417440+1035660529+1031898338+1032631869+1033876795
1015+1033355626+1032122995+1032290685+1034357797+1035760181+1035526896
1003+1032588496+1028343241+1029880174+1036105641+1039258694+1040690782
991+1045108919+1050319845+1050583674+1045601071+1042285750+1044133627
980+1047454447+1050116112+1052761664+1053977190+1053282222+1052417120
968+1052410247+1054142513+1057870493+1061375497+1062303293+1060358741
957+1057462035+1057178198+1058947423+1058477722+1057372157+1059344581
945+1061239955+1060290015+1058862814+1057242876+1054376180+1051434650
934+1049841057+1050279220+1051870522+1053036184+1052796409+1051524222
922+1050705701+1050836508+1052594126+1054526231+1052339536+1047577695
910+1045373131+1046370263+1049035898+1052049438+1054019418+1054084402
899+1052729821+1052312199+1053430898+1053720004+1051434955+1046857603
887+1042646559+1039863708+1036574426+1034221263+1034052274+1031801359
876+1025830253+1020397497+1018375362+1017800663+1015665742+1013495388
864+1013740433+1014352243+1013771207+1012578589+1010955444+1011599479
853+1015504236+1017503310+1015319365+1012610967+1011195296+1009419809
841+1006926370+1007226395+1011365812+1014567202+1014885019+1014788498
829+1013028894+1008046062+1004091822+1003716809+1005545749+1008720183
818+1009818799+1005737952+1000472275+998823320+998331550+996571336+998270079
804+1003321484+1003539039+998222887+993668444+991584227+990608247+989894189
791+988525405+986331761+984397900+983372973+981671480+978210003+974925913
777+972787250+969891766+966280313+964312700+963761216+962964992+959947634
764+954662256+950614855+947191635+941891061+934991320+928373353+926622760
750+929108182+929730759+927548799+924376198+920116434+916112177+913591247
737+909599590+904033812+901569771+901877509+900257266+894798470+887932863
723+882009712+876404531+872437920+872133466+872429444+870101709+866321421
710+864794492+868216261+873491789+875653895+875812575+876797259+877455879
696+875894129+873392060+872634704+873662762+874299008+874150103+875252079
683+878252790+880371600+880128998+880368087+882191987+882427105+876882097
669+868120656+872251674+887468660+896536234+897714954+893079568+888286341
656+887330216+886244886+883655460+883452567+887059055+893135923+899492503
642+902712067+899020282+889525616+881805444+880784640+884374176+886788200
629+886318652+886727493+884289339+876896300+871200631+863454420+852601202
615+848820150+851072058+852927114+856779334+863530323+865002654+858981454
602+855324185+852483147
##END=
