##TITLE=Sample description
##JCAMP-DX=4.24
##DATA TYPE=INFRARED SPECTRUM
##DATE=12/9/2023
##SAMPLING PROCEDURE=Instrument type and / or accessory
##ORIGIN=Default
##XUNITS=1/CM
##YUNITS=ABSORBANCE
##RESOLUTION=4
##FIRSTX=4397.6552
##LASTX=599.8556
##DELTAX=-1.9287962
##MAXY=1.7381518
##MINY=0.11884584
##XFACTOR=1
##YFACTOR=1.61878e-009
##NPOINTS=1970
##FIRSTY=0.13547252
##XYDATA=(X++(Y..Y))
4398+83688037+83390959+82931675+82652473+82424148+82265644+82049350+81408835
4382+80622473+80730652+81812279+82659303+83092987+83682597+84033094+83970590
4367+84211462+85250175+86430224+86442034+85637262+85053810+84110012+82899853
4351+82661761+83337523+84028086+84245521+84318997+84721402+85105985+85211706
4336+85065105+84505117+84042989+84273367+84766627+85028523+85017523+84745243
4321+84703580+85310561+85650241+85048305+84426155+84221662+84094612+84316503
4305+84939426+85541823+85913482+85950293+85697556+85477294+85731228+86294309
4290+86450484+86190723+86173878+86802987+87527187+87344896+86653854+86308586
4274+85756036+84868878+84782220+85795536+86964262+87223572+86390881+85640208
4259+85905050+86508431+86503552+86024238+86043256+86896862+87419357+86830594
4243+85959719+85596925+85573939+85670041+86064474+86665563+86910421+86823082
4228+87024455+87472351+87669959+87518699+87274375+87220479+87561338+88182605
4212+88407708+88140739+87934884+87658011+87254455+87098676+87256913+87660671
4197+88005377+87861565+87677010+88456109+89453361+88820238+87215849+86869163
4182+87771216+88325552+88358736+88457536+88459782+88425364+88575509+88918476
4166+89466957+89601850+88997567+88298433+87762517+87448952+87737083+88322174
4151+88441261+88066168+87834805+88488999+89850003+90359878+89460394+88396616
4135+87992812+88151445+88331554+88079958+87714530+87638901+87711069+87937038
4120+88597307+89439277+89887045+89680177+89227291+89003200+88589032+88132142
4104+88418625+89052559+89386900+89506245+89613062+89492244+89241163+89640641
4089+90264761+90007881+89515395+89747154+90115168+90204900+90400501+90425925
4074+89965924+89285127+88782681+89018868+89578377+89257779+88445284+88376162
4058+88823893+89210639+89530326+89581635+89527316+89494785+89271946+89409821
4043+90168687+90806624+90860778+90427085+89865809+89621927+89702674+89740388
4027+89692549+89730290+89726129+89516997+89259408+89144638+89138176+89236791
4012+89478445+89868174+90561122+91338840+91524941+91249421+91067011+90573162
3996+89455837+88549367+88763350+89809795+90648451+91012065+91072663+90758775
3981+90334214+90041112+89930862+90130402+90444584+90639532+90527284+90087396
3966+89887404+90187714+90682400+90952581+90830870+90500819+89909110+89252872
3950+89156098+89536576+89210078+88231217+88589234+89742754+89548276+88320213
3935+86849161+86151767+87498163+88884794+88020538+87085642+87971484+88206400
3919+87237279+87991836+90617789+91992039+91385031+89806214+86357604+81381891
3904+78850568+80149667+83608726+87991597+89543949+86643103+84653983+87022374
3888+87480544+85553016+86058924+85851595+85375752+87880932+87871727+84494291
3873+81315329+79904828+82558092+84896714+84195252+85719832+89140763+89167310
3858+83952594+75143366+73416921+83764873+90973210+91521093+88199119+84284644
3842+81374012+78918198+79468392+83622598+86533506+87782787+89035262+89340404
3827+88374984+85212470+79995720+80052709+84265773+86088058+90001889+94402204
3811+93704056+88804829+85300757+84963433+82706830+82416820+86930295+89268402
3796+90778585+93196013+94096436+94011150+93674921+93111629+93178974+92544995
3780+91193030+92648691+95723967+96282675+93581820+90779662+91325281+93385289
3765+95071577+95025864+92596995+92130126+94291530+93131153+87622202+85608984
3750+92163477+96589097+98742704+108743497+119108465+121721411+120762286
3736+122009837+127855862+136914818+144680492+147275119+146463176+145781431
3723+145448692+145154586+144498045+142661078+140154618+141004974+151318089
3709+167311565+181443283+191927652+200160121+208430515+214957484+217102420
3696+215486800+210128392+200664196+192412691+191156921+191115479+187023832
3682+179553534+170098654+159361364+151787563+152084642+151619126+149048147
3669+152094454+156677465+158021347+157949216+157327903+155026369+153006117
3655+152996985+149697297+142522991+141760728+150906682+159644865+163977743
3642+166209263+168668611+170949213+172332512+172598560+170450016+168201025
3628+172654159+178282759+177593990+171294886+163897861+161080560+160230959
3615+157488865+156584566+159417092+164283760+170068056+174097108+175144087
3601+175013447+174768423+174060085+173758928+174135862+172512915+168123296
3588+165923497+168072649+169493285+168536093+167123319+166170141+165451916
3574+164940384+163751277+160472466+157196637+158523416+162301314+164007715
3561+164265644+164517645+164286430+163315210+162532990+162243322+161427356
3547+160503359+161110127+162652473+163419780+163428157+163506272+163546241
3534+163125307+162297338+161352776+160852677+161032380+161630128+162338503
3520+162602913+162361498+162292974+162201401+161483655+160922526+161092103
3507+160909399+160288141+160674741+161836508+162197388+161702407+161429381
3493+161470492+160931620+159984923+159721452+160006629+160009390+159974521
3480+160325919+160612422+160592354+160637165+160810075+160806172+160713237
3466+160696851+160578215+160487857+160678901+160877475+160621479+160119687
3453+160117330+160177790+159526026+159222679+159848686+160391221+160811935
3439+161472277+162127502+162643213+162797971+162585681+162465387+162631449
3426+162785157+162752055+163064424+164008838+164777673+164840048+164757312
3412+165083911+165564974+165726267+165849230+166539121+167507230+167919677
3399+167748369+167707793+168000002+168422409+168959955+169425277+169677775
3385+169849691+170118942+170426708+170543338+170706270+171221907+171863066
3372+172319625+172765524+173559986+174528242+175341980+175941568+176459065
3358+177024429+177531064+178154309+179085100+179968374+180552351+180967081
3345+181293184+181572082+182130671+182947833+183678669+184524957+185389065
3331+185759335+185825244+186179606+186976020+187740013+188206384+188659813
3318+189015464+189065688+189181471+189527254+189839273+190257556+190934432
3304+191443128+191522937+191708808+192577869+193784779+194768297+195544827
3291+196228864+196998970+198068243+199157989+199801284+200029941+200374288
3277+201118398+202018241+202850555+203344045+203222113+202784517+202611902
3264+202819534+202974696+202814858+202604538+202707047+203029412+203141292
3250+203079359+202735601+201607083+200498337+200650904+201479020+201742528
3237+201528876+201448183+201378794+201186112+200963714+200435705+199753509
3223+199480097+199453844+199244076+198739135+198157386+197871602+197715391
3210+197312645+196608762+195758332+195284579+195490370+195641556+194861950
3196+193438682+192196701+191461410+191065771+190590379+189844704+188867040
3183+187817466+187157288+186989717+186859446+186421445+185680152+184785390
3169+183872052+183232678+183079431+183103069+182986366+182950779+183127095
3156+183066267+182543726+181913300+181462927+181149215+180746820+180219528
3142+179860711+179896353+180072890+179768751+179011349+178503867+178220826
3129+177731902+177120531+176417090+175679294+175169953+174638630+173621163
3115+172204228+171025303+170546504+170115960+168833236+167096771+165811397
3102+164956861+163858057+162352219+161084684+160505513+160319071+160110095
3088+159712376+159048222+158211103+157447312+156833382+156381702+156168382
3075+156045087+155787784+155482485+155324893+155232638+155069780+154961914
3061+154890206+154643783+154311144+154130658+154181600+154264198+154075989
3047+153829695+153875684+153954131+153759055+153418380+153131676+152842486
3034+152346557+151682559+151127192+150917351+150919560+150685261+150300972
3020+150164441+150006388+149564788+149140613+148753186+148239932+147720042
3007+147201570+146732805+146380514+145918579+145408576+145205380+145332127
2993+145567218+145825736+146165573+146542378+146930744+147360994+147603311
2980+147572980+147654124+147860329+147804334+147597595+147464958+147246187
2966+146843240+146297327+145693909+145245938+144994048+144770730+144588900
2953+144373361+144028563+143891985+144057559+144212197+144319796+144463029
2939+144509635+144338860+143996068+143540596+143144967+142931545+142662983
2926+142282966+141942356+141418047+140578986+139870638+139589540+139433917
2912+139210332+139196874+139537245+139932515+140188585+140390123+140562969
2899+140695754+140685757+140562297+140643882+140858823+140920489+140928737
2885+140918353+140862717+140979255+141195107+141280522+141343771+141398026
2872+141257095+140895561+140528652+140450905+140638083+140765842+140649967
2858+140413716+140189266+139805033+139161305+138444121+137756880+137346467
2845+137528896+137952187+138080203+138006074+138104385+138402891+138661943
2831+138877841+139134095+139286947+139289092+139235435+139101462+138963781
2818+139048643+139221885+139175969+139051810+139108228+139268969+139430658
2804+139690861+140075812+140421669+140595702+140631759+140637485+140749816
2791+141008490+141096869+140865230+140627681+140517965+140528109+140625813
2777+140653824+140572478+140452709+140457597+140485351+140247655+140054981
2764+140199917+140344143+140368454+140525357+140821598+141028125+141064458
2750+141099447+141199820+141244916+141255152+141321273+141453368+141602887
2737+141620745+141447900+141302531+141416335+141651030+141716930+141679447
2723+141798433+142069166+142294979+142406518+142444011+142488011+142631879
2710+142862570+143139186+143318098+143190634+142948464+142898553+142911247
2696+142864586+142960587+143255134+143528500+143637324+143627521+143586742
2683+143537973+143473242+143376026+143268012+143265067+143298316+143172831
2669+143046121+143057922+142982468+142759776+142579115+142503329+142448797
2656+142360593+142213890+141936336+141593691+141446869+141564097+141682540
2642+141616143+141419990+141179679+140945693+140701829+140445989+140238072
2629+140056546+139920714+139886443+139793130+139501115+139196285+139023218
2615+138843230+138624616+138518793+138545654+138538124+138308887+137884133
2602+137535818+137425273+137404322+137360349+137352368+137324936+137200077
2588+137023200+136825270+136618255+136421973+136305674+136306604+136295834
2575+136270004+136320771+136257918+135940017+135570328+135367934+135303902
2561+135172038+134902612+134584784+134246209+133990866+133962091+134050341
2548+134073593+134000163+133811402+133539684+133363211+133316918+133214299
2534+133046120+132964001+132947017+132885922+132772736+132702113+132683777
2521+132586984+132459861+132459235+132509200+132451134+132289482+132163021
2507+132138996+132134264+132110137+132101080+132123954+132231130+132433902
2494+132637475+132771898+132855269+132981168+133197140+133438878+133709749
2480+134037113+134287595+134329387+134213668+134077910+134007969+133963094
2467+133879741+133849456+133980326+134245528+134522152+134657395+134668911
2453+134704341+134802855+134952329+135163035+135416482+135692950+135972990
2440+136225387+136481061+136758790+137013636+137210562+137285860+137257794
2426+137243388+137273746+137397436+137680302+138004518+138210364+138318820
2413+138454780+138660516+138835792+138979613+139229516+139516717+139762707
2399+140109862+140604724+141354633+143097229+147430521+156768283+173886144
2386+200699931+236990561+280388179+328172876+379549231+435593165+496658930
2372+560421959+623037508+680881239+730878179+769548036+794062314+802796704
2359+792022740+757580492+705108978+643002218+584867824+553795850+562020641
2345+602152428+637641931+641514882+629873422+619304108+613493762+611879652
2332+611948801+608834652+600380467+587197913+569500292+547964074+524415125
2318+498901496+473200560+454653190+445505487+435964355+415825410+385881732
2305+355340750+332176503+315794266+301336039+286745976+271381169+254638364
2291+237685902+222359222+208999026+197437818+188652504+183391173+180756264
2278+179195286+177754897+176205499+174759273+173656106+172699154+171559056
2264+170274933+169041973+167890884+166701041+165391659+164042437+162782395
2251+161626685+160524770+159473538+158542287+157780853+157137687+156585836
2237+156102767+155636856+155271429+155085263+154964712+154831219+154750692
2224+154685206+154564268+154472530+154464484+154484220+154447620+154382834
2210+154448044+154615357+154706028+154731177+154800381+154962172+155217579
2197+155440473+155525418+155546921+155570376+155605871+155671541+155765508
2183+155894638+156070917+156292228+156529335+156706885+156770529+156776807
2170+156860188+157050238+157205032+157256710+157298502+157371830+157488993
2156+157652809+157745431+157741749+157775035+157895936+158068220+158237117
2143+158346861+158396054+158441048+158555671+158747121+158958269+159155867
2129+159294240+159319149+159280800+159285937+159379535+159526910+159667768
2116+159811350+159974926+160120092+160258059+160410791+160570243+160762116
2102+160978972+161135662+161208862+161371665+161743867+162219278+162784089
2089+163496975+164302631+165253323+166505817+168111145+169953709+171697041
2075+173086048+174301003+175508796+176490308+177057752+177363842+177640955
2062+177850447+177896712+177904628+177988009+178152376+178406789+178768424
2048+179222736+179747340+180320896+180901982+181476551+181985542+182410343
2035+182859905+183358845+183818551+184134584+184327948+184484620+184516138
2021+184278111+183759454+183218502+182926367+182623038+181949845+181058507
2008+180250145+179549005+178837794+178100257+177429089+176923448+176448350
1994+175708825+175037601+175051906+175498468+175863177+176066667+176224186
1981+176417826+176625163+176869966+177135885+177405100+177628546+177646902
1967+177809796+178607793+179659172+180502054+181190454+181739893+182270350
1954+182980917+183777220+184516746+185070051+185244434+185290662+186259599
1940+188355564+190307835+191583783+192556421+193506285+194524838+195586104
1927+196393674+196637482+196914853+197533754+198041696+199110215+200796088
1913+201666235+201497928+201331185+201657822+202003127+202008429+201806780
1900+201460776+200762600+199857565+199123378+198063107+196765453+196467555
1886+196728301+196525750+196139464+195786905+195350598+194882091+194396537
1873+193224625+190815390+189103392+190522371+193297604+194968344+195559390
1859+195940356+196553237+197280170+197903305+198291948+198229187+197388220
1846+196107117+196884549+200281868+202971585+204143902+205071342+205501482
1832+204134899+202264149+202499912+203725950+204944807+206695191+207996656
1819+208382022+208541253+208448925+207562098+206773030+207379504+208555208
1805+208864557+207942456+206817399+207182734+208446495+208174390+206349113
1792+206789820+210621016+213626360+214452746+214544006+214546510+215027186
1778+216093716+215748854+213031448+211054617+213330450+217569896+220860619
1765+221894121+221336637+221831047+223157164+224264271+225330433+224580653
1751+221993316+221337705+223777243+226492661+227848418+228217877+229174480
1738+230009242+228365307+227649071+231869462+236607883+240225169+242516872
1724+243360564+243039450+240138401+235620701+235914476+242003168+247760953
1711+250806726+250837250+249193150+248503480+247527510+244902266+245013649
1697+248965414+255539312+262464111+265516401+265768770+264064671+259967353
1684+260263171+268152544+274679053+277028915+277456643+279128009+280705335
1670+282076925+287520426+293838770+296673836+299283118+304471268+308584805
1657+307767109+302492228+303889538+314459367+319306778+322989844+333426640
1643+344002214+349809173+351392501+350525189+354633939+366544411+376110471
1630+380993671+384563035+388106440+391599917+396516035+400249214+400257167
1616+401095281+405455517+408737531+409968448+411249956+413546686+416136324
1603+418957085+422745901+427252168+431603677+436063587+441380425+447355507
1589+453557221+459971206+466950243+474831460+483027347+489177475+493180292
1576+500877516+511640655+518621200+524681633+534563983+545326164+553953848
1562+557948122+557249192+565714091+586287779+603645839+617674570+630063122
1549+641564590+650462979+655985498+659695407+666015168+683558326+702261337
1535+713478327+723614114+735923649+745436503+752472795+759906309+766462165
1522+773718866+784474198+796337540+809465820+822572891+830983259+833420717
1508+833545319+844022875+865373517+879994583+885640819+886990520+891582358
1495+900894024+908046007+911464737+915682035+923909256+932876795+939737895
1481+944726366+947842135+948705949+947622684+946618435+950280109+957492036
1468+961323526+960516637+959489781+958839969+954651096+947221853+947002696
1454+954396812+958589882+957762447+954584230+952685017+951190906+947623567
1441+942325802+934430041+925342982+921771003+921247118+918465313+916281550
1427+916123736+915687116+915443878+916228012+919043766+926116511+934934779
1414+940334538+941582760+942364906+944586963+947596173+951580322+955463140
1400+956227686+955210035+957122650+963510751+971825605+976477756+976180097
1387+975014059+974505638+972743472+970795288+971954920+975699661+978795179
1373+981000666+984147807+988888032+993459546+994172468+990795419+988468129
1360+990559840+994467034+996053492+994101699+991161049+989059691+987547316
1346+985743469+982356920+976969975+971257167+967839615+966491314+964874664
1333+963242401+963326131+964466248+964922972+965774194+967747711+968866545
1319+969823442+972910786+976675631+978735014+979439688+980697632+983253873
1306+985967413+987048543+986528855+987142362+989967690+993460503+997021582
1292+999681511+1000854325+1003134263+1008219794+1014991272+1021999801
1281+1028144443+1032806903+1035763386+1038036550+1041056070+1043985453
1269+1045749092+1046943998+1047617891+1047840803+1048861842+1050778507
1258+1052899749+1055007220+1056388291+1057339223+1059710993+1063960988
1246+1067657935+1068200894+1066389167+1065349645+1066769083+1069626445
1234+1071807778+1072885299+1073741823+1073021904+1070315360+1068488390
1223+1067538047+1066312948+1066057928+1066805241+1067412562+1067004294
1211+1065798415+1065073563+1063561041+1059723144+1056667834+1056283426
1200+1056207207+1056200727+1057060417+1056893472+1054684523+1051859417
1188+1049160310+1046837733+1045842322+1045194424+1043350885+1041001354
1177+1038808018+1036199785+1032834887+1030710405+1031837635+1033676830
1165+1032903963+1030735296+1028951406+1027344918+1026154872+1024789412
1153+1022035223+1019046706+1017425563+1016446868+1015105195+1013698054
1142+1012265949+1011159708+1010986356+1010795919+1009661104+1007384037
1130+1003241927+998404568+995654576+994268129+992656191+992662009+993909937
1117+992786537+989451831+987019970+986330613+986627314+986487395+984402753
1103+982672179+984884368+989338276+990751455+988893335+989649264+993835043
1090+996534370+997186981+998254782+1000373446+1002648745+1005314418+1010315040
1076+1015585484+1016532513+1013738557+1012414631+1016062018+1021608544
1065+1022661322+1019243623+1017972498+1021056381+1023977295+1024862538
1053+1026114737+1027277609+1026027399+1023677353+1023421744+1026763739
1042+1031196218+1031709351+1028306307+1024832345+1022609405+1021131789
1030+1019872889+1019614039+1020762699+1020098674+1016939751+1016088382
1018+1018270451+1019972158+1019972305+1018676216+1017470263+1016846373
1007+1015822757+1015222727+1016836579+1021111023+1026069816+1028743737
995+1029449958+1030589486+1030972790+1028716195+1026589430+1027143435
984+1030092112+1034451169+1036530730+1034593297+1033979864+1038260199
972+1043398752+1045508063+1045785323+1044681512+1043037098+1044980938
961+1050421199+1054747634+1055321890+1053061539+1051080069+1050785282
949+1052310544+1055286100+1055940036+1052709975+1049401560+1048162027
937+1049027609+1051277134+1051707126+1049379615+1047733139+1048833342
926+1050571501+1050191806+1048443927+1047064549+1046493533+1046111113
914+1043755986+1039986796+1038130811+1038955743+1041107914+1043495590
903+1045668528+1046925661+1045802555+1041897939+1038561172+1040046004
891+1044426639+1046443678+1044422220+1039293609+1034326347+1032394511
880+1031217500+1027672401+1023252147+1020943930+1021524887+1022525306
868+1019636942+1014117590+1011594192+1012767595+1013320421+1010765579
856+1009215353+1011694934+1013906975+1012565081+1008866145+1004808502
845+1002184952+1001554213+1001335203+999788217+998143730+997559017+996735559
831+996380460+998008451+998889424+997191768+996324860+997950863+1000028878
818+1001037250+1001487641+1001949225+999934985+994696501+991043665+990694972
804+989593591+986872614+986570094+988922938+988475640+983704559+979123030
791+977093104+976110801+974013051+971366304+970358373+970270666+969634183
777+969347497+969384171+966732048+961257028+957847724+958185002+958521985
764+956383806+952843935+948333029+941497410+932317710+925412499+926013192
750+930569977+931782484+929514769+926744304+924469299+921696552+917673594
737+913026893+907906161+904067454+903026901+902331578+899590717+895352505
723+892078481+891029164+889865555+886981756+882702379+878844525+878452016
710+879990901+881605342+884176680+886436073+889145489+893949857+897606154
696+896972617+894821477+895871383+899587256+902648310+905567751+908874620
683+908856431+905487556+904058028+905050641+904926702+903733490+902627911
669+899937863+898777495+903948523+909172721+910576916+908175100+902927190
656+899179283+899375611+899353371+897592604+895726383+890178531+882057501
642+878313275+876553098+873708476+875152953+882704146+889625411+886457208
629+875100226+867329507+865565795+864955160+861575828+854627685+850093581
615+850066555+851454033+857340635+868421168+872894075+862934807+851080745
602+846335585+842369183
##END=
