##TITLE=Sample description
##JCAMP-DX=4.24
##DATA TYPE=INFRARED SPECTRUM
##DATE=12/9/2023
##SAMPLING PROCEDURE=Instrument type and / or accessory
##ORIGIN=Default
##XUNITS=1/CM
##YUNITS=ABSORBANCE
##RESOLUTION=4
##FIRSTX=4397.6552
##LASTX=599.8556
##DELTAX=-1.9287962
##MAXY=1.8620237
##MINY=0.27669322
##XFACTOR=1
##YFACTOR=1.7341447e-009
##NPOINTS=1970
##FIRSTY=0.29025224
##XYDATA=(X++(Y..Y))
4398+167374865+166520277+166581578+166980370+167173948+167152965+166757593
4384+165890906+165117004+165322612+166581079+167973594+168802679+169057714
4371+168846073+168684236+169338200+170653930+171303632+170259280+168486275
4357+167341147+166876809+166920100+167181458+167342350+167473854+167348984
4344+167091354+167301431+167697645+167839014+167755853+167417950+167069786
4330+167166696+167722753+168040395+168036717+168297784+168429907+168192333
4317+167814043+167124076+166083298+165065155+165165845+166352597+167098504
4303+167710620+169117709+170067591+169335725+168187057+168354032+168880462
4290+168311377+167664511+168070968+169362260+170158417+169224689+168135345
4276+168253204+168476067+168194876+167628886+166837007+166254897+166268903
4263+166653809+167183005+167534640+167467289+167389112+167500595+167573909
4249+167263451+166677663+166344674+166215387+166297036+166965968+167993650
4236+168187641+167133820+166357151+166822589+167780909+168522399+169206352
4222+169736545+169902025+170202430+170513438+170443062+170084399+169364236
4209+168564831+168047321+168033349+168563301+168998114+169230171+169518150
4195+169195903+168568216+168981204+169937668+170115728+169273513+168073065
4182+167575232+167763329+167956082+168072223+168072979+167897273+167864586
4168+168343291+168848256+168582326+167959193+167898459+168405520+168776523
4155+168724107+168608843+168575503+168478129+168303386+168241759+168529944
4141+168842258+168692485+168522692+168802009+169098323+169164986+169014681
4128+168396446+167788660+167901243+168376545+168750727+169056287+169051115
4114+168643781+168407153+168372524+167990763+167540053+167580886+167818374
4101+167772299+167904800+168594854+168778637+168092811+167760923+167791083
4087+167290690+166904667+167411711+168006144+167955257+167664718+167756093
4074+168127921+168092227+167695635+167479766+167201531+166780982+167054285
4060+168086555+168719364+168506314+167992327+167545914+167190154+166746749
4047+166345809+166616413+167427247+167680357+167155216+166859142+167294935
4033+167891310+167999888+167872543+168310587+169221922+169588044+168905656
4020+167839512+167424875+167804763+168197506+168047871+167510185+167220985
4006+167647584+167929754+167174326+166386916+166390852+166391900+166172818
3993+166668021+167818185+168503289+168486877+168483199+168745555+168597827
3979+168357469+168995244+169224689+168097657+167176509+167000717+166856874
3966+167095565+168105460+169104493+169427909+169077718+168392304+168138095
3952+168600731+169346844+169686930+169178340+168662600+168974501+169158765
3939+168565553+168043437+168136806+168535478+168922944+169038775+168613071
3925+168233372+168309934+168073254+167639833+167871409+168457129+168251245
3912+167392051+167162400+167057430+166081906+165696347+166671527+167757142
3898+168654935+168605973+166946634+165798980+166684365+166839706+166295317
3885+167067209+167283902+167015583+167609827+167025069+165555975+164723797
3871+164445734+165496273+166131538+165543619+166526945+168331571+168068425
3858+165126249+160355939+159556017+165376695+169217763+169486460+168022298
3844+166174640+164320777+162707496+163074598+165223709+166229015+166325186
3831+167079823+167721928+167350444+165432720+162551485+163080286+165808054
3817+166589586+168474452+170988826+170731815+168149128+166216934+165755363
3804+164263240+164331106+167379883+168848290+169599301+171019519+171560161
3790+171148549+170492505+170114491+170332318+170158108+169514799+170263164
3777+171814611+171971705+170547465+169471457+170758435+173125546+174696362
3763+174643138+173421602+173737319+175706428+176029810+174129116+174341152
3750+179692835+183854741+186198411+191734340+197085026+199158761+200596234
3736+203102445+205979022+210176107+215064690+217935407+218792006+219243077
3723+219951931+221205896+222780699+224317642+226040481+229754720+238385896
3709+250069529+260805340+269305202+278137433+290907986+303886038+312529983
3696+317839922+320231368+318961730+316493293+315829860+314449306+309865390
3682+302998504+295392844+287611014+281071033+278482520+276510696+273476096
3669+273432067+274919395+274914239+274226798+273863494+273428681+272953327
3655+272942638+271704175+269032655+269676016+275236864+279966170+281967124
3642+282911972+284174856+286078436+288127905+289138591+288132923+286671133
3628+288815776+291588295+290923006+287558907+284592792+285595899+287437319
3615+286368014+285532639+287666214+291319409+294636815+296356028+296695684
3601+297227476+298411048+299323638+299622805+299627892+299186188+298275626
3588+298353614+299467138+299636519+298869835+298384720+298456075+298524198
3574+298469239+298516774+298934590+299869831+300538248+300359861+300103624
3561+300047564+299846630+299966655+300647170+301154970+301485346+302222987
3547+302926634+302849196+302396355+301901685+301390310+301290908+301363019
3534+301064402+300683947+300746675+301229693+301731204+301733816+300916125
3520+300005185+299753794+299796242+299625211+299455005+299688420+299828345
3507+299305353+298940743+299315767+299355019+298541728+297668665+297220430
3493+297053489+296702078+296012763+295412436+295185792+295434880+295849122
3480+295791790+295272098+294660806+294287466+294235944+294077698+293728281
3466+293339817+292672604+291982086+291713750+291923724+292488443+292695735
3453+292339100+292076298+292072757+292210964+292225434+291636930+290641300
3439+290043344+289999314+289867569+289395653+289073354+289292436+289724654
3426+289846466+289574143+289251156+289194478+289200768+289230637+289463398
3412+289632505+289528773+289150208+288597038+288261386+288349290+288562082
3399+288758445+289176193+289676775+289755622+289273704+288603156+288134298
3385+287932849+287918808+288286924+289012620+289282847+288896995+288649420
3372+288895861+289261880+289318936+289298726+289636732+290164777+290336840
3358+290078368+289927685+289999246+290194027+290572248+290989996+291431116
3345+291868042+292023950+291768194+291618439+291964316+292198247+292279225
3331+292906809+293613893+293382403+292460121+292003706+292441492+293050343
3318+292970499+292381067+292432589+292765234+291786858+290592424+290911217
3304+291526530+291252385+290968445+291260806+291639714+292016526+292524567
3291+293129878+293753200+294249348+295337747+297112848+297946143+297585280
3277+297452813+297685197+297748853+298220941+299017872+299207945+299291432
3264+299797101+299740905+298945246+298735134+299415959+299704780+299229736
3250+298731594+298104526+297230019+296508671+295813204+295278594+295430893
3237+296048200+296644437+297161930+297238406+296550466+295642448+294990254
3223+294641283+294526621+294473002+294334383+293989055+293453174+292961287
3210+292688621+292550758+292372577+292007383+291576712+290988758+290072937
3196+289619341+289884205+289825327+288968522+288085921+287493791+286606636
3183+285501911+284572995+284179719+284302321+283983700+282583606+280915589
3169+280671605+281357225+280729761+279264053+279355669+280735432+280814211
3156+278974956+277283412+277727350+279117202+278542824+276423805+275846386
3142+277431466+277677237+274741042+271856886+272282109+274501303+274115452
3129+270987123+269395306+271424341+273196349+270546707+266488224+265826252
3115+268078648+268081192+264011933+260689286+261714476+264306752+262465590
3102+256914503+254204505+256300633+258407278+255479178+250474404+249644030
3088+253725748+256279632+252291489+247030220+246345271+248877243+249437511
3075+246289401+243601435+244224653+246715655+247157359+244419074+242021837
3061+242519893+245058413+245770258+243167928+240420672+239813367+240669210
3047+240641146+239025820+237600858+237534298+238139816+238177074+237342404
3034+236062472+235203673+235264768+235226890+234379503+233652913+235894740
3020+247027780+266860309+279666900+274317486+260904690+249930789+242712819
3007+237981605+235082016+233496111+232572093+231700577+230408013+229052086
2993+228760996+230401362+232525107+232534474+230941471+230179702+231480687
2980+233431665+232904188+230384005+229038321+229663000+231220136+231548604
2966+229683434+227759041+227983348+230937106+233261768+231040134+227234863
2953+226031012+227828712+230612642+230630000+227756618+225486417+225760493
2939+228207998+229269106+226690595+223713241+223266364+225498172+228158641
2926+227538069+224156372+221771337+222225844+224219168+224144016+221441184
2912+219233522+219099629+220661044+221799435+220755702+219241032+218942879
2899+219662268+220771977+220737434+219255640+218202265+218565878+219887210
2885+220764175+220134941+219080931+218872968+219422013+219950075+219634410
2872+218783018+218282574+218331999+218803143+219182463+218876044+218241706
2858+217891670+217833737+217766266+217167194+215937048+214824538+214468195
2845+214784444+215108805+215016742+214912477+215133621+215484603+215817127
2831+216116758+216313688+216358130+216239601+215974547+215631557+215273684
2818+215024768+214969739+214912356+214699118+214480620+214418545+214518514
2804+214705665+214948532+215249916+215467417+215440401+215292416+215219927
2791+215169384+215051233+214919506+214811804+214760659+214780973+214722146
2777+214542196+214394709+214296837+214165333+213878642+213467683+213273709
2764+213424238+213631084+213615531+213416848+213291960+213397222+213671350
2750+213862849+213771422+213633215+213834407+214135172+214097123+213896241
2737+213710842+213501298+213419495+213550397+213809333+213993855+213931162
2723+213744646+213638182+213605305+213570367+213613297+213787954+213939290
2710+213969245+213987101+213963264+213723921+213468044+213475451+213551446
2696+213493496+213412414+213403409+213460448+213519824+213584202+213722992
2683+213756882+213539175+213279415+213192490+213285722+213357317+213245164
2669+213043491+212898290+212832933+212725196+212529349+212377033+212306057
2656+212192975+212005343+211888361+211848421+211764590+211648226+211485857
2642+211278117+211111640+210896992+210591741+210441041+210463984+210407357
2629+210276764+210149109+209935268+209659182+209467047+209377424+209248532
2615+209010735+208784933+208668294+208546740+208270722+207940707+207739258
2602+207558018+207252080+206988900+206906014+206915466+206916170+206903986
2588+206874324+206707537+206441195+206233919+206068009+205941059+205835213
2575+205657170+205455411+205325866+205206873+204979078+204717926+204563599
2561+204463854+204249944+203903311+203610967+203434453+203340568+203332061
2548+203282206+203159587+203091549+203046815+202887109+202623018+202421568
2534+202399657+202522723+202646854+202621643+202403970+202107914+201949669
2521+201976822+201973935+201817718+201665230+201640568+201634760+201576758
2507+201528329+201485932+201436352+201451355+201548780+201643576+201671451
2494+201621269+201549485+201609377+201861782+202149228+202355936+202552729
2480+202737233+202795802+202730479+202658145+202655911+202665604+202616608
2467+202567904+202584024+202658678+202779991+202887607+202935366+202987868
2453+202989277+202918129+203031485+203313742+203483742+203607083+203868579
2440+204183574+204431510+204639061+204793405+204850152+204861580+204827312
2426+204735214+204722170+204856957+205009754+205117628+205292303+205534018
2413+205662068+205701870+205889898+206186813+206348238+206394776+206509439
2399+206787330+207434145+208953833+212314409+219094799+230986670+248841291
2386+272062030+298756135+326581688+353972480+380902629+408581967+438341176
2372+470251506+502469047+532314664+558888968+580584726+593661939+598728942
2359+597315048+585207241+561534039+532696632+504967662+488205684+491489749
2345+510371949+520597452+512119519+499708626+490653017+486408001+489037811
2332+494553702+494414292+489271913+486636191+487596282+485921339+477254605
2318+462935252+448337697+442258153+446407273+449346011+440867872+422031248
2305+400366493+383978577+373938507+365371588+355664884+344497748+331188702
2291+316867148+303905664+292738940+282701895+273986852+266917830+261251032
2278+256470375+252206575+248441485+245225491+242467443+240032329+237844636
2264+235874822+234101354+232520639+231143093+229898151+228696035+227548827
2251+226472149+225492810+224611670+223781726+223030028+222415574+222012485
2237+221766748+221453334+221103436+220939244+220846305+220675394+220589449
2224+220613233+220651093+220722792+220775569+220803255+220891056+221016545
2210+221142172+221277113+221470262+221813991+222193175+222357847+222416347
2197+222673718+223095075+223434474+223624718+223791728+224004004+224149566
2183+224222262+224394289+224686977+224920203+224910373+224708992+224579258
2170+224661646+224851512+224930446+224832883+224708013+224620950+224511083
2156+224337165+224075514+223818640+223639910+223471354+223304086+223174094
2143+223227215+223510331+223834004+224222004+224713100+225181974+225572706
2129+225863985+226090594+226338754+226696421+227120373+227455887+227670501
2116+227865575+228118444+228404911+228685414+228907177+229045401+229193867
2102+229470006+229817086+230140794+230568114+231136940+231761775+232420877
2089+232991989+233452804+234065556+234991241+236093526+237288974+238549727
2075+239881766+241461243+243307578+245321628+247537780+249997349+252564156
2062+255178757+258047859+261246374+264671671+268165968+271724763+275438744
2048+279121103+282626347+286021707+289388710+292541031+295217826+297487460
2035+299418125+301008205+302228108+303032429+303422748+303438765+303152762
2021+302599111+301910724+301038005+299811915+298325120+296687435+295025381
2008+293397458+291695121+289881868+288064130+286398243+284961097+283740507
1994+282605209+281368275+280073305+278956619+278054066+277217969+276447521
1981+275838979+275357198+274890867+274407247+273963549+273639669+273479379
1967+273484689+273602617+273748797+273970698+274324446+274738344+275214403
1954+275778812+276376098+276961680+277499968+277950265+278418383+279136793
1940+280036580+280854116+281592117+282369439+283175685+283947301+284656603
1927+285220050+285686965+286228552+286663847+286941858+287523574+288303044
1913+288648320+288602572+288700908+289082497+289524923+289915724+290131094
1900+290198083+290482917+291075580+291516975+291490818+291455829+291917262
1886+292486965+292819815+293219243+293831876+294300905+294437118+294511772
1873+294471489+293958671+293448018+293906770+294966882+295699710+295815816
1859+295461208+294968978+294579312+294340501+294229722+294045424+293286748
1846+291974834+291406506+291818135+291802290+291332780+291115932+290781053
1832+289387163+287562825+287056005+287489649+287861683+288105701+288164528
1819+288125121+287860635+287167007+286248625+285598906+285606588+285804721
1805+285810788+285790388+285449185+284947108+284891719+284472270+283504875
1792+283849515+285511105+286684022+287293871+287540742+287420683+287511750
1778+287810298+287362424+285904020+285239830+287376860+290391730+291907638
1765+291860515+291576884+292241864+293325347+294161186+294845001+295137913
1751+294985408+295044492+296019706+297565001+298538462+298542827+298895751
1738+299648034+299414447+300049214+303125609+305750813+307322264+308392859
1724+309325109+309866456+309044709+307717568+309002157+312551843+315421599
1711+316968234+317209692+316939122+317462423+317764580+317168996+318062098
1697+320692904+324384509+328204181+330520663+331953977+332125661+330762567
1684+332360313+338068683+342237910+343709376+344380852+346074871+347634086
1670+349296896+353464165+357871515+360431998+363284499+367510405+370897824
1657+371781646+370689707+373219840+379626701+382809922+385992592+392695459
1643+398882173+402457259+403727172+403431167+405594010+411830184+416669512
1630+418908281+420416489+421973677+423791157+426795338+429329080+430130032
1616+432076405+436160048+439395444+441488547+443753541+446719364+450031442
1603+453595873+457446995+461435430+465537324+469895627+474583688+479578683
1589+484766226+489911939+495292820+501578420+508455995+513969961+517884120
1576+523878183+531409327+536682489+541950941+549931351+558579353+566066570
1562+570865374+573823567+583565741+598952355+611567894+622882963+633751757
1549+644051364+652900987+660255394+665956340+672584002+687064453+702227104
1535+712464293+722462602+734297158+744343586+752545862+760482586+767953786
1522+776944400+788161924+799204980+810341457+821178423+830557500+837947378
1508+842736043+850396972+864780016+876834204+883745085+887787207+893515031
1495+901226967+907061755+911601435+917658603+925227005+931568562+936435387
1481+941150635+944994573+947442765+948776575+949643898+953538224+959985300
1468+963744891+964107163+964822153+966952893+966533633+961753492+960012659
1454+962489517+963029901+961519218+957684079+953847084+951409890+947990368
1441+944081262+940092346+934857405+929270778+922875877+914630294+908811661
1427+908803893+910910780+912496530+915228903+919649384+924734329+931479953
1414+939211618+944587824+946239223+946940396+949626368+953609578+956245850
1400+957387386+960083326+963980677+966893706+971704437+977206855+979181481
1387+977570777+974531538+971815181+970095659+969885513+972081627+976437490
1373+980955585+984746041+989345184+993731981+995089024+993968592+991630869
1360+989223509+989751932+992367856+991694662+987458823+984609519+985136773
1346+986389329+984786668+980502297+976827053+974074057+969694615+965546492
1333+964146828+963598676+962819549+962693888+963442837+965620803+968024656
1319+968397034+968907171+971885917+974706350+976323584+979554546+984707477
1306+988820679+990946401+992823000+994407650+995461677+997416849+999999845
1292+1002477115+1005085890+1007624684+1010783948+1015569589+1020953357
1281+1025078726+1028257444+1032550270+1038012611+1042176133+1044369565
1269+1045860313+1046128134+1045030730+1044917786+1046603006+1049287398
1258+1052703071+1054684708+1055075165+1057866794+1062037396+1062664396
1246+1061138727+1061797967+1063848896+1065154109+1065864011+1065352912
1234+1064546769+1065480704+1066206899+1064564642+1062825047+1063291602
1223+1064997651+1066856583+1067556656+1065683081+1062367360+1059454675
1211+1058839156+1060419819+1060468213+1058500393+1058761133+1060028468
1200+1057040717+1053161101+1053750017+1055719831+1055080596+1052858291
1188+1050833208+1049038344+1047565400+1046991745+1046539420+1045513233
1177+1045579913+1046564579+1045193993+1041943096+1039948054+1039565846
1165+1040235466+1040979602+1039292870+1035675988+1033572814+1033157472
1153+1033440553+1034345478+1034003416+1032026384+1030607266+1031211718
1142+1033197824+1034133889+1033125782+1031349753+1029395337+1027063663
1130+1023994384+1021801844+1022621116+1023809810+1022685322+1021555678
1119+1021159103+1019572253+1017292411+1016033737+1015977712+1017787906
1107+1020351792+1018847433+1014686798+1012925205+1013197632+1016214324
1096+1022341472+1027304468+1028934832+1027156053+1023645172+1025075220
1084+1032716146+1037763695+1037936238+1039720929+1043897924+1046901280
1072+1046484220+1043362008+1041536553+1043200944+1046843605+1048935230
1061+1045965283+1040863428+1040382574+1043890018+1046955518+1049565667
1049+1051606973+1051117321+1049392711+1050542909+1054085412+1051682521
1038+1040419283+1031273242+1031569797+1035710359+1035661964+1030881754
1026+1028729292+1031551580+1031467852+1026747173+1025331905+1028949062
1015+1029635729+1025206656+1023578492+1028118791+1033098216+1033498778
1003+1033351738+1036889016+1040923165+1041764778+1039517314+1036666085
991+1035996396+1039040585+1043105530+1045116177+1047852881+1050913706
980+1049481320+1044570568+1041302279+1043111717+1049853423+1057345314
968+1061032795+1061950300+1062358561+1061311270+1059989285+1060674578
957+1063387910+1067480283+1071132499+1070360109+1064533021+1060167534
945+1061756034+1065134929+1064667069+1062912350+1065518168+1070506805
934+1071897808+1069503853+1068404250+1070943594+1073741823+1072609361
922+1068932810+1067616462+1067894044+1066917489+1066505447+1066776429
910+1065972006+1065648985+1067878989+1069320036+1066260724+1063223753
899+1062705160+1062284388+1063481606+1066086599+1066901128+1066929794
887+1067642378+1066615435+1063392034+1062640061+1064743510+1063429774
876+1057154623+1049890818+1044017742+1040470221+1039206323+1040314244
864+1043250989+1044133710+1042057277+1040077289+1038433315+1038215607
853+1040424576+1041318640+1039627233+1036087686+1030411900+1025664068
841+1022661056+1020118480+1021226127+1027618346+1033456226+1031742822
829+1026012592+1024559446+1025660425+1023765059+1021809062+1025471589
818+1032677856+1034838430+1028812677+1020998039+1017293579+1018057239
806+1019907853+1018826192+1016475820+1017788250+1020922904+1019459103
795+1013589257+1008491114+1006232788+1007606674+1011256621+1012541004
783+1009623851+1003755930+998759113+997830128+997208697+993543489+990367108
770+989069045+985832446+980834598+978426483+978824776+978994982+978027227
756+976221089+972307789+967265946+965448534+965731615+962745857+958291005
743+956846246+955805899+951534658+946284937+943932434+944307424+943227206
729+939039831+933798222+928776726+925511324+924840467+924343047+920639962
716+915402684+914292219+916524079+917844758+919666432+923018724+925677131
702+926710398+928176949+933177065+939722443+941951003+941486785+941764092
689+938347663+933015452+933196794+936068509+935574938+934729888+939761970
675+946667832+947373748+944835091+941880748+935112027+931536253+935092229
662+939377493+939237603+938551072+942495168+949420966+951483307+946471641
648+943729644+944902390+939906260+930305351+929154466+938617546+948761795
635+953586825+950789765+936318731+919074835+913847043+916413678+911065175
621+901081852+900683421+908265503+917323415+923870786+922457030+921847903
608+924885493+919514099+912861620+916919760+925057418
##END=
