##TITLE=Sample description
##JCAMP-DX=4.24
##DATA TYPE=INFRARED SPECTRUM
##DATE=12/9/2023
##SAMPLING PROCEDURE=Instrument type and / or accessory
##ORIGIN=Default
##XUNITS=1/CM
##YUNITS=ABSORBANCE
##RESOLUTION=4
##FIRSTX=4397.6552
##LASTX=599.8556
##DELTAX=-1.9287962
##MAXY=1.8603392
##MINY=0.28317592
##XFACTOR=1
##YFACTOR=1.7325759e-009
##NPOINTS=1970
##FIRSTY=0.31132913
##XYDATA=(X++(Y..Y))
4398+179691483+180098411+179500636+178033102+177863378+179303253+180686777
4384+180943212+180327410+179734331+180066899+180507713+180104122+180125400
4371+180882887+181077794+181008370+181533332+181699685+180700159+179895919
4357+180105636+180092597+179390308+178867427+178885763+179268214+179537309
4344+179742553+180741597+181819491+181318765+179778504+178996126+179098232
4330+178768228+177820409+177323141+177756524+178622001+179561563+180955597
4317+182276835+182100214+180413210+178381098+177432540+178226150+179475660
4303+180229243+180644892+180549890+180569207+180788143+179722738+177837404
4290+177363632+178784810+180471470+181074113+181021821+181033088+180691146
4276+179680664+178581905+177783169+177490285+177864393+178571773+179071949
4263+178994114+178853322+179333596+179894663+179863323+179343349+178658209
4249+178487522+179476675+180708124+180955511+180533566+179744463+178861888
4236+178842296+179459749+179584698+179262865+179350504+179781101+179943222
4222+180597778+182303514+182974910+181503247+179875587+179022805+179012880
4209+180431959+182066758+182508363+182221792+181923902+181563211+180814513
4195+180256215+180662644+181393280+181226980+180041372+178902896+178708832
4182+179370939+180289533+181124701+181630347+181552082+181328208+181298210
4168+181256290+181044166+180647627+180527804+180558989+179991695+179264585
4155+179028774+179092384+179378044+179747249+179804168+179808984+180135841
4141+180476837+180373561+179568151+178683615+178532538+178606296+178407296
4128+178193743+178106224+178346094+178873241+179140478+178983982+178865518
4114+179161515+179752289+180111742+179822143+179205051+178929609+178960898
4101+178674636+178044334+177589518+177543746+178126487+179083680+179434704
4087+178829619+177833327+177384119+177838419+178543839+179020999+179416763
4074+179872199+179909886+179293018+178758217+178559234+178394584+178319243
4060+178398644+178330389+177994468+178024845+178551218+178796541+178473365
4047+177961442+177772538+178001710+178056770+177604672+177165372+177285229
4033+177978402+178556946+178211684+177468869+177310997+177480755+177522416
4020+177816694+178285993+178405352+178315940+178053898+177912694+178395754
4006+178973472+178967882+178145632+177090478+176728342+176765909+176764413
3993+177238029+178285477+179147944+179592404+179855152+179909250+179863065
3979+179924611+180001878+179584389+178734634+178359305+178471731+178512928
3966+178765888+179612960+180441110+180213590+179053716+177988396+177516172
3952+177602281+178073335+178543082+178567507+178371070+178697909+178967091
3939+178287524+177589948+177710803+177919901+177913794+178287025+178455339
3925+177905331+177438922+177122231+176750703+177169397+178483669+179290713
3912+178931639+177808300+175609079+172620102+171256892+172225266+174013069
3898+176140045+177157700+175807305+174431006+175414465+175765369+174737806
3885+174759032+174392905+174197311+175809748+175414792+172783134+170635380
3871+169766102+171862648+174128283+173975777+174822453+176998434+176892733
3858+172870688+165681548+163442145+171103819+176730268+177336403+175404127
3844+172925078+170761017+168881343+168856607+171035530+172305441+172925852
3831+174734899+176169029+175858049+173665726+169744755+168601239+170746568
3817+172305355+175778356+179290696+178862783+175490856+172964297+172643839
3804+171223315+171458146+175392620+177268579+178031898+179803996+180732016
3790+180789537+180558989+180200397+180493298+180347037+179374448+180169934
3777+182096051+182130918+179998369+178349534+179541162+181630622+183018378
3763+183159410+181814967+181912171+184015512+183913113+180319721+179028894
3750+185099667+190088641+192162826+198773389+206327658+209104236+209282337
3736+209708530+211933397+217214809+222993935+225862711+226672043+227528730
3723+228968141+231301169+234067787+236295630+237431630+239407424+247155035
3709+259486533+270883267+279672271+288509731+300931208+313855337+323071411
3696+328117338+328618030+325830891+324326408+325943868+325719255+320983912
3682+313379759+304687185+295362159+288081852+286734949+285695070+282822114
3669+283813778+286513501+286693288+285622963+284892085+283843898+283119883
3655+283717056+282014313+277456331+277562634+284710578+291307535+294776734
3642+296172540+296905894+298251335+300349808+301738630+300617218+298522047
3628+300955083+304851663+304717872+301287341+297642345+297038791+298047260
3615+298052455+298443059+300200055+302668697+305750320+308356297+309607441
3601+310610578+311838294+312237361+312436482+313688210+314507743+313416019
3588+312265502+312759588+313612525+314088550+313823033+312955578+312966759
3574+314128423+314727711+314033266+313269741+313592434+314416955+315172258
3561+315678213+315501936+314879426+314377014+314238097+314476196+315006198
3547+315675633+315985839+315959108+315965713+315819022+315417753+315080025
3534+315161593+315452534+315729129+316382773+316909438+316359930+315612642
3520+315548654+315387995+315016106+315072491+315126813+314691417+314270883
3507+314112047+313926584+313854924+313813469+313321069+312743110+312729039
3493+312899296+312618057+312072299+311571779+311387933+311757345+311885322
3480+311123551+310197785+309663104+309439729+309676693+310315647+310652515
3466+310148692+309128423+308652501+309017681+309074411+308195913+307075704
3453+306353531+305849846+305525329+305916208+306524441+306316411+305723074
3439+305543872+305656540+305783931+305762774+305493507+305061792+304499968
3426+303898237+303532849+303745972+304302739+304554495+304522983+304208098
3412+303662993+303400194+303256839+303147750+303472680+303751132+303392901
3399+303071273+303214628+303054451+302651909+302682733+302765609+302525274
3385+302196284+301905654+301831895+302091736+302276924+302136012+301969539
3372+302094832+302558335+302858701+302613826+302389488+302572956+302765505
3358+302657964+302382367+302440610+303098486+303820040+303986547+303828985
3345+303942271+304144488+304194819+304384926+304662175+304895766+305052779
3331+305006852+304851078+304753994+304731427+304702081+304519095+304103068
3318+304004024+304413687+304327130+303485684+302770666+302342013+301623727
3304+300764081+300187016+300072147+300891198+302177019+302873254+303230728
3291+304037188+305232290+306259303+307030018+307847211+308518263+308644726
3277+308914062+309739786+310195858+310057733+309796619+309564369+309280963
3264+308889258+308776177+308850486+308487438+308044818+307908206+307428638
3250+306682830+306425913+306832721+307652597+308082213+307718856+307077597
3237+306419067+305823700+305520031+305661734+306248432+306714411+306625791
3223+306259991+305866394+305773507+305761157+305292184+304605376+303778723
3210+303108290+303126764+303416397+303439378+303262309+302720129+301628852
3196+300890406+300988763+300778840+299318186+297659787+297222361+297411540
3183+297171308+296424984+295714404+295618731+295363948+293791211+292194427
3169+292495653+293491394+293261931+292106185+291400971+291472425+291001251
3156+289631178+288838789+289905502+291303303+290219320+287779266+287578907
3142+289810414+290358409+287257606+283842728+283556088+285180635+284346946
3129+281057120+279899671+282591825+284695338+281863596+277404797+277058486
3115+280363500+280684577+275796195+271649493+272397297+274990372+273384695
3102+268322375+265779871+267680187+269867934+267313596+262446630+261318904
3088+265106807+267683782+263746023+258351479+257260788+259325925+259893461
3075+256969762+253971100+254300296+257391104+258346577+255019838+251722443
3061+251751668+254075356+254743673+252636341+250726461+250532174+251308944
3047+251373862+250224290+249016270+248441338+248356984+248267142+247594473
3034+246352945+245486643+245413125+245219405+244460025+243869940+246177906
3020+257657739+278088818+290845167+284523103+270314459+259470432+253023797
3007+248926359+246078999+244066411+242684556+241561440+240079370+238685681
2993+238517694+240098464+241999932+241939934+240482824+239885634+241257925
2980+243298930+243094511+240893656+239329400+239434774+240812037+241236802
2966+239473236+237594009+237633485+240330766+242890368+241208094+237411177
2953+235673705+237007397+239684363+239833342+237143734+235065437+235591466
2939+238369214+239682196+237097514+233876132+233202001+235435521+238068503
2926+237279640+233938108+231741691+232196077+234031647+233795407+230955924
2912+228752352+228718621+230344320+231623553+230549375+228559200+227946908
2899+228954913+230406003+230394392+228897805+227879324+228088164+228910826
2885+229226158+228486887+227782086+227981138+228754795+229369255+229216061
2872+228603235+228170196+228143930+228491084+228557067+227822904+226885131
2858+226501838+226681263+226799538+226100827+224724080+223647649+223322306
2845+223532005+223889376+223955274+223684958+223531971+223810475+224208613
2831+224330414+224233933+224105836+224110893+224267217+224231731+223824924
2818+223428523+223300202+223279182+223313757+223330339+223188807+223084689
2804+223203738+223447565+223692096+223784088+223632907+223478819+223601945
2791+223832699+223740518+223297278+222928726+222850650+222843890+222700243
2777+222603125+222705352+222682818+222428774+222259841+222183296+222022586
2764+221897361+221964738+222088466+222105203+222069356+221992432+221837518
2750+221792692+221917418+221927738+221770537+221612699+221471529+221434082
2737+221581617+221714650+221680678+221641718+221713395+221752338+221664801
2723+221499085+221294254+221205754+221312350+221315067+221168771+221213615
2710+221369715+221309993+221106520+220976617+220928712+220997930+221137053
2696+221165297+221174001+221174001+221014030+220878760+220926786+221030440
2683+221153892+221275625+221165813+220845183+220706525+220799308+220793476
2669+220623219+220450760+220325880+220209325+219996787+219670206+219363475
2656+219135078+218984310+218926841+218920476+218843948+218673777+218514425
2642+218424343+218417428+218368628+218153407+217850959+217566968+217399515
2629+217333067+217275202+217164960+216820334+216339527+216167929+216288268
2615+216246813+215926252+215607807+215443467+215330731+215129185+214782994
2602+214480856+214371731+214248244+214034950+213887691+213781370+213681483
2588+213659552+213591315+213369609+213163332+213058457+213020821+212981740
2575+212840828+212654419+212464346+212260013+212048353+211772102+211438142
2561+211160566+210990326+210719425+210282481+210059313+210168627+210242643
2548+210085494+209867538+209718971+209623247+209584080+209553840+209452353
2534+209357282+209365504+209355149+209254987+209133237+208914800+208630998
2521+208480247+208412921+208286613+208163057+208134451+208231294+208427869
2507+208555846+208486387+208281487+208081713+207976063+207931581+207929637
2494+208013768+208122067+208139405+208133746+208316749+208721166+209107779
2480+209246954+209185357+209090355+208991998+208878832+208815532+208856144
2467+208970755+209098990+209222374+209349095+209420823+209362907+209298162
2453+209364541+209476762+209579883+209736602+209955504+210190111+210349222
2440+210396267+210469372+210604745+210702792+210825935+210988503+211071980
2426+211073391+211060404+211115723+211257254+211344344+211361751+211493512
2413+211715183+211872368+211992776+212112358+212253356+212493846+212788261
2399+213086460+213653531+215100183+218439394+225211733+237033784+254808900
2386+278114585+304930341+332595524+359678242+386353085+413645416+442811917
2372+473961196+505704225+536073225+562903704+582978977+595551996+604078476
2359+604977065+590452814+564750834+536212038+509200430+493158865+496926815
2345+515176046+523811271+514918923+503326267+494865909+490585880+492725155
2332+498081219+498896073+494656226+492058816+492968723+491358522+482495313
2318+467740016+452910273+447050112+451456362+454386099+445850674+427031947
2305+405368009+388860912+378704278+370299892+360923021+349802193+336255519
2291+321795704+308826336+297643618+287619760+278980509+272024186+266545977
2278+262037586+257938428+254057174+250540930+247576137+245165910+243062878
2264+241100380+239321281+237723774+236254864+234887835+233603046+232446457
2251+231480801+230628397+229755042+228922248+228203067+227519734+226952715
2237+226611392+226374773+226143073+225956028+225862281+225832902+225763512
2224+225637238+225561742+225540568+225488672+225484956+225649176+225873789
2210+226030440+226200319+226482710+226803202+226983866+227033233+227190504
2197+227558368+227953771+228167409+228263099+228462014+228745454+228947895
2183+229125944+229337949+229447761+229464704+229531960+229615214+229606923
2170+229601642+229686031+229727555+229684586+229598460+229413599+229159848
2156+228968812+228862285+228710347+228403254+228004377+227649912+227458480
2143+227637734+228164365+228709951+229148856+229499915+229805304+230138147
2129+230479848+230770427+230988417+231223575+231540730+231908817+232270386
2116+232576377+232819602+233001504+233141780+233253639+233408122+233651502
2102+233958938+234321109+234687321+235078923+235518551+236026862+236657835
2089+237359110+238086358+238812488+239595416+240619951+241936081+243349449
2075+244769612+246350640+248148832+250169591+252406516+254761390+257216271
2062+259964880+263159153+266561234+269978108+273503486+277192809+280952176
2048+284644870+288220218+291617500+294843372+297872875+300616461+303011035
2035+304955730+306503800+307645201+308335002+308643556+308591884+308225052
2021+307605259+306831551+305862403+304631935+303184354+301478927+299661796
2008+297982446+296421750+294812547+293161166+291562043+290011014+288552974
1994+287137181+285701881+284490283+283649920+282920040+282083427+281281406
1981+280602545+279950793+279378699+278979082+278728375+278513790+278253450
1967+278160461+278374994+278571208+278672161+278980750+279439746+279857665
1954+280351700+280947892+281442082+281764948+281982611+282266516+283061658
1940+284401198+285627263+286458715+287170362+287945550+288716936+289441243
1927+290023605+290370415+290694726+290909706+290913559+291488972+292641622
1913+293233549+293141419+293191062+293676204+294184980+294470347+294639985
1900+294816607+294946062+295023158+295102696+294926075+294744430+295317642
1886+296220600+296714514+297089293+297657895+298125423+298330598+298461877
1873+298151052+296809602+295549617+296233879+297960635+298996558+299101004
1859+298788837+298492186+298187106+297788142+297416184+296981648+295874134
1846+294016959+293307170+294336522+294818602+294345707+294061785+293726603
1832+291968162+289502376+288828434+289487376+290034167+290518655+290853871
1819+290951986+290741444+290044659+288930162+288030919+288098210+288565101
1805+288607640+288187931+287339019+286740402+286826356+286140718+284396519
1792+284457308+286966563+288984380+289754510+289787777+289407632+289465152
1778+289950225+289299230+286858488+285045812+287118036+290983258+293384816
1765+293756774+293300083+293776108+294911832+295778358+296453745+296259303
1751+295067640+294627462+296019037+298023970+299083699+298958440+299262695
1738+300025601+299351453+299463708+303092809+306727931+309063437+310491649
1724+311372727+311493652+309541767+306455602+307061599+311858213+316173951
1711+318321791+318228217+317060224+316945113+316794122+315150275+315222658
1697+318241049+323259558+328609877+331462862+332507110+331815898+328928442
1684+329640158+336565725+342066760+343852345+344023634+345261842+346616159
1670+348132269+353078051+358608604+361204398+363555969+368071963+371947351
1657+372060844+368430779+369295894+377366027+381355011+384098528+391739802
1643+399704594+404029242+404741233+403022527+404659803+412238292+418028169
1630+420149520+421397327+422869093+424552124+427712631+430130014+429892328
1616+431370734+436450960+440428076+442513580+444624335+447646166+451075115
1603+454514247+458047194+461772313+465619938+469825348+474641433+479592788
1589+484281654+489023292+494358337+500455874+506849822+511750228+514668887
1576+519973004+527783020+532771427+537190716+545332233+554674874+562262479
1562+565914975+565760886+573321624+590680420+605237146+617292273+628294894
1549+638429476+646521111+652357190+656335751+661953170+677882480+695020826
1535+705407371+715078622+727451420+737912136+745660229+752884786+759688122
1522+767720584+778444685+790173127+802968798+815486223+824984293+829793807
1508+831088505+839837636+857767304+870779228+877889089+882352103+888179170
1495+896140625+902118168+905896507+911862834+921552387+929825941+934686646
1481+938574316+942349765+944645776+944326316+943568089+947644696+955127271
1468+959269449+958950540+959078310+960132191+956720925+948992786+948496704
1454+955377239+958646354+957424590+954652657+952841994+950710494+947594056
1441+944594379+938956113+930598755+925872563+923302090+919444006+917717147
1427+916761519+912262245+908468425+908708415+912320109+921477872+932662344
1414+940648363+944992001+945988981+945821923+947860536+951482069+953856793
1400+954443628+954935031+957544173+963004304+969118355+972841031+974692770
1387+976088542+976073336+974552822+974006169+975933662+979161495+983352043
1373+988416272+991321480+990777648+989789063+989709731+988783896+987566948
1360+987225745+986941857+987301843+989095305+989899150+988367903+987230149
1346+986110559+982312061+976610631+970947045+967264551+965883091+964813660
1333+963261771+961993219+961108048+960221431+961214901+965789448+970854984
1319+972312060+971501610+972228325+975217544+978818022+981566356+984401520
1306+989154477+994014770+995486432+994778089+995459117+997168362+997660178
1292+997778591+1000092354+1004107381+1008904442+1015998339+1023002791
1281+1026523044+1028925359+1032504990+1036369197+1039903279+1044122312
1269+1049197413+1053438050+1055550078+1054834716+1052451666+1051868616
1258+1054297420+1056611459+1056878489+1057826962+1060445529+1062551365
1246+1064496404+1066954243+1067514657+1065729658+1064640274+1065215963
1234+1065661610+1065101816+1064796873+1066178540+1068096332+1068498426
1223+1068229675+1068160871+1066571414+1063582334+1061473127+1060650705
1211+1059950411+1059227412+1059179248+1060111689+1061658693+1061123668
1200+1057608094+1055664156+1056264133+1055144612+1052573038+1051087889
1188+1049754524+1049482608+1051688004+1053376263+1052314401+1050659512
1177+1051369782+1052783443+1052496871+1052356028+1051406593+1047857992
1165+1044380054+1041719172+1038138578+1034457597+1032984077+1033193656
1153+1032422218+1031183872+1031330288+1031422624+1030762099+1030154072
1142+1029299862+1029124755+1030077561+1031420835+1032182915+1029931902
1130+1024822262+1020739944+1020350991+1022363871+1022701289+1020010821
1119+1017292211+1015780504+1015130025+1016551873+1018235729+1017158180
1107+1015284078+1016926583+1023113704+1028556497+1027746597+1023499905
1096+1022217042+1024494958+1026375252+1027243291+1027826204+1026743701
1084+1025141653+1025626795+1027107333+1027969800+1029376511+1032730187
1072+1038455423+1043836429+1045123902+1042662828+1038322699+1036256289
1061+1040308195+1046976467+1051619199+1053821154+1052846124+1048304053
1049+1042492055+1038931001+1039087256+1041648372+1045068996+1047029240
1038+1044970398+1040943055+1038847954+1038681377+1037549747+1035103191
1026+1034921822+1037463604+1039923026+1040616577+1037842098+1033210375
1015+1030972641+1032738788+1035881166+1034634494+1029878854+1029299587
1003+1032071383+1031042891+1028612022+1029374722+1029796288+1028528012
991+1029214820+1033799825+1037930168+1035941507+1034304576+1041195293
980+1052285985+1058785066+1058086424+1055633951+1056584762+1058887379
968+1059705054+1058838734+1055964213+1055047116+1059374585+1063171432
957+1064178664+1067157836+1070242349+1068866600+1065323229+1063829480
945+1062795140+1059949379+1060434383+1066967110+1072432402+1072113492
934+1069841493+1069051547+1068347469+1065200000+1062285779+1064058943
922+1068795938+1072231354+1071881414+1067338311+1063050749+1063960002
910+1068026839+1070413742+1071914647+1073741823+1072558039+1068684749
899+1066571346+1066700698+1066341400+1064087841+1060704235+1057415372
887+1054304301+1054236046+1058828620+1060807235+1056586620+1051035116
876+1047308725+1046945574+1047188385+1044180039+1040389384+1039658748
864+1043939980+1050947459+1052898415+1047251892+1042249862+1042592441
853+1043135516+1042760599+1043696824+1040750265+1033499905+1029842869
841+1030943537+1031787426+1031279028+1032425727+1033918444+1032095877
829+1029335847+1028887929+1030074465+1028851875+1023813792+1022230459
818+1027059307+1032398618+1034793914+1033318054+1028757062+1026015059
806+1025199036+1022043586+1018827518+1018341000+1018595027+1018263114
795+1016870576+1014999021+1012243876+1007353653+1002363389+999747092+999916145
781+1001325815+1001148368+997214255+991523284+989427013+990574193+990082102
768+986521392+981484341+977916888+977662999+980342252+983302297+982032851
754+977510803+973390436+969056843+966552973+967375120+964633598+956542514
741+951720478+952540836+951755706+945078007+937533852+934454499+933649209
727+933227574+934666486+934048139+926999996+918717085+916742322+919928116
714+921491908+920615405+921777791+923420640+922281166+921983242+924797421
700+928776257+933958968+938871070+939019826+934974869+932757776+935702203
687+941658003+943994127+938556839+933175627+935651631+940835168+942583976
673+944402758+946980731+945069888+941746142+942553908+944618461+946911651
660+945412604+941678231+941989572+941983930+936410684+930514332+930852369
646+936301491+941449318+939746334+930792578+926310780+931186828+936672211
633+937174898+941043852+951061742+947300535+927700565+914262534+909317612
619+908199054+909587877+908815475+907806524+907470964+910297390+921572065
606+929305915+928305771+934723319+946129962
##END=
