##TITLE=Sample description
##JCAMP-DX=4.24
##DATA TYPE=INFRARED SPECTRUM
##DATE=12/9/2023
##SAMPLING PROCEDURE=Instrument type and / or accessory
##ORIGIN=Default
##XUNITS=1/CM
##YUNITS=ABSORBANCE
##RESOLUTION=4
##FIRSTX=4397.6552
##LASTX=599.8556
##DELTAX=-1.9287962
##MAXY=1.8491746
##MINY=0.25365892
##XFACTOR=1
##YFACTOR=1.7221781e-009
##NPOINTS=1970
##FIRSTY=0.2728838
##XYDATA=(X++(Y..Y))
4398+158452722+158625495+158265932+158062909+158305076+158254164+157643678
4384+157272156+157175473+156850866+156985879+157429701+157279892+157118159
4371+157696700+158573338+159160445+159796318+160540867+160582762+159802461
4357+158715395+157577953+156848062+157011231+157949959+159355819+160258345
4344+159861472+159445372+159667102+159295113+158676061+159168215+159807964
4330+158939702+157479851+157331807+158428132+159138693+158861882+158920563
4317+159806113+160323533+160210929+160385225+161199340+161746767+161113542
4303+160035872+159518901+159562337+160060947+160737365+161283010+161700078
4290+161555702+160699865+160263900+160791478+161107641+160726982+160345787
4276+160238115+160451919+160531124+160183016+160242649+160615780+160333206
4263+159920447+160762215+162448208+162914181+161907859+161038576+160624034
4249+160461437+160984273+161181654+160294132+160064650+160964632+161416258
4236+161044045+160359164+159326400+157907389+157372370+158951504+161133408
4222+161663184+161155420+161349876+161851012+161675539+161445832+161969154
4209+162544493+162085893+161197263+160600586+159826913+159358155+159799260
4195+160212383+159980426+159851729+160504561+161226059+161164089+160928759
4182+160895810+160409366+159612747+159312799+159988612+161317672+161986182
4168+161777812+161816921+161947591+161370884+160164067+158977445+158867610
4155+159727635+160076400+159866300+160019657+160452524+160974167+161421363
4141+161577385+161819413+162196230+162461654+162432201+161896178+161564441
4128+161660674+161330754+160927478+161162324+161496502+161295781+160961638
4114+161166928+161602581+161622551+161163743+160500321+159992436+160016784
4101+160512936+160749167+160572258+160511742+160503505+160491374+160667747
4087+160884285+161152409+161354773+161076924+160701163+160818751+161145625
4074+161167983+160720579+160353194+160759567+161348111+161100632+160384620
4060+160244207+160495389+160594218+160929174+161301993+161016235+160383945
4047+160251388+160838149+161452530+161719892+161808961+161604312+161247344
4033+161185167+161462307+161738322+161507473+160824859+160634971+161135605
4020+161476272+161477189+161403920+161175303+160975984+161200378+161729444
4006+162042406+161856065+161395423+160951255+160396750+159899958+160249658
3993+161403349+162002102+161604796+161365001+161504202+161211280+160471664
3979+159979025+160098602+160345476+160443630+160732589+161034873+161243018
3966+161750522+162383522+162608297+162319165+161854421+161523047+161273025
3952+161255235+161744084+162203239+161655933+160439511+160089413+160647967
3939+160854209+160357364+159647339+159520770+160167995+160775834+160730564
3925+160624623+160997477+161007981+160715163+161277057+162275764+162388644
3912+161792175+161033852+159297207+156724937+155649811+156481663+157838325
3898+159595372+160260785+158561276+157337639+158724618+158708213+157197208
3885+157712517+157778830+157407360+159019911+158745298+156345576+154790859
3871+154240265+155884467+157587696+157273298+158053599+160105611+160033968
3858+155973536+148786347+147289601+155783233+161833430+162470255+159940279
3844+157013394+155075959+153375966+153287832+155706294+157484091+158083225
3831+159035849+159817309+159775448+157728022+153238080+152297379+155235338
3817+156449424+159128742+162662998+162493807+159075581+156773581+157140015
3804+156014618+155801489+159184620+160890688+161359757+162681549+163578174
3790+163880389+163763424+163488223+163986919+164157390+163636232+164719561
3777+166696331+167074220+165485135+163924846+164612270+166238111+167568850
3763+167657919+166156916+166275092+168191969+167351516+162943166+161517371
3750+168038127+173138227+175215920+182263527+189918384+192125691+191620212
3736+192176481+195487814+201368717+206880071+209355121+209915509+210463542
3723+211280581+212892561+215341619+217596463+218869541+221295774+229541978
3709+241781956+253235074+262526709+271278549+282987436+295803082+305423115
3696+311169453+312609231+309404619+305823518+306380013+306492807+301987584
3682+294118508+285153228+275451187+267311374+265868862+265662604+263221713
3669+263612651+265408981+265512361+265395552+265535135+264546828+263634923
3655+264199758+262575250+257996982+257290678+263756317+270576467+274096965
3642+275396676+276626457+278460426+280035788+280119025+277886072+275804036
3628+279298214+283701510+283484194+279972573+276481545+276352917+277492919
3615+276921179+276371693+277527495+280432886+284268786+286924500+287835194
3601+288142099+288420831+288825612+289915603+291054377+290336046+287780528
3588+286728694+288570346+290197018+290262448+289665494+289408688+289438123
3574+289263291+288838487+288275901+288222307+289579713+291238884+291815245
3561+291846670+292108288+292349381+292225858+291851723+291463641+291398747
3547+291991825+292621555+292341975+291615129+291574739+292203638+292173978
3534+291212442+290479505+290795079+291913883+292535064+292012141+291093729
3520+290510204+290348506+290174071+289805388+289673766+289753905+289493465
3507+289013977+288941573+289315310+289592346+289495715+289231225+288990754
3493+288589555+287912340+287377200+287342624+287543518+287718991+287824223
3480+287654357+287068184+286166835+285407352+285315186+285745440+286055287
3466+285787007+284936915+284068532+283883334+284269063+284581020+284504895
3453+283975846+282997594+281996343+281822047+282303403+282518695+282608594
3439+282616226+282298333+282280855+282639778+282753230+282512015+282147035
3426+281790794+281377775+281236497+281752705+282327440+282328063+282024204
3412+281801990+281526806+281022503+280640443+280992980+281864305+282126563
3399+281622381+281229575+281261122+281594486+281783024+281474752+281239041
3385+281408768+281658705+281954932+282213867+282123656+281786848+281514952
3372+281395911+281500242+281887494+282457435+283002854+283027237+282521775
3358+282513555+283175212+283581171+283747628+284225541+284638767+284508339
3345+284377582+284725586+285318906+285989874+286658886+287222995+287369222
3331+286783015+285875574+285347788+285477645+286002974+286478100+286690242
3318+286443611+285642181+284724323+284243399+284244368+284435866+284506470
3304+284029873+283105179+282863653+283745880+285135975+286557634+287395716
3291+287681837+288104841+288652233+289410124+290766733+291983519+292298228
3277+292678765+293767874+294890623+295497718+295258355+294434324+293858240
3264+293837440+293894339+293738663+293727622+293878695+293715509+293183068
3250+292672535+292253615+292013145+292062118+291965487+291769802+291899831
3237+292132169+292247247+292369213+292117840+291258300+290394053+289771193
3223+289491786+289642375+289577879+288894486+288115985+287814722+288028007
3210+288542018+288799395+288451495+287694245+286652967+285536015+284690457
3196+284457670+284571053+283938052+282273102+280860182+280427349+280290829
3183+279896223+279160985+278640796+278614977+278023993+276293457+274664068
3169+274532931+275056079+274795240+274143395+274034183+274242847+273590949
3156+271853335+270635841+271549909+273138700+272513072+270407588+270272920
3142+272537403+272917611+269670151+266597109+266718296+268587394+268194033
3129+265410504+264335049+266259869+267210918+264193650+260501797+260513340
3115+263373738+263487865+259083703+255333844+255996315+258252820+256427746
3102+251380616+248908560+250865792+253043577+250351383+245347430+244142706
3088+247722024+250065729+246265443+241250865+240650225+243389886+244224195
3075+240891457+237876040+238755948+241838076+242328552+239160834+236642469
3061+237265346+239490633+239466008+236618727+234501752+234527034+235331285
3047+235187273+234110953+233288480+232959096+232887194+232735048+232046429
3034+230994198+230425070+230581110+230549926+229878093+229359739+231521136
3020+242282659+261904888+274531079+268455460+254394337+243604987+237139296
3007+233044479+230243229+228276583+226861085+225678529+224429124+223472762
2993+223441423+224868291+226732249+226769091+225400143+224864241+226147322
2980+228015554+227811113+225869507+224766468+225135895+226321531+226537671
2966+224789466+223033665+223334720+226066802+228148024+226095026+222393310
2953+220867422+222437420+225383651+225597957+222731432+220405863+220587773
2939+222968528+224274417+222227285+219485842+218763167+220756238+223372272
2926+222541977+219028782+216854527+217375633+219167810+219132421+216628212
2912+214603664+214810960+216615978+217699462+216465182+214736133+214408065
2899+215327775+216416330+216097710+214533232+213492768+213800763+215044786
2885+215697825+214911191+213893171+213740230+214472128+215423818+215545420
2872+214784155+214163112+214265143+214730163+214744821+213954656+213097556
2858+213007916+213461653+213561676+212768587+211579888+210814920+210633408
2845+210841328+211110473+211155344+211076780+211110784+211291327+211415837
2831+211408292+211354975+211231019+211125372+211148163+211116114+210872304
2818+210612019+210542435+210518987+210417303+210348740+210268705+210169010
2804+210316068+210622834+210712232+210640884+210678782+210863011+211102235
2791+211250193+211124645+210772108+210480795+210388438+210394789+210387054
2777+210381447+210403061+210345781+210152173+209895487+209606943+209306632
2764+209199583+209371111+209501815+209399179+209295159+209429377+209660018
2750+209715757+209713335+209807318+209846168+209764263+209658893+209611477
2737+209610854+209606182+209703938+209960796+210121560+209991738+209778159
2723+209762654+209881418+209884170+209795949+209885520+210136269+210172783
2710+209865498+209575050+209574998+209661195+209674762+209766755+209866605
2696+209771704+209677063+209849767+210059314+210024115+209978205+210054330
2683+210019720+209889396+209793042+209684037+209613727+209603828+209484562
2669+209310041+209260497+209236789+209093140+208846059+208582607+208350824
2656+208205341+208201291+208243671+208273488+208318048+208286622+208111375
2642+207922784+207760204+207441013+207062085+206902654+206908174+206819053
2629+206510141+206215298+206145057+206107038+206012951+205989710+205942450
2615+205680020+205274528+204972089+204835569+204701871+204461019+204190975
2602+204058349+204045578+203901946+203630811+203507150+203505592+203395757
2588+203131077+202801416+202507698+202304555+202188005+202062475+201833512
2575+201624831+201562429+201595049+201675188+201648816+201392719+201112723
2561+200948603+200753817+200435301+200136547+200062118+200153056+200138451
2548+199938059+199712782+199557383+199469318+199486900+199524677+199378466
2534+199110689+198999660+199086513+199173419+199123114+198938884+198714248
2521+198553086+198480561+198448045+198422641+198352313+198168205+198021234
2507+198078133+198142646+198053456+197976397+198012045+198136485+198341100
2494+198437800+198286433+198137229+198196534+198354753+198573645+198933606
2480+199279274+199375196+199289778+199199031+199130243+199036069+198900173
2467+198837685+198968839+199227515+199491174+199691514+199779320+199752636
2453+199659725+199631466+199817945+200109292+200284713+200428102+200682036
2440+200949399+201130340+201215498+201255801+201344195+201482947+201614396
2426+201700073+201766040+201877519+201980414+202016513+202095441+202292095
2413+202512976+202678551+202828481+203026468+203271801+203482109+203564896
2399+203659105+204198918+205749603+209321601+216469975+228649524+246708712
2386+270242861+297207453+325153050+353009111+381106680+410097500+440616941
2372+472672306+505123887+536227615+564071250+585882356+599757935+606540256
2359+604953801+590597558+565193377+535720197+507925085+491587556+495487934
2345+514609979+524558910+516320407+504364577+494995502+490458680+493125384
2332+498361571+497732083+492107675+489002048+489161808+486348323+477127829
2318+462885799+448274480+441995528+446274124+449820788+441557641+422190108
2305+400073672+383771480+373965453+365320489+355278525+343776918+330251316
2291+315800657+302591564+291015130+280667490+271888049+264930826+259407601
2278+254716834+250518463+246685004+243198441+240225196+237757155+235546612
2264+233553627+231919411+230464699+228854138+227234492+225929867+224898903
2251+224024031+223258907+222435361+221588938+220965144+220507859+220040416
2237+219554041+219062803+218642153+218431793+218359441+218234879+218091524
2224+218031182+218059631+218177029+218335716+218499681+218653816+218714280
2210+218726999+218868174+219151405+219451820+219689833+219888616+220098560
2197+220360645+220707559+221068611+221353226+221547613+221636648+221672833
2183+221835586+222148790+222399488+222488107+222474903+222416654+222353820
2170+222372423+222514185+222582488+222463326+222312374+222171857+222001403
2156+221893125+221873467+221781802+221485281+221109035+220855949+220751133
2143+220867492+221230447+221657829+222109992+222587957+223004021+223337835
2129+223634702+223969451+224314495+224624480+224954470+225265406+225456090
2116+225649906+225944092+226224675+226533985+226879168+227121715+227312659
2102+227529768+227737047+227992625+228387837+228859416+229379795+229976680
2089+230578895+231170847+231877602+232788607+233884118+235175644+236531406
2075+237810091+239244711+241052947+243135848+245340542+247691394+250200933
2062+252860109+255732673+258795747+262130424+265711767+269378008+273167219
2048+277017083+280712639+284160197+287455263+290529239+293175903+295393507
2035+297230296+298749607+299929256+300760139+301300090+301475286+301225160
2021+300626579+299795903+298675888+297326893+295929339+294432732+292874796
2008+291306512+289606778+287822215+286134526+284524848+282968902+281572560
1994+280256237+278973502+277838085+276869593+276020003+275209194+274442720
1981+273739253+273075727+272583244+272342548+272211255+271976547+271580141
1967+271304957+271402090+271667376+271892566+272147001+272513124+272984755
1954+273462598+273894687+274327278+274748517+275075772+275402802+276256718
1940+277662076+278809952+279540328+280271413+281053600+281801454+282562269
1927+283203800+283581863+283910710+284143947+284219432+284816490+285841916
1913+286354317+286380552+286569921+287097429+287657437+288074453+288411607
1900+288718650+288929512+289044711+289163181+289068194+288955417+289608336
1886+290673217+291338595+291779008+292338964+292836344+293014067+292957030
1873+292550812+291384765+290307424+290954839+292545759+293565439+293912993
1859+293846369+293552876+293222731+292876527+292573723+292234926+291153501
1846+289212674+288484427+289641302+290237615+289724383+289302383+288904939
1832+287191205+284902720+284414252+284975177+285375701+285947684+286384878
1819+286556734+286447211+285700689+284445989+283542927+283631079+284010318
1805+284025754+283695263+282899959+282310325+282513849+282062638+280497919
1792+280538066+282910792+284794737+285451722+285464545+285196906+285439470
1778+286054646+285359573+282786438+281008486+283299687+287330839+289775917
1765+290054770+289428381+289848149+291052924+291980300+292712510+292568186
1751+291337418+290806293+292202531+294334994+295566349+295548698+295869360
1738+296545675+295691915+295731059+299415262+303032219+305441146+307041895
1724+307924105+307898978+305860897+302835841+303645197+308544109+312824159
1711+315010683+315108214+314172220+314074689+313661099+311759243+311836216
1697+314975969+320176854+325805657+328847879+329875140+329019441+326051734
1684+326905114+333931713+339353375+341005104+341167079+342538709+343933148
1670+345372164+350216288+355640200+358239448+360772972+365408848+369207057
1657+369246028+365759621+366874272+374779100+378542007+381325311+388972676
1643+396704281+400752859+401318768+399611766+401196075+408831534+415076984
1630+417673844+419047274+420373150+421780394+424771151+427362266+427375279
1616+429037392+434428320+438763123+441230577+443775626+446893540+450004359
1603+453489071+457788502+462282339+466388923+470613286+475478695+480575681
1589+485753896+491332688+497548304+504444146+511153163+515726741+518439994
1576+524102439+532492500+538219630+543320907+551634134+560949321+568636972
1562+572516445+572519698+579412460+596231172+611287576+623759926+634825516
1549+645701719+655234708+661908769+665329555+669195427+683518098+700954288
1535+712754026+723515671+735906756+746399134+755061819+762616774+767652327
1522+773340763+783673312+796280572+809650913+822100628+830978171+835989497
1508+838736495+847148187+863432417+876563880+883942878+886280025+889183184
1495+897609412+905963306+910643136+915300817+923458610+931905120+938449808
1481+943787022+947115538+948009031+948412861+950156999+953745852+958890149
1468+962413589+961651476+959537011+958807985+956368254+950913298+949790963
1454+954831361+959354962+961057499+959012392+956207179+954351458+950559514
1441+944714156+938581672+933128792+930029879+927625312+922959533+917828734
1427+915163553+915708454+918380002+918596384+918218096+925438927+935801379
1414+942127055+945796411+948845556+950318143+949931757+949881918+951572896
1400+954331800+958827367+963780063+966481307+970130312+975658366+977818932
1387+975914134+975651028+977989628+980700771+983423889+985721441+987153674
1373+988413825+989925592+990483575+989324969+987074140+985404275+986345806
1360+987294121+986513042+987452289+989953280+990712970+989807848+988316433
1346+985911243+982980326+979337343+974221842+970561830+970211992+969252879
1333+966107242+964346906+965245106+966223047+966267279+966273231+966462756
1319+967773369+972655807+979030560+981264430+979961985+979708709+982933395
1306+988885560+994288740+997321133+998203828+998384007+998456619+997676371
1292+997729739+1000280637+1004555461+1009232800+1013829428+1018838193
1281+1024424252+1031202697+1038359291+1042583723+1044271031+1046513762
1269+1049172505+1051624210+1053362396+1052423495+1050156745+1049759214
1258+1051524533+1054397997+1057505286+1060321782+1062690562+1065069725
1246+1067291481+1068135551+1068543880+1070929273+1073741823+1073330863
1234+1071016767+1070067760+1070259084+1069691272+1068788089+1069621637
1223+1070406731+1068903617+1066738413+1064425701+1061541855+1059723512
1211+1060478565+1062036986+1061368043+1059129950+1058656277+1060583918
1200+1062051453+1061846977+1061495546+1061368458+1059922866+1057236020
1188+1056245896+1056902518+1055814863+1053436946+1051832355+1049181434
1177+1044725184+1041600521+1040994568+1041653197+1043214387+1044619831
1165+1044235314+1042404789+1039849184+1036622906+1033388736+1030816518
1153+1029707128+1031321133+1035072307+1037856338+1037466698+1034928675
1142+1032525354+1031131193+1030320556+1029925933+1028797646+1025571644
1130+1022691743+1022825615+1024125568+1023956325+1022386898+1020854019
1119+1019815580+1017922619+1014525021+1012910739+1016026473+1019043430
1107+1017001438+1013983720+1012957671+1012780536+1013371122+1013503955
1096+1012964731+1013865076+1016386141+1018434847+1019115419+1020317772
1084+1023953833+1030263381+1036629343+1040282571+1042225924+1042522186
1072+1040544638+1038032226+1035131421+1031998313+1031683154+1035304540
1061+1039051699+1039412059+1037649508+1037344594+1039871611+1042960834
1049+1043938290+1042749090+1042105966+1044780145+1048128735+1047064892
1038+1042114065+1037187811+1035409062+1037291433+1037027428+1031428285
1026+1027152423+1025528589+1022399081+1020514703+1022574069+1026296032
1015+1027414421+1024705355+1023345388+1024739688+1025262161+1025990080
1003+1029204383+1033221777+1037992009+1044358041+1047564315+1043711041
991+1037386126+1035878582+1039294247+1041066903+1040942999+1042806542
980+1044344128+1045097934+1047317268+1047703862+1045507648+1045587528
968+1048295348+1050953952+1053011727+1053433900+1052136923+1051442992
957+1052040154+1054343313+1059817790+1066973207+1071506084+1070168683
945+1064797067+1060973765+1060479119+1060029881+1057263223+1054466386
934+1055260894+1059496540+1063180986+1064543998+1065727523+1065801104
922+1062656921+1059190310+1058320699+1059257108+1059757915+1058830504
910+1058992687+1062161790+1063934516+1061110890+1058567122+1060052862
899+1061817558+1060026904+1058525036+1059506161+1057378613+1052352613
887+1050269643+1050753007+1051696407+1054473447+1057643449+1057294926
876+1054955980+1052918764+1049454230+1044962609+1041385800+1038708299
864+1035019492+1029123741+1024995802+1026870559+1031220833+1032888206
853+1033684167+1036116561+1038826457+1039713582+1037072213+1033388598
841+1032445613+1032793651+1033417324+1035090650+1033687698+1027149239
829+1022081499+1021903396+1023270700+1024333297+1024241442+1022713963
818+1021798320+1023441673+1025506093+1022640936+1016649108+1014391634
806+1016430442+1019227694+1021012257+1021021809+1018690477+1015829957
795+1013840988+1012326107+1011478092+1008943460+1002174706+995059575+993105423
781+994246585+992450048+989445135+989015140+988617817+985897399+981207116
768+976288684+973535524+973324057+974353498+973594015+971273620+973900453
754+978936421+974783839+964500921+957782974+954190729+952584616+954206789
741+956259717+954410572+949916805+946286974+942655689+939376873+937042080
727+932621686+928811121+929830110+929970488+922649427+912242120+907162336
714+909463142+913813208+915117383+914917683+916953930+921762303+925926721
700+926750785+925143149+922132838+920232262+923545481+930537539+934982783
687+935083221+934164601+935318777+937303524+936813307+935210309+934717877
673+936786865+941576894+942678878+936524590+933095705+933614509+931862895
660+925468276+921574509+923262578+923204710+921549728+924447834+926480481
646+920256628+910843113+905392171+905295401+908389885+911475785+913292950
633+908364896+883842924+850608291+844228900+872201908+901081076+907163720
619+902678398+898945636+895406068+891588927+893806046+902941227+909168680
606+907061828+903374752+903025675+904370621
##END=
