##TITLE=Sample description
##JCAMP-DX=4.24
##DATA TYPE=INFRARED SPECTRUM
##DATE=12/9/2023
##SAMPLING PROCEDURE=Instrument type and / or accessory
##ORIGIN=Default
##XUNITS=1/CM
##YUNITS=ABSORBANCE
##RESOLUTION=4
##FIRSTX=4397.6552
##LASTX=599.8556
##DELTAX=-1.9287962
##MAXY=1.720615
##MINY=0.15251859
##XFACTOR=1
##YFACTOR=1.6024476e-009
##NPOINTS=1970
##FIRSTY=0.15640922
##XYDATA=(X++(Y..Y))
4398+97606447+97161611+97003611+97227485+97276100+96523439+95594357+95232952
4382+95178515+95484620+96189103+96866981+97362246+97533887+97487727+97800368
4367+98284651+98287134+98376088+99045607+99511691+99279886+98808287+98508004
4351+98170896+98118366+98891457+99553807+99290533+98929974+98958131+98715427
4336+98453502+98967858+99384993+98843419+98501987+98994927+99041301+98376107
4321+98264063+99008216+99626543+99469809+99117107+99177123+99469083+99712903
4305+99977618+100488207+100786268+100439806+100160194+100391888+100595053
4292+100710360+101138449+101392349+101337383+101881783+102762854+102805416
4278+102146619+101807615+101950531+102188660+102270110+101739909+100853686
4265+100713225+101623169+102781359+103445178+103487488+102796889+101735659
4251+101431451+102063793+102631990+102427979+101914032+102059618+102624987
4238+102802775+103014932+103810619+104289685+103815334+103406382+103788134
4224+104452743+104699929+104571045+104754468+105436010+106138950+106341584
4211+106189806+106059955+105847789+105761401+105756705+105427790+105011725
4197+104846853+104840428+104810941+105314407+106245814+106099801+105255684
4184+105338640+105792720+105618782+105456533+105638859+105480087+104877652
4170+104459466+104691914+105332224+105810927+106047503+106136392+106060977
4157+105926412+105745007+105554312+105702157+106236329+106702664+107032509
4143+107310977+107207089+106874138+106831604+107048094+107272405+107324535
4130+107199370+107138797+107279221+107621833+108122891+108510037+108497111
4116+108163537+107760175+107620866+107706017+107384672+106826099+106999544
4103+107937274+108607862+108394199+107869280+107820004+108276604+108829606
4089+109269802+109460274+109420334+109570736+109943840+110124483+109855416
4076+109488654+109496958+109252515+108687406+108943072+109704400+109791411
4062+109308272+109035830+109261507+109727136+110102993+110194653+110073794
4049+109808586+109445395+109623843+110651773+111636026+111724152+111058846
4035+110513646+110704703+111064909+110905087+110585415+110270951+109909155
4022+110157754+110800334+110776891+110392526+110736152+111595817+111819049
4008+111458155+111364263+111289843+110867389+110602014+110643051+110559229
3995+110347835+110350095+110585053+110915521+111382879+111851651+111871616
3981+111345823+110744056+110611127+110875953+111013932+111354350+112183895
3968+112720894+112698929+112655940+112976663+113267368+112992248+112421624
3954+111770099+110933812+110312620+110725868+111568357+111916753+112789920
3941+113928508+113704393+112180864+110343400+109813236+111307213+112451437
3927+111616563+110735204+111058214+110822549+110301991+111836029+114363227
3914+114757393+113242912+111555413+109121790+106199058+105780761+107896795
3900+110623346+113276472+113159267+109963061+108941287+111669437+112115501
3887+110937801+111442021+110666205+110936053+113673827+112615183+109213218
3873+107270080+106967202+109634379+111161981+110223907+111905715+114892303
3860+114225314+108664753+100846535+102079490+113376548+118658687+117426467
3846+113475136+109627209+107029533+105269447+106978491+111614396+113919042
3833+114586385+115635005+115914580+115267685+112538801+108166522+109313321
3819+113264671+114399447+117746511+120647780+118593798+114326627+113195812
3806+114104910+112038775+112796216+117618398+119208109+120315508+122164047
3792+122444635+122413437+122196761+121273417+120794100+120065254+119510652
3779+121580805+124133315+124140178+121933888+120481886+122054338+124264078
3765+125751434+125593472+123467060+123280541+125021035+123585576+118616348
3752+117182470+122846724+124856480+123664116+129098489+134363108+132637056
3738+128655410+128186108+133011787+140017328+144449809+145284022+145934943
3725+148665882+152498791+157106502+161787042+164593034+164335247+164022708
3711+170070759+180179814+187703040+191718981+195783537+203980847+213542675
3698+221092589+226921277+230380691+232615910+239830893+252741570+261966346
3684+265781428+267871230+268959343+268418978+272146445+283069776+290101271
3670+295622125+307035365+317644037+324307700+329535896+334156458+338229829
3657+343927215+350623649+352774173+352111861+358080554+371591890+383333180
3643+390699551+396063140+401396675+406589162+411211212+415114969+417212378
3630+420295033+430804094+441288606+445257084+446127657+448681757+454777550
3616+460926867+466040202+471496000+475842241+479402084+484940904+490942032
3603+494924125+497998746+501503019+505402276+510102251+514670850+516550847
3589+516682298+520103698+526403473+530454304+532221895+533052444+533351723
3576+534414897+537197158+539946240+539979381+538485553+540212005+545294392
3562+549955386+552849830+555270769+557621259+558183514+557617316+558109196
3549+558825628+558797657+558882538+559858041+561493586+562168433+561964116
3535+563291529+565913252+567389301+566613951+565054657+564886494+566436005
3522+568667170+569749462+569423513+568930889+568093979+567107765+567438772
3508+568886663+569588366+569226784+569160314+569612246+569179917+567317104
3495+565498740+564808159+564566608+563986499+562902087+562236055+563475798
3481+565367587+565572314+565392471+565846262+566088520+566308385+565551633
3468+563640391+562387108+560989766+559043411+558682573+559269600+558842106
3454+558358000+558627634+558191288+557169811+557292818+557715774+556442332
3441+553421942+550880934+551009261+552694388+553398025+552213146+550410442
3427+549767100+549367727+547823944+545862003+544255285+543679305+544317328
3414+544879620+544940696+545045886+544718189+543783602+542892312+542133588
3400+541292586+540882947+541277745+541126357+539837962+539140909+539461315
3387+539944529+540706749+540979098+539806941+538571066+538525910+538791453
3373+538388471+537928543+538185232+538685518+538870234+538770623+538500171
3360+537928319+536832488+535386717+533822699+532633245+532971357+534558548
3346+535115595+533691137+532076272+532153045+533176791+533346070+532750413
3333+532240679+531954753+531402430+530560610+530159637+529625391+528260632
3319+527352827+527718984+527973665+527310758+526452832+525081304+522906937
3306+521365423+521660648+522748036+522414239+520922159+520190736+520560390
3292+521980534+524093787+524984446+523942772+522636857+522681641+524338574
3279+525637273+524349845+522134860+522118159+523524540+523663653+522238451
3265+520593048+520088299+520776276+521036499+520257466+519296359+518234710
3252+517131998+516716704+516253614+514996166+513784171+512889980+512470223
3238+512233098+511167470+510340863+510591601+510087000+507891990+505206141
3225+503337749+503550919+505697947+506536456+504463337+502444524+502104441
3211+502006578+501610924+501176773+500943814+501278652+501585594+500909147
3198+498896062+496335676+495019979+495466591+496658686+497726360+497555221
3184+495099355+491797466+490109139+489887302+489849139+489674132+488693980
3171+486914821+486007908+486461848+487039019+486772621+485602063+484298454
3157+483271361+482265767+481673384+481647421+481402336+480598047+479412574
3144+478109226+477155446+476430644+475323580+473898638+472294784+470692380
3130+470113127+470123021+469100354+467729272+466876368+465778267+464605217
3117+463404902+461213314+458610672+456958203+456118503+455259126+454058626
3103+452532436+450648310+448775305+447535711+446623070+445802192+445267313
3090+444185319+442300077+440896709+440738514+440999890+440435887+439198116
3076+438067246+437223938+436897134+436817126+435836937+434055174+432725491
3063+431588186+430146060+429281997+428890137+427778906+426011761+424391429
3049+423293961+422821832+422550934+422304882+422215203+421803071+421272284
3036+420733351+419601291+418413734+417336054+415680200+413832303+412776531
3022+412617444+412465089+411713172+410526210+409710688+410108834+411201466
3009+411811407+411990208+412543796+413347825+413963604+414867579+416418764
2995+418795253+422923824+428942434+435297706+440716754+444902420+447809437
2982+449727077+450667094+450644405+450274118+448894072+445270029+440601000
2968+436532688+432654819+428866852+425771178+422749598+419636441+417519505
2955+416663476+416511121+416603777+416648709+416924555+417745173+418707582
2941+419385368+419543935+418966318+417801116+416334068+414811524+413624265
2928+412556554+410449363+407153277+403860650+400613885+396811152+393133025
2914+390172298+387530191+385129710+383179933+381444293+379714567+378176847
2901+376941159+375909193+375060343+374223582+373374509+372949693+372874632
2887+372527816+371931787+371679487+371492503+370513876+368977755+367488279
2874+365833726+363715116+361593084+359961816+358337765+356310359+354238133
2860+352380565+350652364+348829202+346737373+344378031+341764193+338855243
2847+336012873+333764710+331980343+330398881+329006671+327692871+326369289
2833+324958147+323478639+322161826+320954481+319552154+318191897+317360603
2820+316864818+316178514+315106637+313766911+312530182+311654792+310880650
2806+309973905+309045995+308072055+307067763+306248205+305588719+304863732
2793+303975250+303016858+301954484+300750282+299663806+298532731+297022071
2779+295554149+294481956+293488432+292277479+291021463+289997048+289105813
2766+288216252+287460876+286963844+286479366+285581846+284508685+283792532
2752+283427397+283222280+282894100+282197140+281473770+281015739+280500797
2739+279760132+279031258+278523923+278261561+278049767+277700664+277188270
2725+276623077+276175851+275850999+275541250+275139124+274595114+274079187
2712+273830457+273778513+273546056+273005505+272398057+271900951+271478888
2698+270907056+270121848+269415961+268954861+268551228+267974300+267250819
2685+266550288+265917268+265239798+264428516+263633508+263000506+262447978
2671+261896082+261273812+260525931+259820341+259315405+258823470+258168113
2658+257547758+257167169+256903747+256620871+256480028+256548302+256575808
2644+256391855+256005631+255567796+255346889+255396602+255449495+255286334
2631+254956071+254665793+254636688+254784002+254769849+254644703+254728952
2617+255001022+255217280+255291393+255331379+255425187+255508264+255480516
2604+255324256+255096969+254856237+254689524+254629676+254531981+254334582
2590+254061805+253640244+253093835+252561802+252104923+251689778+251254195
2577+250696013+250044804+249540631+249230267+248894164+248379018+247786616
2563+247325572+246961516+246546799+246124847+245805148+245558036+245372186
2550+245350408+245416487+245413902+245425414+245601741+245861202+246006546
2536+246100484+246321540+246567870+246634488+246586822+246622939+246771109
2523+246983778+247223878+247444580+247667366+247843823+247802648+247588454
2509+247446700+247376716+247286553+247313911+247463625+247489401+247276845
2496+246930922+246632294+246474155+246362065+246235543+246156985+246119510
2482+246137550+246177108+246005541+245599584+245212132+244957432+244726092
2469+244359972+243989016+243901289+243944474+243815422+243577888+243327727
2455+242976671+242523902+242189045+242063304+241858447+241414327+241019938
2442+240850771+240699271+240465029+240203913+239892397+239534943+239201221
2428+238971071+238732440+238426967+238321201+238352389+238180674+237824969
2415+237555168+237569507+237748977+237857831+237887830+237893168+237895734
2401+237946730+238025065+238079110+238089023+238036949+237950821+237755096
2388+237303946+236528205+235117658+232615613+229034810+224825431+220386181
2374+215898260+211275188+206414749+201694911+197644322+194558598+192546276
2361+191688610+192505416+195518125+200404824+206583024+212405091+214779200
2347+212450489+207716795+204362925+203241484+203415654+204383308+205398573
2334+205837579+206054617+207091400+208953116+210560560+211766956+213419816
2320+215682710+217966842+219863354+221273138+222459524+223783404+225141076
2307+226338713+227485392+228608246+229543837+230248757+230827973+231295304
2293+231658783+232022076+232362383+232617956+232825398+232897893+232707059
2280+232367627+232063680+231861408+231756422+231634513+231398894+231100657
2266+230857469+230752595+230724085+230677850+230647386+230629384+230533641
2253+230458022+230579150+230729255+230633922+230415246+230343012+230396685
2239+230446919+230476694+230459807+230411527+230430701+230493265+230514820
2226+230558135+230723248+230952115+231082412+231099206+231092213+231041850
2212+231014846+231152657+231356398+231494804+231622870+231736690+231807604
2199+231985420+232307314+232528537+232538654+232573544+232780428+232972843
2185+233027428+233050471+233122334+233159307+233084152+232972416+232830531
2172+232643175+232587902+232775723+232988875+232987759+232945802+233069497
2158+233235094+233351703+233397529+233351926+233390592+233674974+234078736
2145+234390346+234569407+234722060+234945422+235239865+235541934+235731578
2131+235774446+235915586+236291136+236574346+236596589+236671353+236880228
2118+236996725+237046159+237141102+237225611+237303239+237450517+237612468
2104+237688924+237719146+237808249+237962631+238164829+238467530+238840085
2091+239152197+239355714+239543722+239762416+239946796+240146129+240407022
2077+240636280+240839835+241122339+241458609+241646151+241608974+241624522
2064+241901279+242235801+242453323+242635267+242832481+243046637+243278163
2050+243497824+243681107+243820946+243926117+244016429+244162089+244427836
2037+244785345+245085777+245233575+245382025+245643029+245892596+246001152
2023+246044076+246128307+246167288+246244247+246631513+247233158+247738373
2010+248042171+248202077+248356663+248584024+248809580+249058552+249406000
1996+249645133+249614260+249712476+250296714+251081066+251785000+252353169
1983+252789869+253189447+253584859+254005657+254512992+255093640+255526769
1969+255675479+256012679+256819423+257568718+257990074+258232964+258361737
1956+258523205+258719674+258735408+258547178+258257142+257779527+257123240
1942+256994375+257640953+258143527+258122009+257914325+257741735+257687206
1929+257747612+257646514+257152309+256710699+256526449+256400522+256868485
1915+257804801+258181281+258001828+258074602+258677457+259303465+259574568
1902+259673956+259810614+259854189+259873959+260100334+260125441+260032619
1888+260671553+261689217+262362520+262811457+263229169+263571223+263795329
1875+263985252+263705966+262506543+261729091+262945847+264879276+265999359
1861+266404331+266652558+267012504+267436129+267856444+268195188+268117913
1848+267235531+266076206+266657152+268955902+270463568+270947358+271498082
1834+271904169+271194990+270336506+271085020+272525788+273994361+275718377
1821+276985682+277683386+278303518+278688478+278480124+278443765+279432026
1807+280709746+281267928+280942853+280567453+281279626+282493294+282497646
1794+281514295+282387825+285529474+287813829+288621373+289101778+289630630
1780+290486008+291594542+291589502+290078247+289457688+291887442+295489670
1767+298307937+299444070+299644426+300891813+302686650+304229317+305580555
1753+305604844+304807771+305731719+308585657+311468459+313547604+315187390
1740+317348849+319131914+319189679+320807557+326132945+331324949+335838833
1726+339619695+342587936+344825201+345252583+345128944+349071980+356589515
1713+363157995+367759921+370525407+372631370+375636918+378037474+379783789
1699+384296520+390992284+399751868+408729495+414701127+419546278+423572820
1686+426868460+435308344+447972653+457843170+464672653+470691301+477580150
1672+483163195+488183205+496235842+503927752+508631930+513372263+519704250
1659+525000812+526888025+526352700+532038444+543248984+549293074+555412970
1645+566770732+577577918+585076781+589980367+593783435+603009457+618754488
1632+632117933+643355068+656056907+669367645+683210510+699584785+714791701
1618+727596499+742661549+758215578+769248730+776669184+782985065+789569353
1605+795398784+798511420+799227666+798836141+797001634+793734486+789685850
1591+784362731+777015404+767885274+758140740+749315319+741539792+733447653
1578+723477637+713580971+707862011+703033226+697885299+696316521+697043926
1564+696766667+694410151+690020949+691917201+703370743+714121429+723853391
1551+734283224+745907495+756977174+766465428+775202694+787816156+812074124
1537+835826970+852315735+868779057+886207764+898206004+904715379+909488965
1524+913116171+915092394+916177401+915144543+912437046+909988136+906218544
1510+899587018+890304830+884758459+889644824+895925889+898685014+898330834
1497+899168191+903200014+906342407+908018905+912303215+920579176+928921049
1483+935223019+940128428+943767015+945681419+946457997+947681225+951358050
1470+956517507+960192472+962447145+965123992+967120897+965690636+960943087
1456+959003539+961598035+963338138+961859002+957565467+953815887+951530118
1443+948668035+944120749+937233240+929271584+925001335+923355635+919242873
1429+914513699+913419616+913934929+914992114+918793843+924714033+929786600
1416+933710183+937632353+941369807+945025282+948452075+950918095+953826823
1402+957324363+958220563+956850783+957321610+961846504+968976457+973596944
1389+972821854+969411576+966627604+964997228+966018259+969193309+971156440
1375+971891507+974185385+977183978+978135377+977393540+975250455+971743021
1362+969702299+969728485+970187410+971575267+973973665+974831628+971996623
1348+967615753+964693635+962505691+959114086+954814600+951096190+948928556
1335+948639766+948962032+948492098+947389311+946547342+947679067+950729288
1321+953147921+954126994+954327481+954583538+956267252+959227980+962669131
1308+965904290+968313847+971252703+974709997+977044567+978870742+980295200
1294+980428883+980456631+981949827+984849627+988976598+994550121+1000087937
1281+1003900676+1007075652+1010476706+1012526875+1013090171+1014827968
1269+1019005228+1023026339+1023747570+1021468050+1018382567+1016150584
1258+1015791940+1016828667+1017919402+1018424970+1018781457+1019937881
1246+1021358768+1022097704+1023285074+1025235261+1025982975+1024802894
1234+1023286562+1022981257+1023733286+1024248079+1023709406+1022806957
1223+1022671117+1022815586+1021991174+1020494854+1019385892+1019125297
1211+1020201377+1022188239+1023167461+1022590551+1022546957+1025027112
1200+1028144063+1028071530+1025975536+1025492880+1025736365+1024451392
1188+1022887300+1023390265+1025360016+1026175873+1025659593+1025349081
1177+1025270895+1025992051+1028353402+1030950724+1032845042+1034322690
1165+1035491612+1036443383+1036659864+1037488591+1040644895+1043932947
1153+1045044364+1043969771+1042063550+1041224111+1041487608+1042912661
1142+1045477325+1046545743+1046487792+1048131037+1049082585+1048845125
1130+1052019283+1057153820+1059058032+1057254770+1054808909+1054097127
1119+1053647352+1052804789+1053385939+1053572142+1050309234+1044753193
1107+1040328803+1037496476+1035456350+1036743109+1041043785+1043435041
1096+1043360352+1044717634+1049290138+1054388222+1055796463+1053101613
1084+1050271741+1050160525+1050992227+1050829235+1050746064+1051380479
1072+1051465509+1050617366+1051242780+1055620303+1061452413+1064813518
1061+1066289232+1066969249+1064963641+1061054192+1057699931+1054412772
1049+1051770740+1052777264+1055978128+1056359983+1054288388+1054790386
1038+1058748710+1061267772+1059099468+1056163960+1057168028+1058937517
1026+1056192526+1051078745+1048111695+1046309400+1041260563+1034432493
1015+1032593671+1037071847+1041134245+1039355384+1035462822+1033865775
1003+1034509712+1037687515+1041346858+1041958732+1040559865+1040036145
991+1042887367+1049900525+1055119570+1053979736+1052375770+1053834448
980+1053897458+1051322900+1050355581+1051764491+1052277796+1052797498
968+1055637487+1058993087+1062347721+1066435710+1068290228+1066437198
957+1065127527+1068245370+1073321136+1073741823+1069403505+1066936889
945+1067853845+1069430732+1070396638+1069142240+1066230686+1064938645
934+1064906731+1063869930+1063141632+1064449220+1066615664+1068745135
922+1069988970+1067993255+1065324591+1067043493+1069861536+1068749971
910+1067555979+1069906320+1072415711+1071960283+1068228632+1062786261
899+1060238782+1062806645+1066467029+1066868448+1064922353+1062214112
887+1057922066+1054272394+1054241373+1055521659+1055168371+1053497378
876+1050710356+1047526155+1045202223+1042720134+1040708351+1040728214
864+1040000139+1036830742+1033561139+1030425070+1026839673+1025381887
853+1026956841+1029186220+1030249133+1028046386+1022682127+1020049469
841+1023230099+1027051616+1027612904+1026973802+1026253613+1024316817
829+1020942024+1017863906+1017521256+1019836633+1021939844+1020988816
818+1017510098+1015622029+1017188129+1020050064+1021982917+1021725892
806+1019281446+1014204266+1006557363+1001609551+1003388710+1008264883
795+1010113301+1006600287+999611084+992633263+988447894+987688501+989565188
781+991789285+990203397+984399481+979273649+977401128+976433065+974500137
768+973966821+976459846+977690587+973729734+967177881+962650756+961308352
754+960035579+955759453+949655068+945368303+943083650+938651077+932641765
741+929202102+925796064+919810856+916795153+918739983+919233425+916382277
727+913350431+910408153+907431729+904668884+902357004+900231029+895495532
714+889226666+887400119+889617076+890285488+889894335+891041310+892209042
700+892517099+892394575+891296698+890152103+890531056+891891462+893159920
687+893147274+892025442+892440624+894544207+897141529+899883470+901332998
673+900451378+894234438+883734453+884001223+894102913+899130697+900701856
660+900693301+898280917+898552820+903668535+906011734+902090308+898237621
646+898454697+901902617+904108564+900811064+895800465+898607200+915024102
633+926868351+911974625+892794656+889705453+889467101+883417767+876634481
619+870148465+865145900+864366123+869321747+879070149+884756748+880633944
606+873006383+869027601+872051115+877342544
##END=
