##TITLE=Sample description
##JCAMP-DX=4.24
##DATA TYPE=INFRARED SPECTRUM
##DATE=12/9/2023
##SAMPLING PROCEDURE=Instrument type and / or accessory
##ORIGIN=Default
##XUNITS=1/CM
##YUNITS=ABSORBANCE
##RESOLUTION=4
##FIRSTX=4397.6552
##LASTX=599.8556
##DELTAX=-1.9287962
##MAXY=1.8711299
##MINY=0.28143358
##XFACTOR=1
##YFACTOR=1.7426255e-009
##NPOINTS=1970
##FIRSTY=0.31250873
##XYDATA=(X++(Y..Y))
4398+179332125+178251811+177372872+177750073+178460472+178224413+177049098
4384+176187621+176333500+177134625+178082194+178260670+177831462+177844493
4371+177859885+177550220+177669865+178144017+178608147+179502187+180244857
4357+179037133+176604669+175731887+176540588+177336548+177841073+177872660
4344+177467361+177810888+178449732+178199718+177875277+178232708+178429500
4330+177555983+176381984+176269949+177089288+178017463+178887440+180060788
4317+181197129+181596853+181536757+181141804+180523089+180263139+179980324
4303+179454490+179545917+180225326+180009363+178518601+177728388+178524656
4290+179494901+179806722+179445118+179017226+179400550+179883253+179807047
4276+179763642+179450573+178366069+177442409+177311476+177693004+178676436
4263+179837813+180150745+179863107+179913318+180099336+179705991+179062786
4249+179098136+180130462+180940685+180038693+178594517+178399042+178822948
4236+178678984+178069897+177896979+178505347+179365320+180082970+180482608
4222+180370402+180145683+180243027+180258214+180006678+179973688+180443205
4209+181028195+181069685+180591719+179990619+179626364+179833674+180058394
4195+179657250+179430991+180145289+180851258+180494853+179669649+179395864
4182+179596504+179966061+180606461+180966132+180539455+179971345+179636882
4168+179418866+179541778+179669803+179347123+179101488+179151084+179005084
4155+178701336+178525579+178231802+177791546+177811623+178286323+178510854
4141+178534438+178899856+179278083+178828233+177575548+176883175+177554051
4128+178159529+177885863+177850889+178198897+178271889+178096268+177788741
4114+177329793+177085234+177229284+177117985+176756090+177002256+177837687
4101+178608558+179216533+179331697+178400923+177542319+177774067+178231340
4087+178416315+178750504+179407972+179893172+179589578+178698087+178128950
4074+178386010+178542920+178025005+177463034+176820376+176188578+176127439
4060+176649545+177694167+178765058+178928245+177995829+176972122+176643747
4047+176549909+176715097+177640296+178590635+178507246+177600482+177004582
4033+177053117+177131683+177038067+177078599+177346142+177547261+177525182
4020+177527919+177679938+177868128+178192262+178450707+178213520+178031315
4006+178446175+178764203+178237257+177260444+176787027+176763906+176648621
3993+176603660+176586421+176508043+176920115+177512014+177235595+176539904
3979+176578024+177040547+177186358+177213277+177308740+177215278+176974704
3966+176871733+176969591+177062472+176838282+176605678+176972054+177419578
3952+177348143+177387819+177681648+177238878+176392793+176633811+177317462
3939+177030970+176421644+176188886+176142061+176392348+176628749+176185654
3925+175925140+176771242+177292835+176555279+176039176+176926870+178037147
3912+178040755+176931984+174639465+171431666+169756101+171162994+174213968
3898+177120533+177529868+174508994+171768678+172887608+174125277+173844138
3885+174108877+173540339+172941462+173977756+173363145+171197369+169825416
3871+169269550+170526665+171692437+170998559+171602481+174093639+174863980
3858+171486666+164250653+161499751+169019998+174985523+175861828+173898933
3844+171286488+168869022+166824670+167388231+170619819+172642879+173230417
3831+173994464+174343293+173984990+172134095+168129892+167383255+170486646
3817+172098335+174525087+177334718+176918251+173614373+171213719+171052174
3804+169309364+168905997+172827289+175574088+177047867+178719618+179232694
3790+178766717+178128369+177753254+178148002+178116825+177378892+178247518
3777+180165914+180649592+179162662+177500658+178063245+179815409+181177376
3763+181147464+179587269+179490506+181417487+181565864+178814910+178012400
3750+183398186+187699484+189509249+195846314+202922919+204971701+204652629
3736+205687897+209527322+215956020+221839079+224754691+226034499+226835538
3723+227329939+228831748+231264811+233106043+233935351+236382198+245005061
3709+257576083+268973124+278113886+287299968+299475165+311757182+320317503
3696+325145730+326119926+323097051+320177164+321830856+323254423+319664481
3682+312343369+304283007+295791676+287826879+285164668+283471881+279706147
3669+279986825+282958001+284270868+284330827+283551696+281789954+281106166
3655+282172832+280016907+274310597+273892984+281488309+288647569+292339165
3642+293965870+295310905+296746855+298102391+299023502+297904281+295781312
3628+298004773+301695651+302023427+299619438+296225655+294404569+294134905
3615+294197464+295792257+298415151+300779669+303771077+306733582+307809774
3601+307564909+307968994+309365575+310864801+311738165+311445482+310223170
3588+310060633+311402932+312061529+311625189+310807168+310274339+310773545
3574+311908158+312145773+311340236+311079978+312107225+313126571+313536607
3561+313500830+313089220+312821266+312863132+313016537+313253912+313213893
3547+313044139+313207908+313309288+313040274+312815930+312972995+313216424
3534+313066372+312350278+311717984+312141224+313099892+313498128+313493305
3520+313488243+313151197+312430247+312001124+311831302+311270870+310788869
3507+310947506+311273231+311607608+311812729+311290503+310339942+309844224
3493+309817716+309728581+309491240+309216514+308993983+309229922+309889989
3480+310097915+309406585+308344724+307643099+307402919+307259433+307063376
3466+306767957+306346667+305888163+305398192+305039495+305034125+305342371
3453+305702299+305419809+304287077+303348863+303093121+303014862+303306998
3439+304035610+304230094+303560928+302923811+302928497+303124041+303007577
3426+302461203+301204653+299852982+299664416+300373224+300945148+301039209
3412+300878519+300798721+300680102+300439477+300451346+300733152+300859091
3399+300758873+300614840+300306458+299995852+300119260+300255870+299859378
3385+299391776+299431795+299913968+300380133+300389779+299954499+299599736
3372+299809098+300271228+300411840+300369085+300303482+299954431+299579556
3358+299873162+300661016+301121948+301153279+301112234+301005313+300771255
3345+300702300+301036849+301521655+301793987+301765461+301735772+302089475
3331+302627126+302855301+302944197+303223267+303330496+303148531+302943991
3318+302546405+301926493+301379196+300914570+300334060+299711857+299551782
3304+300045379+300513050+300203025+299495141+299616359+300623220+301499149
3291+302261520+303283637+304206630+304695096+304879284+305161672+305508944
3277+305680238+305887171+306491726+307449060+308163067+308206574+307746668
3264+307193556+306854835+306731906+306525656+306096123+305704693+305545132
3250+305599551+305731954+305813359+305759386+305422682+304760289+304103265
3237+303983141+304116571+303996549+304103368+304555920+304590979+304059690
3223+303467790+303114909+302998649+302713115+302205494+301965725+301946058
3210+301912845+301764742+301335825+300657322+300065799+299631683+298960567
3196+298213040+297991912+298407011+298753941+298376638+297449130+296340443
3183+295116832+293834184+293356492+293894760+293999287+292874046+291458174
3169+291108234+291317459+290324553+288384061+287671696+288519235+288960979
3156+288250974+287444274+287776155+288496798+287356712+284675620+283916754
3142+286387287+287466986+284480315+281759666+282565733+284455278+283184516
3129+279431798+277959096+280540570+282658186+279948807+275705331+275423251
3115+278705597+279014236+274128495+270163302+270959261+273339205+271666376
3102+266603237+263879988+265364097+267050829+264233725+259415998+258682119
3088+262943724+265702254+261785390+256327195+255253807+257546446+258070758
3075+254899335+252219628+253274357+256472801+256835791+253279864+250260734
3061+250421749+252785635+253534205+251291880+249258833+249273763+250253808
3047+250044805+248276188+246582512+245987637+246213041+246064493+245026404
3034+243968989+243666404+244118221+244441465+243866241+243294881+245751220
3020+257078382+277129993+289957819+283984085+269765356+258601244+251598553
3007+246580135+243038796+241312969+240715682+240047320+238651509+237142808
2993+236863704+238467389+240200041+239750653+238216880+237955716+239651701
2980+241751189+241325385+238872125+237336778+237573966+239088379+239796794
2966+238200753+236254446+236210477+238766161+240973409+238993309+235364734
2953+234050619+235584426+238263654+238390431+235578799+233367874+233804932
2939+236320682+237430189+235176903+232474724+231971105+234119283+236394118
2926+234996580+231478551+229610657+230216067+232041685+232086937+229582285
2912+227514469+227712784+229452669+230313069+228802162+226722546+226034448
2899+227026602+228732608+228997603+227443274+226140908+226400003+227745209
2885+228456411+227517223+226247265+226086900+226978391+227951801+227945080
2872+227167128+226662603+226761709+227062601+226951780+226333202+225765845
2858+225546597+225592123+225714898+225350062+224232277+223062691+222565571
2845+222686721+222789230+222510297+222305826+222607642+223153605+223501938
2831+223440815+223020004+222663274+222732298+223052891+223160805+222811771
2818+222318789+221989320+221810929+221829382+221943384+222001565+222048818
2804+222078404+222062174+222101492+222230338+222305809+222237983+222097148
2791+222138689+222325801+222236461+222027406+222007739+221862560+221449838
2777+221150127+221170324+221196507+220982151+220705424+220517645+220436992
2764+220448057+220351499+220017908+219647804+219524311+219736170+220026083
2750+220151184+220234026+220344932+220435863+220522741+220482380+220295729
2737+220246117+220363693+220404258+220419804+220494677+220404789+220138015
2723+219999438+219983619+219940590+219947687+219895389+219705985+219616131
2710+219757462+220049598+220223781+220097005+219856089+219813112+220031384
2696+220174100+220018284+219846512+219916955+220071796+220080723+219961591
2683+219863340+219799259+219632772+219404700+219276008+219199887+219093872
2669+218965829+218823558+218759733+218796195+218738065+218511994+218255944
2656+218074971+217954693+217845206+217770692+217642872+217349830+217064775
2642+216951098+216950585+216936117+216819721+216633429+216424255+216143868
2629+215854879+215687690+215515901+215294584+215260244+215356647+215277978
2615+214969202+214606350+214382571+214267457+214022797+213669846+213437208
2602+213298426+213164637+213083249+213027137+212925517+212740286+212466620
2588+212183412+211986996+211933056+211953031+211859740+211639022+211447463
2575+211295118+211050406+210725127+210484776+210395487+210432136+210459619
2561+210275773+209952956+209651602+209363092+209150190+209100013+209109863
2548+209055530+208914131+208643664+208370768+208335846+208331570+208063360
2534+207805890+207824497+207897009+207811465+207635520+207499252+207411313
2521+207292865+207151090+207038593+206964336+206909353+206817875+206743738
2507+206800722+206855636+206705566+206497230+206499761+206656809+206815908
2494+207000319+207137887+207040782+206816302+206850061+207253941+207731890
2480+208016706+208071124+208011182+207980826+207996628+207963519+207798262
2467+207600427+207605232+207810114+208005145+208090586+208072612+208014089
2453+208016808+208150922+208405758+208670907+208886734+209078584+209176390
2440+209167719+209238932+209434681+209583690+209638143+209717907+209834012
2426+209889080+209945038+210077339+210222894+210375973+210494781+210477850
2413+210414179+210481304+210699577+210958141+211138293+211238733+211395404
2399+211721949+212397939+213930360+217313369+224069552+235800800+253355181
2386+276198979+302443212+329733709+356645944+383308183+410843102+440338692
2372+471568319+502986136+532509602+558292356+578835614+592568766+599264733
2359+598015332+584790108+560668024+532467189+505549105+489212212+492485768
2345+511127732+521050669+512470544+500240860+491213861+486971547+489755268
2332+495295792+494985357+489682311+486994566+487613486+485429633+477214670
2318+464127219+450169107+443939819+447934359+451051090+442816903+424305154
2305+403035165+386839397+376829035+368316429+358764946+347688105+334194928
2291+319661471+306693563+295651816+285816287+277375816+270639574+265269591
2278+260689394+256498215+252553424+248977711+245997026+243608668+241541365
2264+239621652+237923410+236430237+234973116+233585411+232446505+231464425
2251+230451048+229458416+228545530+227740951+227102432+226575554+226084882
2237+225657760+225365163+225185575+225027570+224811589+224573136+224457561
2224+224464231+224477246+224447659+224449592+224576352+224731278+224799840
2210+224863630+225016283+225241823+225551660+225901087+226128577+226288344
2197+226584464+226976784+227254879+227359030+227463506+227666694+227841476
2183+228012359+228326693+228624250+228657702+228523998+228457078+228482235
2170+228539134+228572636+228494840+228354381+228197026+227906703+227560747
2156+227406470+227392344+227325099+227219409+227128666+226984719+226792407
2143+226811459+227094479+227390891+227715349+228164806+228669553+229101720
2129+229362816+229525148+229729431+230057019+230488040+230917744+231203466
2116+231324993+231422987+231589800+231861687+232187496+232483907+232739531
2102+232990673+233284245+233632852+234033021+234433874+234889470+235468611
2089+236103778+236780896+237528868+238416990+239494380+240762388+242124730
2075+243493811+245048072+246856879+248785519+250816736+253080301+255668941
2062+258529843+261617996+264940173+268494218+272079166+275581957+279219255
2048+282954751+286483537+289763574+292990305+296052788+298723124+301033531
2035+302971491+304519767+305678459+306496754+306979303+306983510+306571319
2021+305925617+305129007+304150159+302979119+301597212+299937090+298156296
2008+296445621+294788269+293135945+291530310+289981727+288443679+286953721
1994+285517173+284129520+282931048+281996511+281191812+280383898+279594369
1981+278907640+278370535+277934247+277528452+277205481+276980744+276758709
1967+276618781+276684572+276852206+277115661+277543142+277969067+278243707
1954+278512140+278991781+279609128+280177461+280631894+281038339+281793750
1940+283050027+284253766+285101544+285800809+286443108+287030201+287716503
1927+288361350+288692136+288965802+289242033+289368895+289969756+290979080
1913+291381352+291270942+291397223+291847004+292381920+292908045+293264210
1900+293329676+293213383+293231580+293533463+293580118+293380469+293851286
1886+294768157+295376166+295814729+296318211+296694146+296746410+296630732
1873+296175273+294862389+293688099+294474414+296324675+297469823+297686676
1859+297406854+296978997+296621737+296381728+296113192+295573728+294309380
1846+292404255+291784172+292933561+293409645+292779985+292343235+291983581
1832+290259429+287851267+287221504+287857937+288509111+289219424+289582567
1819+289545046+289286874+288623318+287473553+286421987+286298802+286645835
1805+286720929+286481639+285735754+285054976+285122905+284562849+282977497
1792+283158949+285659393+287534949+288132765+288128113+287861938+287998994
1778+288456745+287688422+285047023+283183678+285506792+289603432+292039983
1765+292272159+291613357+292071964+293339425+294269395+294949917+294703033
1751+293329300+292718486+294194044+296459747+297686676+297522942+297727652
1738+298400717+297504643+297320010+300920931+304765453+307380344+309001405
1724+309870664+309907467+307841858+304495140+304918242+309777048+314156417
1711+316311949+316210158+315073048+314999715+314670536+312669367+312658798
1697+315846912+321182349+327041654+330179694+331088766+329988596+326669344
1684+327348600+334627299+340347634+342117687+342191225+343435770+344812649
1670+346353126+351384148+356843575+359230701+361552430+366273907+370194703
1657+370016501+365957691+366703576+374952573+378954980+381645564+389272870
1643+397280832+401711814+402460744+400658470+402061926+409464957+415494050
1630+417994220+419318118+420648480+422223400+425269055+427599232+427271387
1616+428626376+433839124+438145536+440477252+442784889+445968180+449283567
1603+452556679+456298555+460218736+463866893+467898408+472728379+477509610
1589+481918429+486558021+491955675+498279606+504782595+509341432+511840439
1576+517212509+525395390+530603178+535113787+543189609+552167628+559483850
1562+563407827+563575050+570271736+586795690+601814431+614508537+625560717
1549+635593277+643838888+649801933+653629832+658572848+673609922+690684868
1535+701316886+711265784+724336817+735482784+743347842+750082391+756084702
1522+763367540+773572215+784980526+798161491+811927547+822508876+827985952
1508+829545446+836727588+853192266+866632086+874099625+878491273+885581954
1495+895285883+900872959+901950656+904356287+911890729+921159585+928672479
1481+933717148+936818487+938395904+938460002+938539082+942959256+951052180
1468+956113952+956816158+958312991+961369796+960746532+953783774+947913217
1454+949818239+952987302+952564541+948912587+946627422+945359893+941806925
1441+937092050+931919389+926034808+922689869+920947657+916988415+912712308
1427+911600612+913693482+917111960+918896516+918339470+919408891+923859643
1414+929217689+934427359+937668523+938717558+941212461+946735028+952872582
1400+955706856+954922629+954842318+957597239+962074808+965542060+966937170
1387+967647518+968500769+969792720+971985739+974071221+975208776+976357754
1373+978961905+983591612+988215095+990421659+989912704+987796575+986440595
1360+986035757+985714172+986408785+986703349+984035169+980248999+979892662
1346+982148480+981667983+976959675+970124224+964124171+961148839+961135157
1333+962529652+962724067+960975357+959438642+959821726+961330120+962426903
1319+963379209+965000817+967336946+970513123+974008286+976657039+979319404
1306+982981277+984964079+984536051+985687835+989292177+991792826+992302670
1292+994203656+998560348+1002844801+1006790635+1011404677+1015599516+1018792453
1279+1021620844+1024751052+1029341356+1035385123+1040800700+1043730198
1267+1044721018+1046081034+1047793215+1047777139+1046594641+1046662091
1256+1048640173+1051391605+1054042547+1055686114+1056114074+1057058855
1244+1058796757+1059571955+1058700438+1056985590+1056644440+1059987943
1233+1065026182+1066971975+1065190703+1062301497+1060795771+1061903705
1221+1063362434+1062535315+1060494845+1058932136+1057764003+1056594708
1209+1055318969+1054245513+1054470438+1056010094+1056649844+1055590959
1198+1053710153+1050922533+1048677797+1048166516+1047334472+1045400444
1186+1044746192+1046111271+1045683721+1041771202+1039167257+1040315141
1175+1041062428+1038405056+1035334980+1034907157+1036389624+1037574585
1163+1035969599+1031972528+1029289161+1028661656+1028196550+1028456432
1151+1030254875+1030668879+1027816682+1024966057+1024207346+1024278627
1140+1023909908+1021744731+1018926327+1018212354+1018761669+1019373851
1128+1020750423+1020421312+1016986485+1016336132+1019995474+1020427332
1117+1015488490+1011005038+1011474111+1015663888+1017385713+1014125121
1105+1009989045+1008308537+1009327199+1011631517+1013790949+1016475889
1094+1020500666+1023673080+1023390419+1023542969+1028967781+1034828625
1082+1036535469+1036493946+1035918567+1035047872+1034597816+1036276135
1070+1039656852+1041104499+1041303155+1041618652+1041891326+1044758231
1059+1049433567+1050730785+1048188681+1045734822+1045080364+1045876426
1047+1047373875+1047231860+1044182306+1042902736+1044984525+1042842811
1036+1038665006+1041453105+1046238304+1046490592+1044170471+1039760695
1024+1033568825+1029045150+1029332737+1031693629+1030468102+1026893039
1013+1026354737+1029982748+1033343490+1031704506+1025980409+1021808487
1001+1022857180+1026497162+1029406959+1031828666+1034024695+1036217920
989+1038393358+1039684420+1040458455+1041723590+1043868656+1045027895
978+1043585994+1042459454+1043519297+1044564021+1046170307+1050860760
966+1055604777+1055763142+1053311814+1052626709+1053974207+1054997110
955+1055259454+1056728582+1059118479+1059810630+1059324797+1060446139
943+1064644261+1070491697+1073741823+1072937073+1070344415+1068257701
932+1067706950+1066434221+1063150917+1061239260+1062977435+1065441076
920+1064109517+1059071141+1054793323+1055292017+1060184273+1064401892
908+1064131749+1060106630+1054780736+1051952618+1053927074+1056579726
897+1056586088+1057431609+1061088078+1064746531+1064699740+1061730838
885+1060248440+1059810561+1058772267+1057672952+1054295040+1048988916
874+1046510294+1046922451+1045552310+1041882228+1039956820+1039793120
862+1038246760+1035512840+1032830157+1031089451+1032308205+1035665526
851+1037266886+1035938474+1034061909+1033783900+1033362439+1030538425
839+1028994939+1030321846+1029562313+1027315594+1028851829+1032168448
827+1032709828+1031831197+1030062649+1026928063+1025055056+1024152004
816+1024870628+1029776772+1033900193+1031900905+1027727683+1025208905
804+1021282499+1014282596+1009792167+1010122850+1010887719+1012063787
793+1015416661+1015688788+1010331563+1004543163+1001317595+999239638+997182887
779+996097870+996177907+995671415+994097898+991936688+987853764+981076666
766+976087201+977773113+982068648+981293177+976024061+970845859+967599222
752+966544236+965925350+963165845+957651418+952110518+950608760+951091993
739+948058515+942926831+939830759+939357719+940720335+942293853+940924054
725+935430765+929871942+925390406+919941446+917119348+917337500+917197606
712+917668321+918783232+920850518+925606985+930809609+933223585+933002696
698+932426497+932708679+932968150+933682192+936694464+938090463+933225364
685+928881396+932318002+939498912+942985388+940795789+936821565+938694641
671+947212105+949969694+939056861+931281076+930784982+933274686+938501799
658+944245597+945925216+942402895+938063373+936189203+935734907+937443256
644+942759847+945064508+937238169+928889742+935004105+954371535+967896180
631+961198571+944124584+930634963+923993859+926094528+934800045+939695585
617+934896226+926200218+922087264+924880904+932113326+940415988+944765018
604+936502648+913665777+892893523
##END=
