##TITLE=Sample description
##JCAMP-DX=4.24
##DATA TYPE=INFRARED SPECTRUM
##DATE=12/9/2023
##SAMPLING PROCEDURE=Instrument type and / or accessory
##ORIGIN=Default
##XUNITS=1/CM
##YUNITS=ABSORBANCE
##RESOLUTION=4
##FIRSTX=4397.6552
##LASTX=599.8556
##DELTAX=-1.9287962
##MAXY=1.9583616
##MINY=0.31952262
##XFACTOR=1
##YFACTOR=1.8238664e-009
##NPOINTS=1970
##FIRSTY=0.33277828
##XYDATA=(X++(Y..Y))
4398+182457595+181551825+180400071+179276389+178814304+179431294+179889080
4384+179761186+179639419+179513991+179798261+180203400+180094689+180239512
4371+180800340+181112454+181414274+181497461+180725616+179975046+180145932
4357+180298925+179848622+180206537+181402558+181758071+181518132+181031505
4344+179835354+179263856+180246424+181363684+181700031+181627088+181115755
4330+180300150+179864276+180283810+181285447+181725129+181233077+180892221
4317+181484945+182279323+181994432+180820994+180036828+180081633+180647641
4303+181272669+181381642+181130902+180978579+181110411+181735260+181833726
4290+180841011+180269888+180660582+181502249+182313425+182501599+182737437
4276+183369982+183290944+182486974+181864707+181598346+181506792+181388325
4263+181073009+181054283+181778055+182356024+182191544+181793758+181291608
4249+181199400+182016181+182464980+181756339+181065378+181155968+181604081
4236+181904855+181889038+181806863+181896914+181939055+181707024+181516351
4222+181835148+182545995+183259784+183732195+183711345+183429084+183618876
4209+184177579+184011824+182847766+181648543+181376756+182442055+183911970
4195+184061564+183324409+183581211+184411162+184006955+182721178+182295435
4182+182716244+182716096+182506207+183110630+183976186+183802654+182848599
4168+182559623+183213214+183567714+183200338+183027573+183450849+184132415
4155+184482651+184033508+183649808+184451147+185458863+185253238+184652017
4141+184701266+184649125+183904143+183080466+182887146+183516194+184177351
4128+183733371+182556534+181827108+181678511+182036606+183210894+184523632
4114+184728571+184153608+183627421+182674315+181413571+181122225+182184566
4101+183529380+184110666+184250783+184334461+184360459+184875338+185515694
4087+185035292+183672357+182786833+182834645+183349295+183671638+183452778
4074+183299801+183685593+184210390+184583682+184375001+183525312+183210420
4060+183925597+184661037+184644729+184109915+183729008+183684678+183357580
4047+182532825+181943140+182116444+182712714+183028750+183006069+183195959
4033+183623974+183875482+183874158+183928326+184173903+184346324+184243251
4020+183836903+183369443+183349589+183964569+184718717+184978249+184799781
4006+184368465+183608189+182986118+183113735+183761297+184149589+184011269
3993+183680217+183219766+182825527+183127477+183893293+184137889+183635673
3979+182955170+182619738+182591421+182530210+182658219+183349589+184261503
3966+184593503+184204034+183990223+184395770+184971713+185105294+184546002
3952+184140242+184688962+185447817+184885763+183382433+183147412+183820105
3939+183465033+182517008+181843040+181872158+183157167+184284248+183695854
3925+182871083+183042704+182843288+182358622+183043358+184277908+184540577
3912+183941480+182996935+181166899+179052610+178993213+180980343+183445833
3898+185551217+185452866+182971722+181582741+182917832+183006788+181658870
3885+181654262+181204253+181118810+183272888+183450016+181135510+179186599
3871+178735741+180835945+182426189+181874446+182666439+184708913+184546590
3858+180817987+175189707+175324089+182314781+185795912+185207207+182775215
3844+180218319+178594954+177762617+178539544+180795993+182232035+182842014
3831+183699188+184484252+184732329+183137869+179687638+179504873+182037946
3817+182897995+184711936+186577447+185463046+182377087+180843282+181432444
3804+180762480+181167749+183693812+184273022+184662425+186058074+186350841
3790+185665893+185042972+184852119+185161586+184842494+184036956+184885747
3777+186440843+186051440+183592208+181761813+182724185+184628242+186104970
3763+186151213+184172922+183084960+183864648+182975873+179173592+176837386
3750+179814406+181594163+180943725+183665690+186167422+184116777+180513128
3736+179098280+181085950+185168644+187895904+187501288+186381609+186889691
3723+188313183+190280607+192436074+193469624+192616536+191352230+193852262
3709+199522847+204114457+206875573+209903868+215698949+222366073+226849984
3696+228800496+228171987+225448045+224017739+226157013+227693481+226163647
3682+222635081+218244799+213547060+211372475+213645461+214349102+213537109
3669+216028138+218771640+219310555+219490542+219872086+219450051+219461326
3655+220775110+219854357+216444094+216505876+221708592+226277963+228266531
3642+229216305+230587786+231720995+231804509+231208795+229712426+228488791
3628+231344925+234951564+235283466+233573874+232265123+233240959+234902413
3615+235618097+236474797+237568511+238583433+239969424+240597247+240039752
3601+240142679+241542576+242693742+243335046+244158411+244406831+243924632
3588+244781512+246972192+247980741+247848500+247847275+248118081+248411371
3574+248747456+248612077+247579475+246892893+248379801+250785241+252296496
3561+253117427+253648646+253795659+253397923+252940381+252950103+252898256
3547+252803319+253442433+254600283+255497784+255972205+256391527+256645355
3534+256267946+255487146+254984212+255141911+255593505+255752184+255626087
3520+255399122+255084246+254852543+254572537+253810529+253127231+253355961
3507+253793208+253754662+253863144+254337140+254473042+254028213+253763060
3493+253982297+253678680+252633169+251825915+251575714+251690258+251981718
3480+252135986+252116296+251926799+251573557+251347163+250992451+249972496
3466+248843487+248548743+249080681+249687817+249811954+249634368+249503467
3453+249323104+248984601+248750364+248765561+248615280+248141431+247896949
3439+247973633+248093407+248526357+249083001+248912214+248096250+247716406
3426+248157330+248652960+248859468+249162578+249286551+248738795+248274407
3412+248806444+249564138+249561753+249305963+249622081+250391769+250694536
3399+250297339+250012824+250050618+250088936+250093936+250183709+250596119
3385+251166441+251314352+251037942+251023285+251472280+251782090+251805506
3372+251928024+252216903+252571534+252971868+253336010+253533677+253793470
3358+254197906+254402060+254700138+255298336+255691023+255876402+256212259
3345+256753217+257326447+257700262+257659493+257200023+256740570+256615077
3331+256878726+257477365+258229831+258922867+259064455+258485947+258065220
3318+258283198+258505425+258435979+258175810+257627254+257050625+256803512
3304+256827303+256666810+256163434+256244057+257444325+258962460+260196896
3291+261265136+262293031+263292185+264208053+265196520+266564308+267911818
3277+268561063+268516699+268481421+269248331+270531118+271340415+271295365
3264+270577834+269597129+268959486+269015794+269423906+269732328+269752067
3250+269557929+269459463+269361013+269214932+269154947+268909142+268396337
3237+267986166+268143260+268396860+267706520+266516921+265882416+265790812
3223+265858771+266009869+266166098+266217112+266216099+266027778+265490823
3210+264887004+264666313+264910011+265274887+265408158+265081240+264522209
3196+264233086+263833944+262802764+261734377+261210445+261097485+261205134
3183+261111358+260350608+259453580+259288005+259578060+259553092+259258642
3169+259168657+259210961+258834630+257892520+256927420+256606449+256968842
3156+257439766+257720377+257655457+257090054+256383814+255813264+255405380
3142+255226880+255216095+255370788+255516297+255186503+254272989+253278378
3129+252737599+252521762+252056818+251300953+250827725+250686088+250201324
3115+249205389+248428838+248328297+248246400+247343703+245839196+244582423
3102+243869092+243258623+242281299+241026030+240032416+239517847+239103051
3088+238623728+238368445+238308052+238097688+237629918+236952878+236246949
3075+235855308+235798378+235736563+235615581+235612264+235621104+235511788
3061+235381671+235445790+235786875+236030262+235780322+235042645+234302548
3047+234176843+234460101+234644042+234661804+234498484+234356831+234362370
3034+234163624+233646849+233152232+232963617+232961199+232765933+232403263
3020+232225759+232171624+232147375+232209125+231990134+231383553+230855569
3007+230577655+230429254+230411868+230372553+230025324+229585430+229534056
2993+230017562+230805617+231545403+232158716+232625702+232961297+233342938
2980+233602453+233562714+233505523+233582240+233428969+232881360+232475258
2966+232412756+232289797+232126705+232031393+231767809+231489095+231383145
2953+231172634+230939133+231021651+231224122+231223714+231059299+230935914
2939+230992484+231076456+230992026+230909868+230946600+230967679+230823477
2926+230370494+229720988+229107953+228607159+228350896+228301679+228121333
2912+227815934+227714331+227841196+228115744+228518350+228812539+228801003
2899+228542779+228199814+227979385+227932979+228000023+228252103+228571096
2885+228748616+228904240+229137464+229392665+229589450+229747737+229908835
2872+229826088+229643585+229859210+230210083+230154804+229829699+229617015
2858+229473957+229273071+229015598+228566799+228019043+227591486+227329830
2845+227373458+227673154+227973960+228189259+228267610+228253753+228398936
2831+228726475+228953473+229018474+229109979+229221534+229158199+228952868
2818+228776280+228610852+228532403+228720936+229059194+229315081+229532471
2804+229790009+229912577+229918312+229956238+229926450+229934424+230220148
2791+230605564+230687461+230425904+230243302+230418829+230727233+230836255
2777+230831974+230935914+231029903+230915440+230562214+230204151+230110211
2764+230232256+230438813+230618032+230713785+230771352+230810274+230994069
2750+231345824+231478571+231347834+231329091+231455483+231579848+231715815
2737+231870916+232035249+232107064+231980248+231810310+231740015+231674000
2723+231635699+231770195+232017079+232261871+232402201+232419260+232529899
2710+232747926+232851131+232842716+232873909+232994386+233117574+233150140
2696+233141431+233214112+233411567+233630476+233724334+233778649+233865203
2683+233808797+233680102+233598139+233464444+233337546+233253427+233212168
2669+233305111+233479166+233568024+233493905+233369033+233255387+233097492
2656+232954973+232886083+232882406+232949646+233022082+232987229+232825493
2642+232591012+232384210+232251936+232102538+231997830+232050086+232076328
2629+231937257+231772401+231656582+231446234+231141000+230979656+231009461
2615+231072093+231125852+231190984+231185853+231027092+230738769+230383321
2602+230071681+229957284+230034573+230150800+230227321+230213106+230017383
2588+229680383+229372435+229195177+229094914+228979094+228901903+228908652
2575+228840660+228638173+228483235+228452614+228388233+228172200+227877651
2561+227626927+227451466+227270760+227037161+226789852+226572348+226471153
2548+226506579+226598672+226681043+226628967+226403276+226126865+225846272
2534+225595826+225469401+225441917+225383174+225165376+224845533+224727655
2521+224852200+224872053+224686053+224537471+224486359+224363955+224273594
2507+224424888+224633127+224667474+224521491+224289754+224179915+224242270
2494+224322484+224419740+224587423+224720220+224768081+224825451+224932871
2480+225070439+225216815+225291784+225259610+225225524+225239250+225188236
2467+225112303+225251570+225575694+225759881+225664373+225527801+225555988
2453+225602901+225639241+225825111+226032615+226117927+226270038+226637758
2440+227059024+227391171+227606911+227630669+227566714+227641437+227887537
2426+228160663+228317349+228378887+228448463+228568465+228694840+228746018
2413+228762358+228882230+229094358+229231027+229290702+229475460+229838049
2399+230197729+230443257+230584387+230626136+230727380+231000098+231154725
2386+230866582+230058053+228603139+226366837+223536815+220496330+217510079
2372+214582799+211593786+208447336+205107761+202274503+200991406+201240691
2359+202462415+204677131+208212413+213066185+217779692+219731871+218025579
2345+214629810+212418950+211911113+212365893+213325732+214447960+215438666
2332+216194334+217194746+218778110+220507638+221901407+223180860+224841350
2318+226875393+228817294+230307339+231530974+232810232+234020647+235023739
2305+235972156+236898596+237735884+238500114+239148771+239668569+240174428
2291+240718524+241218550+241644702+242027144+242291169+242451188+242625636
2278+242770329+242875265+243057998+243298297+243430570+243392776+243345650
2264+243479101+243773976+244038262+244198069+244380638+244698716+245065259
2251+245229658+245165899+245119836+245221766+245422685+245634780+245826385
2237+245958267+245977320+245987353+246126783+246323732+246465973+246607103
2224+246719556+246715700+246715357+246821634+247009644+247245269+247474065
2210+247674428+247829578+247896164+247941656+248077099+248239357+248347889
2197+248459198+248572828+248663500+248769106+248888913+249051628+249275211
2183+249469806+249591230+249648519+249691118+249860157+250124427+250256897
2170+250278597+250438191+250694700+250804359+250826304+250920276+250994951
2156+251006095+251085197+251242570+251399207+251569537+251794721+252060053
2143+252257737+252288407+252246871+252314127+252501206+252657287+252715654
2129+252776554+252903942+253032654+253135924+253267381+253394115+253439034
2116+253449737+253493251+253557713+253683974+253885187+254018523+254016856
2102+254006219+254114244+254303169+254424903+254453303+254515722+254659336
2089+254771544+254792574+254802738+254888785+255074834+255267436+255338827
2075+255361866+255466770+255551069+255506591+255382046+255247893+255255622
2062+255449646+255683768+255875046+255963708+255976699+256037844+256141849
2048+256210331+256200477+256126603+256081472+256120754+256196768+256327620
2035+256556432+256780963+256935361+257018696+256986244+256931913+256995803
2021+257080364+257072276+257096263+257302100+257630032+257906213+258084812
2008+258253590+258432694+258556390+258649708+258818666+259065158+259228772
1994+259141712+259015631+259230864+259689696+260130669+260498209+260795976
1981+260988529+261093188+261227259+261360154+261441234+261530124+261606482
1967+261771485+262219435+262770116+263063210+263105253+263160058+263374458
1954+263710968+264020484+264207857+264316306+264309280+264195422+264477846
1940+265298352+266000637+266362490+266577102+266750227+266998156+267307689
1927+267397756+267158862+267063631+267289665+267574001+268196399+269100207
1913+269616247+269710040+269886742+270407422+271086161+271662954+272081459
1900+272419684+272712827+273025055+273385700+273462531+273392481+273953668
1886+274878000+275492849+276003480+276649963+277265400+277690931+277954172
1873+277780214+276912387+276493032+277799495+279728945+280988185+281643296
1859+282170986+282798221+283404311+283902197+284333610+284572406+284335342
1846+283775560+284320277+286283747+287797240+288504084+289232432+289829372
1832+289560118+289173869+289949374+291207732+292582203+294249720+295521183
1819+296311165+297104220+297779527+298027931+298380944+299393154+300602099
1805+301402932+301579929+301544242+302209418+303379637+303745625+303362839
1792+304363317+307022584+308975695+309805776+310385559+310952237+311775553
1778+312918550+313269504+312249974+311610387+313437383+316416102+318773991
1765+319776102+319943034+320705924+321838071+322909203+324065794+324260340
1751+323435618+323555065+325336701+327392755+328758729+329512666+330461475
1738+331185443+330603831+330857790+333912490+337104481+339592111+341295805
1724+342288243+342645112+341472933+339441226+340205032+344172887+347889104
1711+350095585+350621576+350254379+350484286+350575202+349984603+350991289
1697+353640883+357621550+361939151+364222790+365018590+364551751+362701322
1684+363601340+368741637+372860084+374540803+375199345+376571202+377832632
1670+379157298+382811618+386687413+388591339+390440069+393660393+396162109
1657+395889718+393362511+394688747+400424578+402694982+404520116+410036988
1643+415443630+418383982+419193638+418747813+421258287+427969203+433118977
1630+435872593+438199174+440734779+443878436+448517350+452511775+454985091
1616+459545834+466374955+471888821+476276685+480914913+486019033+491121714
1603+496356915+502053170+507973450+513742942+519616521+525910207+532202291
1589+538271233+544535375+551355967+558826309+566567899+573069006+578382117
1576+585765530+594173603+600339018+606555283+614804530+623184106+630651573
1562+635532779+637693279+645723894+660691377+673850916+685265911+695178327
1549+704057325+711709958+717718899+722307094+728430809+741184719+754680800
1535+764046605+771632309+779541157+786724565+793466397+800449932+806390179
1522+812612001+820981119+829532528+837504841+845012243+851294589+855780559
1508+858600549+865247934+877798441+887816089+893977778+898027792+902648601
1495+908644209+912593306+913601888+915974745+923341098+932282189+938620025
1481+941053537+941469362+941971986+942608731+944219612+947778505+952140486
1468+955621600+957528369+958158447+958303156+957881971+954827075+950823140
1454+950804578+952105322+951504983+949208076+947633535+946063308+943183840
1441+939830768+935280744+928084982+921496814+917804192+914626026+912387093
1427+911068047+910062537+911511585+913651562+914769296+920386531+929838677
1414+935284208+935442839+935644673+938813820+942202056+943840781+947122675
1400+953160702+958040929+959049314+959520827+963278744+967667718+970378687
1387+971949829+972475787+973042922+974739360+977678895+981359032+984327522
1373+985698529+986464100+987675758+989090426+988957743+987658764+988508454
1360+989284024+987612554+986766067+986691294+985183290+982499774+980269011
1346+980246788+980935168+979148793+975491728+972714811+970053648+966092916
1333+962768668+961411256+961397334+962971287+965391661+966019908+965835918
1319+967698569+970608495+972484937+974680928+979708281+985010999+985983568
1306+984269547+984070327+985569050+987319019+989977894+993435413+995645783
1292+996968489+999404876+1003029915+1007242154+1012674613+1018898853+1024279220
1279+1029120164+1034019149+1037393987+1037816805+1037732555+1041175368
1267+1046556846+1048268579+1046487106+1045859251+1047304508+1049586448
1256+1052460099+1055480746+1057654972+1058858329+1059971096+1060910330
1244+1061422889+1061706293+1062135517+1063434497+1064976488+1065805458
1233+1066651357+1068908199+1071757274+1071703940+1067161629+1060963141
1221+1057079340+1056778811+1058512766+1059719065+1060261232+1062493956
1209+1065095967+1064023332+1059268860+1055650227+1057292154+1061333345
1198+1061690280+1058641919+1055803824+1053715025+1052599840+1052371862
1186+1052104602+1051681260+1049248010+1044976096+1042572519+1041514460
1175+1039659848+1038402372+1039746647+1043184623+1044163858+1041283409
1163+1040733791+1043163250+1041665508+1035429177+1030701176+1029928677
1151+1030694770+1032673633+1034743804+1034137256+1032537029+1030727320
1140+1027810073+1027102870+1030087504+1032060418+1029967763+1026993783
1128+1026832015+1028446622+1028444726+1026761099+1025886572+1025430746
1117+1021717013+1017072739+1018654012+1020682679+1011635573+999996979
1105+1001040725+1012249572+1020388490+1022040745+1020175283+1015639377
1094+1012616442+1014385039+1018875715+1024211310+1028010992+1027526342
1082+1025878990+1026789988+1029488211+1031403935+1032346633+1034338698
1070+1034779491+1033208414+1035681731+1040517447+1042114014+1043140439
1059+1044009214+1041483805+1039500041+1040483982+1043205996+1050355613
1047+1057802491+1056417823+1049395986+1043942350+1041839368+1042036561
1036+1041369293+1040712548+1042348855+1040007371+1030646077+1023985096
1024+1025073615+1026050104+1020668822+1013858558+1011999829+1014582102
1013+1018766105+1024258370+1028879049+1028668914+1024514911+1022260030
1001+1025971867+1030676339+1028870552+1025090739+1028109556+1035685979
989+1039913382+1038913690+1035234794+1032345456+1033511558+1038400346
978+1043641625+1047536408+1052097608+1058027528+1062794615+1065632056
966+1065652710+1060641958+1053312926+1050575160+1054993547+1059292651
955+1057996547+1055549440+1054493341+1057965958+1067853472+1073741823
943+1072167348+1070407836+1066532858+1059831028+1056860446+1058395182
932+1059694227+1059450367+1059946781+1060999024+1059561611+1056065006
920+1055754216+1059230231+1061090856+1061458314+1063536067+1064590271
908+1063355868+1063100634+1064869492+1067788634+1070099791+1069455595
897+1066082915+1063042398+1063154687+1064512884+1062980305+1060649214
885+1061926297+1064119020+1063277566+1060855231+1057273396+1051975972
874+1047276664+1045709378+1047362483+1049259448+1050267245+1052837884
862+1056030692+1054609880+1048789765+1044389810+1041950873+1038156093
851+1032856185+1029407294+1029916651+1030744379+1029324613+1030372215
839+1036717307+1040874055+1036843322+1032347679+1034477982+1038867806
827+1038147073+1032633959+1028074654+1027357515+1030435484+1036477760
816+1042069699+1040759673+1031743026+1023692150+1023966076+1028656757
804+1026772863+1017859682+1010661437+1009281736+1013472145+1024407915
793+1043401229+1055528852+1042407484+1018918265+1004855898+1000274370+998382438
779+996246579+994617658+994171375+995145773+995380745+992631018+989189643
766+988242958+990279599+991529559+988111518+981678712+974991587+968035046
752+961878782+960481499+963078413+962440557+958165179+957019928+958038053
739+956328673+952865206+948454335+945508134+947139669+947931907+944632365
725+939259776+930907586+923005209+919877174+919831356+920084237+920065609
712+924437721+935155513+942684222+942184409+941037981+942539579+945258979
698+947865696+946346582+943152532+945499833+948686889+944938646+938677543
685+936003569+935985594+935580292+934708249+935389700+938280541+940186853
671+936932606+931774009+936232723+945189566+944743086+940135806+943187239
658+951608907+951097132+940673399+933733524+935987882+940347445+935902978
644+924724589+918867416+919714753+924105100+929841552+937065616+947395753
631+935240220+898340478+893957974+937762557+970945757+959104544+943793394
617+932050092+917100976+913057433+922240750+937397583+961834402+987915109
604+996910514+991398445+980799806
##END=
