##TITLE=Sample description
##JCAMP-DX=4.24
##DATA TYPE=INFRARED SPECTRUM
##DATE=12/9/2023
##SAMPLING PROCEDURE=Instrument type and / or accessory
##ORIGIN=Default
##XUNITS=1/CM
##YUNITS=ABSORBANCE
##RESOLUTION=4
##FIRSTX=4397.6552
##LASTX=599.8556
##DELTAX=-1.9287962
##MAXY=1.960726
##MINY=0.32523939
##XFACTOR=1
##YFACTOR=1.8260684e-009
##NPOINTS=1970
##FIRSTY=0.34268972
##XYDATA=(X++(Y..Y))
4398+187665326+187329026+187073643+186224635+185417048+185679237+185906206
4384+185408088+185576516+186985675+188659831+189394644+189347739+189957016
4371+190596273+189799490+188831310+188939662+189438497+189794072+190163176
4357+190180737+189430484+188618116+188326420+188365638+188104722+187335946
4344+187145812+187748217+188056544+187575987+186720582+186281120+186415666
4330+187047008+188136808+188965481+189036344+188680786+188683332+189525730
4317+190156762+189544254+188876599+188946516+188782300+188145997+187400216
4303+187212416+188300274+189930070+190910116+190338197+188628855+187785640
4290+188145279+188459807+188427199+188664498+189393045+189922857+189728790
4276+188944395+188031933+187437753+187319919+187573964+187857418+188062795
4263+188272399+188711975+189393910+189643989+189608541+189840683+190167615
4249+190790682+191234028+190257361+188734415+188381371+188827295+189120999
4236+189126189+188895515+188792076+188956798+188893214+188612208+188913108
4222+190026606+191242858+191956732+192114812+191807579+191180954+190964887
4209+191375462+191275809+190362057+189599809+189500793+189705892+189710984
4195+189692836+190095234+191050847+192013103+191949665+190989449+190109074
4182+189642683+189769918+190414005+190781314+190359724+189617566+189585006
4168+190579707+191702263+191969641+191220303+190244697+189776185+189813428
4155+190254603+190475550+190106348+190287277+191267355+191815282+191772931
4141+192025229+192775074+192849479+191705511+190631900+190326936+190523957
4128+190893126+191234567+191869923+192616129+192913928+192714394+192315065
4114+192205146+192428068+192539292+192282652+191726466+191146681+191033727
4101+191426985+191621966+191298886+190856013+191018059+192096076+193184767
4087+193174550+192291220+191553730+191284736+191396613+191596164+191570948
4074+191579582+191397184+191003909+191160358+191390232+190798989+190038520
4060+190143265+191057049+192004714+192122483+191291232+190395221+190142955
4047+190812274+192013854+192571345+192248346+191666505+190785460+189818977
4033+189958909+191291134+192085631+191643852+191296976+191588917+191856296
4020+192009480+191921822+191335982+190705228+190604580+191190681+191996032
4006+192384884+192368645+192284937+192066193+191483340+190895623+190927236
3993+191624659+192436473+192988121+193246099+193018347+192349729+191761245
3979+191696078+192026453+192186426+192338925+193008669+193510720+193296040
3966+192852563+192429292+192219688+192118941+191991413+192040064+191628853
3952+190784823+190689642+191397560+191667908+191244310+191528091+192489269
3939+192720759+192061934+190913837+190172626+190791058+191708383+191529625
3925+191146338+191381810+191024098+190147345+190578206+192683712+194237095
3912+193639374+191692781+188706246+184845162+182711422+183577550+186443003
3898+190247112+191746997+189367373+187301232+188889134+189506227+188245356
3885+188537721+188308483+188006734+189840863+189666739+187185291+185078398
3871+183856222+185335511+187256726+187373548+188551544+190602115+190404327
3858+186485012+179582507+178109094+186645557+193034553+193964511+191273034
3844+187388253+184080580+181703452+182289407+185788666+187928363+188466188
3831+189200594+189608753+189503306+187775799+183520314+182472523+185133007
3817+186377346+189217126+192658464+192606989+189568343+187291130+187172937
3804+185555805+184977342+187866459+189704929+191519033+193850577+194180741
3790+193165688+192146327+191517744+191679039+191235579+190149353+191202040
3777+193346225+193426555+191145310+189066276+189558926+190911111+191755517
3763+191170003+188712872+187636324+188434869+186922613+182116377+178821287
3750+181293710+182760791+181798242+185459041+189962352+188697547+183446023
3736+179783772+182221840+188161974+191965969+191832027+190265342+190153531
3723+191563327+193926827+196514668+197790555+196251092+193155635+194185196
3709+199809007+204684262+206893338+208751768+213976396+220477873+224290077
3696+225255320+223467786+219321045+217085155+220096056+223322991+223200130
3682+220453131+215990833+209729479+204946255+206483057+208067140+207828926
3669+210970048+214699916+215787284+215623002+215130809+213424290+211561617
3655+211174071+208795784+203722072+203315643+210049181+216240912+218885859
3642+219628621+220423999+220882997+220057898+218285232+215483119+213195918
3628+216478800+221514469+222424467+219935984+217185379+217425437+219137439
3615+219798272+220369505+220798718+221081927+223002310+225077329+225125490
3601+224371680+224018390+223515899+223788810+225489845+225961018+224030272
3588+223596979+226531990+228902704+229557400+229803268+229748953+229266471
3574+228837161+228256690+226607162+224927050+226338919+229536559+231349862
3561+232111246+232470933+232174471+231646993+231638670+231856042+231469736
3547+231242033+232141080+233412282+234382845+234769265+234583212+234450412
3534+234200921+233391555+232748104+232985436+233537526+233800481+234121424
3520+234636319+234954780+234823253+234197118+233571586+233644196+234230232
3507+234340118+233831245+233794541+234236956+234221452+233918462+233769635
3493+233707193+233454454+232877933+232411233+232493700+233068964+233863168
3480+234531117+234663541+234177386+233642238+233589180+233808756+233700812
3466+233172485+232757635+232785706+233121582+233480420+233762862+234152057
3453+234523968+234210305+233241325+232719804+232937911+233428586+234336479
3439+235417809+235987932+236142797+236350312+236557174+236608959+236847646
3426+236976350+236283104+235781462+236674763+237894948+238289284+238374150
3412+238633679+238836999+238974434+239217870+239519799+239708693+239624283
3399+239495629+239673489+240007749+240441711+241162587+241991961+242484513
3385+242447580+242323838+242594154+243156722+243564636+243563053+243503565
3372+243816200+244444979+244976749+245204273+245496312+246001545+246516571
3358+247000996+247257815+247464285+248305247+249559933+250337637+250422194
3345+250351999+250525437+250642634+250722866+251178958+251673795+251921344
3331+251996484+251744300+251615825+252204276+253069344+253640969+253776755
3318+253566058+253429928+253297243+252806698+252168110+251668475+251724519
3304+252347015+252356563+251445455+251294654+252599705+254092818+255330792
3291+256760907+258201271+259544039+260889239+262063987+262763075+262964829
3277+263377134+264347027+265289340+266108350+266932470+267449584+267832087
3264+268343588+268740339+268825972+268561172+268160097+267912482+267784432
3250+267785607+268030088+268353706+268382594+267923335+267232946+266735286
3237+266869211+267781722+268476877+268047208+267263367+266979505+267079077
3223+267312590+267379341+267231412+267133310+266986001+266753581+266506374
3210+266112757+265782430+265624660+265317802+264938074+264921982+265203380
3196+265252798+264829265+264089604+263438172+263140780+262945147+262525335
3183+261733302+260747120+260063651+259753986+259442983+259037011+258681273
3169+258359678+258045949+257936406+258240326+258656792+258630843+258338559
3156+258197958+258081560+257871924+257567237+257248171+257269045+257616002
3142+257710661+257361713+256948592+256421261+255623320+254952417+254491658
3129+254183102+254037295+253715618+253344540+253087998+252553812+251651077
3115+250571004+249599984+248956075+248302717+247322623+246259589+245278662
3102+244354498+243534818+242688454+241876592+241231084+240515055+239806534
3088+239506939+239587431+239606265+239399730+239120959+238740366+238256888
3075+237774144+237446706+237557343+237940694+238031991+237803635+237524604
3061+237086399+236661087+236693940+236987660+237204706+237340296+237267213
3047+237007848+236952734+237169078+237208949+236855790+236416655+236076210
3034+235697232+235262470+234840684+234461167+234182087+234027842+233980904
3020+233955836+233952768+233964339+233722730+233242467+232866803+232716932
3007+232782311+232845390+232569607+232118818+231884195+231778814+231628355
2993+231716078+232182876+232836789+233619046+234328269+234708569+234773476
2980+234615069+234545413+234784215+235059525+235130307+235027064+234858016
2966+234702253+234595240+234514682+234177941+233477433+233000565+233080895
2953+233124258+232823080+232733366+232942709+232948617+232855101+232936981
2939+233003193+232911521+232701509+232471488+232387519+232461581+232433037
2926+232196145+231960249+231699774+231159941+230468213+230080471+229961870
2912+229738394+229674467+230059859+230475019+230619162+230604310+230461228
2899+230264893+230284592+230609973+231064074+231492993+231776888+231751134
2885+231565505+231638898+231935082+232150660+232353980+232606964+232680259
2872+232596960+232612187+232708037+232793050+232750111+232388057+231974757
2858+231924621+232061387+232025563+231820039+231488358+230971456+230596705
2845+230728117+230912963+230695852+230501670+230626473+230856870+231120233
2831+231397894+231731305+232129623+232299600+232179743+232141226+232365813
2818+232566147+232493520+232363691+232406712+232482357+232518083+232709277
2804+233060592+233379445+233647575+233913778+234107290+234221011+234416906
2791+234683697+234765365+234628599+234543961+234657323+234713743+234557393
2777+234547551+234762460+234837354+234792718+234807129+234802216+234765789
2764+234781555+234778747+234683713+234681053+234881991+235089049+235239719
2750+235480789+235786146+235990380+236001951+235858625+235733838+235688288
2737+235610211+235537307+235594902+235766006+235910149+235997414+236200719
2723+236517679+236751192+236900084+237141072+237441190+237550978+237496565
2710+237497332+237631552+237873911+238063882+238134859+238202247+238239572
2696+238268279+238512989+238892407+239026072+238933845+238946608+239061455
2683+239150140+239291149+239363041+239189636+239068097+239228397+239461552
2669+239640946+239731313+239572351+239222048+238984879+238939019+238957689
2656+238975674+238949660+238938937+239067755+239255864+239279007+239077384
2642+238871811+238821968+238788658+238664557+238531545+238406759+238192601
2629+237963429+237879199+237820902+237666037+237504464+237459354+237604248
2615+237738239+237663801+237480930+237208460+236882866+236741384+236874298
2602+237032982+236943219+236712431+236600016+236636639+236671728+236580382
2588+236376507+236173986+236088711+236076944+236067968+236081808+235994444
2575+235785117+235629600+235509775+235399872+235342000+235203341+234930348
2561+234647612+234383677+234154473+234055179+233979305+233747456+233431606
2548+233171245+233042607+233012153+232981030+232986889+232993205+232866101
2534+232691733+232599114+232491546+232249856+231946588+231745993+231749421
2521+231879299+231980584+231969355+231771437+231464138+231278020+231258141
2507+231229613+231125505+231086368+231146330+231201248+231289640+231472348
2494+231555272+231437357+231382716+231520363+231751918+232016065+232261149
2480+232463442+232567028+232563584+232479322+232263516+232086324+232145649
2467+232274761+232322890+232408703+232618992+232780500+232661034+232415606
2453+232397034+232604826+232811443+232909464+233012691+233258413+233517027
2440+233632919+233695426+233839487+234032999+234156513+234235438+234413821
2426+234668666+234826338+234932568+235146725+235357439+235432350+235451723
2413+235486306+235582286+235828367+236186879+236465698+236547757+236514986
2399+236559737+236750556+236983416+237242928+237492665+237548807+237362345
2386+236824194+235548503+233178083+229587250+225060274+220274781+215628812
2372+210847645+205778877+200844232+196383892+192701060+190200452+189235340
2359+190366790+193807850+199121066+206119518+213246609+216775049+214801886
2345+209699450+206200762+205530953+206069153+207232412+208751180+209926729
2332+210726481+212097647+214257663+216353018+218088930+220086280+222790258
2318+225844489+228549088+230648261+232460096+234284384+236130328+237941380
2305+239623891+241094367+242390181+243472637+244281219+244979018+245702064
2291+246392258+247053107+247770196+248456815+248863163+248960547+249010276
2278+249115624+249182587+249210071+249245976+249345286+249525481+249717883
2264+249954171+250316388+250685622+250872672+250938688+251071830+251261458
2251+251472237+251777577+252077923+252202481+252204831+252273965+252523554
2237+252834900+252990206+253000977+253050852+253220145+253460333+253651903
2224+253673153+253599629+253603791+253667767+253729442+253825439+253980353
2210+254217832+254516204+254738113+254775928+254682281+254656756+254835024
2197+255099987+255308269+255455480+255560747+255652942+255726302+255799190
2183+255995362+256278049+256443457+256475445+256511791+256563935+256581088
2170+256663082+256898211+257171155+257356653+257449729+257505235+257625697
2156+257851376+258078345+258239526+258347242+258388320+258440938+258579352
2143+258695635+258727933+258759187+258876792+259105916+259384702+259595889
2129+259689716+259760612+259847208+259902698+260005191+260161427+260247876
2116+260295565+260368501+260457660+260594817+260692365+260641902+260599158
2102+260693213+260812451+260887329+260995877+261146303+261252353+261294770
2089+261271611+261261036+261418594+261640683+261749736+261806744+261831502
2075+261822003+261972152+262270800+262375382+262197685+262034921+262093495
2062+262300308+262544740+262706933+262677050+262600001+262651329+262788046
2048+262900836+262915737+262848382+262809230+262917777+263105920+263224374
2035+263343889+263539098+263684693+263693017+263702156+263835119+263980273
2021+264013730+263972668+264068273+264441409+264868206+265102078+265202596
2008+265321034+265434151+265483847+265617691+265900574+266172115+266271523
1994+266046430+265751878+266004405+266736852+267313227+267494009+267604955
1981+267894464+268206349+268379330+268422367+268495988+268628135+268576465
1967+268538601+268952929+269545216+269942261+270224834+270415163+270615791
1954+270984014+271273196+271306229+271260401+271063119+270619855+270700968
1940+271721700+272761200+273281040+273523008+273711950+273906180+274114985
1927+274131958+273776220+273642050+273935002+274133492+274729059+275882167
1913+276503194+276367440+276393651+277109663+278039082+278662394+279000881
1900+279216344+279265110+279297000+279570760+279613487+279508448+280280342
1886+281487633+282263509+282865115+283466688+283969653+284388991+284704597
1873+284377763+282973613+282059111+283553154+286021529+287588949+288344326
1859+288907154+289526223+290130538+290618618+290965363+290992553+290319039
1846+289185549+289649638+292190803+294120439+294851336+295576357+296092313
1832+295237446+294089692+294815757+296507735+298306415+300391064+301923851
1819+302810249+303637828+304221286+304122743+304075250+305138791+306675691
1805+307495273+307324822+306928919+307585493+308961473+309189959+308154816
1792+308800128+312115602+314830189+315822507+316276869+316701789+317412253
1778+318485847+318466164+316599656+315395922+317760173+321633611+324539898
1765+325542694+325229798+325888199+327457478+328842304+330040326+329757753
1751+327970431+327568686+329609367+332054078+333587028+334283130+335273848
1738+336111350+334867632+334153806+337594067+341855965+345363890+347687764
1724+348584118+348464815+346386271+342944640+343214646+348257937+353143572
1711+355798882+355967244+354801799+354538516+354136053+352167542+352048337
1697+355091912+360495657+366413040+369317401+369933924+368831867+365396698
1684+365181399+371610788+377305528+379447461+379648889+380588394+381495976
1670+382225208+386196635+391018652+393057636+394724904+398321743+401039953
1657+399817842+394813720+394365625+401143718+403748305+405145828+411884589
1643+419230047+422712121+422332637+419531160+420554357+428543528+435187304
1630+437969751+439707882+441903640+444780877+449423663+453448458+455208133
1616+459377755+467174639+473398619+477623144+482011624+487239924+492460521
1603+497572750+503208246+509188039+514819129+520210699+525910694+531871849
1589+537965559+544318863+550964499+557908604+564772282+569744416+572756264
1576+578963075+588343110+594681269+599831035+608116553+617297936+624688635
1562+628304341+627748400+633669863+649609037+663700927+675154186+685217006
1549+694622697+701496037+704782461+706395708+711170625+726390522+742360182
1535+751256870+758850204+768905908+777276358+782985852+787870507+792233952
1522+798357855+807517891+816576544+826102811+836695132+845290675+849232137
1508+848748398+854582384+871864929+885089222+890541439+892748752+896832791
1495+902709144+906764002+908228732+910490752+918251926+928503802+935281438
1481+938144508+940812385+943768482+943385147+940238100+942072653+949848189
1468+955946371+958080960+959176848+957644224+950945840+943535948+943187081
1454+946479837+949372610+952134102+952612488+952455419+953138268+950856795
1441+944432726+934007069+920672515+913293697+912854219+912359382+911893661
1427+913398736+916466856+920450034+921671198+919598235+922636783+932176694
1414+940063340+943725657+946098721+946352080+944470002+947077232+953166993
1400+956574971+959262955+962618512+966653980+972517147+975625155+974133659
1387+972270904+972625646+974484419+977067821+979611336+982040085+984775725
1373+987094474+988211383+989008214+991796863+995625583+996093198+993823018
1360+992915208+994022194+996349364+998493288+997681442+992628685+987917679
1346+987711127+987869305+983834098+978434955+975540615+974089724+972217699
1333+970224446+967465565+963261735+961218802+964788092+970860814+973535284
1319+972249752+971972631+974487748+977164634+979605722+983679315+989307205
1306+993258460+993594401+993096692+994024609+994838805+994287956+994042496
1292+995936260+1000322358+1007056321+1014984812+1021283279+1024087334
1281+1025477187+1028712103+1034248468+1040181879+1043524836+1043211222
1269+1042376592+1044501976+1048426661+1050086520+1049626152+1049830354
1258+1050736598+1052310219+1054254772+1055110227+1056959925+1061048794
1246+1062524166+1061865145+1065306809+1071327305+1073741823+1071549460
1234+1069056538+1068491784+1067363255+1064954613+1063003727+1062553021
1223+1064300749+1067592068+1070005476+1070108426+1068597345+1066671528
1211+1065335663+1064806880+1065691385+1068039315+1069093814+1069180247
1200+1071520540+1073550612+1070785073+1065127545+1060628640+1058603790
1188+1058869161+1060618129+1062239210+1061613352+1059656135+1059380775
1177+1059219986+1056321598+1052480539+1050371280+1049193267+1048400157
1165+1049663624+1051595316+1051654723+1049724401+1046534987+1043555519
1153+1040486745+1038196524+1039756110+1043332842+1044760362+1042211886
1142+1037037182+1034348611+1034976493+1033766949+1030543000+1029567166
1130+1030268033+1030325742+1030399772+1030525766+1029005480+1024610243
1119+1019372934+1016506534+1014372011+1011332941+1010680382+1013685506
1107+1017608363+1019289438+1015703762+1008646393+1005133310+1007274428
1096+1010720139+1012827766+1014425281+1016683383+1020159059+1024125133
1084+1027252660+1030195374+1036207318+1044079472+1045090493+1037981682
1072+1031259143+1028127699+1026881532+1027593823+1032496171+1042221025
1061+1051904361+1056184963+1054863722+1049616490+1043852095+1041752432
1049+1044000285+1048665071+1051572468+1049961962+1046888880+1045380737
1038+1045651396+1046409123+1045767663+1042012776+1035423739+1030704573
1026+1027675165+1020823564+1013229642+1011788674+1016647609+1021763493
1015+1021455689+1019684720+1023490135+1029000976+1028435634+1024522569
1003+1024572901+1031457600+1041192247+1043462949+1038345433+1038232103
991+1043029608+1043218664+1041241731+1042935275+1045415924+1045861212
980+1044511508+1042101755+1043189091+1050022022+1055640381+1054657496
968+1051807221+1052519121+1055492126+1058019451+1060148817+1061443750
957+1061148741+1060180805+1061723809+1066516875+1068643238+1067305285
945+1067966983+1068614645+1065714625+1062216101+1059754319+1059332532
934+1063023508+1066767819+1067034561+1066293872+1064715354+1062094807
922+1059611351+1057939481+1058435427+1059763523+1058245588+1056258471
910+1058662152+1062176736+1061944854+1060971043+1062594279+1064963622
899+1068336152+1072677793+1072427698+1070429026+1070809750+1069255583
887+1067124454+1065469426+1063036890+1062535851+1063784369+1065926987
876+1066034050+1059001357+1049487950+1045691152+1047073759+1050032858
864+1052952920+1053470410+1050009683+1044212973+1040798858+1041872028
853+1043140065+1039924407+1034112029+1031029155+1030709534+1030923333
841+1031832580+1033002628+1034573964+1035791277+1034530160+1031965102
829+1031203262+1034573507+1039211202+1036903485+1029226786+1025971632
818+1027648660+1028119996+1024428563+1020534495+1020985528+1021709244
806+1020316388+1021097356+1023443459+1022820669+1018953301+1015690575
795+1013791850+1011890057+1012175143+1013099274+1010969842+1008780221
783+1007075448+1004268259+1002565576+999630761+993133772+988696101+989729449
770+992110216+991553753+990270767+993506009+998413840+995022574+985268995
756+979868351+977997827+974969006+974728116+975619476+970330725+964683771
743+965507891+967349037+965743950+963640631+964522656+965325166+958895809
729+946638211+936531130+931681466+929229280+925942922+923509929+924929942
716+925966227+922281911+920636545+926632821+933890345+935397966+931754451
702+927571837+928971286+936913682+942865568+941692516+938747909+937442009
689+936932484+936632644+934924999+931681074+928784710+928860045+934212250
675+942147009+946687760+940978006+924628796+915525883+919414467+922838700
662+925247539+923828766+917446999+916037236+922982255+931104634+935878507
648+935815444+930721233+930664373+941418136+949101233+947101452+948454485
635+951961170+938257315+896201906+852659178+845366859+875058260+902383061
621+905922256+908462311+922880220+938253137+944414577+950029412+958931649
608+960817579+950197056+937633155+930870533+924831888
##END=
