##TITLE=Sample description
##JCAMP-DX=4.24
##DATA TYPE=INFRARED SPECTRUM
##DATE=12/9/2023
##SAMPLING PROCEDURE=Instrument type and / or accessory
##ORIGIN=Default
##XUNITS=1/CM
##YUNITS=ABSORBANCE
##RESOLUTION=4
##FIRSTX=4397.6552
##LASTX=599.8556
##DELTAX=-1.9287962
##MAXY=1.8364662
##MINY=0.20162442
##XFACTOR=1
##YFACTOR=1.7103424e-009
##NPOINTS=1970
##FIRSTY=0.22662292
##XYDATA=(X++(Y..Y))
4398+132501493+132532300+131363725+129808651+129087379+129665533+130441589
4384+130438914+130789849+132350481+133922909+133992556+132863876+131975996
4371+131610555+131638235+132201386+132755511+132709205+132060306+131315362
4357+130967242+130910846+131269649+132161117+132829122+133030273+133123888
4344+133099824+133117188+133227348+133033140+132471958+132247143+132465537
4330+132182358+131828879+132558297+133612313+133680688+132980343+132763448
4317+133247761+133233821+132522428+132152736+132659744+133710641+133979139
4303+132804196+131736510+132133307+133204382+133573586+133326608+133121963
4290+132992305+132859389+132705223+133078253+133957925+134137565+133665424
4276+133259296+132802767+132475965+132625444+132943115+133056018+133042366
4263+133080553+133343466+134129349+135173198+135225751+133961305+132969714
4249+133222486+133945919+134108640+133494661+132629965+132004399+131694639
4236+131588391+131841678+132531995+133010061+132990440+133263513+133959876
4222+134032093+133636777+133848288+134358485+134465717+134306289+134430842
4209+135018727+135569054+135703007+135322162+134665762+134213912+134053334
4195+133819040+133363966+133652146+134764012+134784495+133609473+133194458
4182+133699341+134067857+134534580+135396313+135743868+135174435+134682403
4168+135113100+135734057+135325255+134117213+133298615+133554994+134648006
4155+135635067+135808331+135476580+135120671+134587577+133911061+133717106
4141+134274132+134826724+134387471+133499653+133553330+134271614+134585312
4128+134347438+133927013+134025576+134692309+134990961+134619386+134324890
4114+134840681+135789904+136084714+135442593+134659071+134391531+134328872
4101+134144936+134089211+134181179+134320290+134803592+135419837+135459704
4087+135152968+135115774+135266072+135425796+135594476+135496706+135048872
4074+134652154+134391401+134298614+134553991+134917106+134994393+134732595
4060+134684381+134943374+134990142+135034627+135128921+134758349+134133357
4047+133966489+134300896+134603695+134715789+134791491+134894863+134861704
4033+134504609+134118363+134254895+134915285+135369043+135199744+134711703
4020+134272416+134003203+133827396+133845239+134130125+134660970+135650218
4006+136602978+136497924+135568409+134806450+134329046+133745961+133183794
3993+133218801+133993889+134893704+135425282+135720571+135795541+135425047
3979+135009457+134961295+135004177+135208561+135789573+136210172+136206547
3966+136021662+135662407+135440171+135374001+135018344+134668794+134398519
3952+133650717+132827693+133209261+134132817+134169418+134377600+135071080
3939+134991457+134114286+132716837+131885893+132894761+133949839+133068364
3925+132134788+132889473+132991895+131845136+132308400+134604985+135990916
3912+135571267+133860781+130562342+126503164+124828278+126430659+129468485
3898+132651241+133370928+130321785+127800856+129345684+130173299+129324556
3885+129817303+129249682+129242311+132102422+131986103+128724988+126038820
3871+124810487+126900658+128818776+128159728+129218919+131655668+131311015
3858+126613724+118837694+117885413+127993104+134763602+135341808+132495220
3844+128738335+125507704+122917312+123327264+127108683+129615045+130551914
3831+131877268+132461128+131598890+128610237+123577902+123025938+126356439
3817+127726034+131161929+135164721+134643249+130555660+127745559+127558547
3804+125666122+125608986+129625709+131496850+132720870+134968997+135901231
3790+135791559+135332138+134571041+134431591+133954178+132694812+133431278
3777+135540939+135666232+133185528+130894040+131482091+133033061+134186703
3763+133940404+131367733+130050838+131262060+130039756+124491875+120891770
3750+124578189+126471852+125009051+128994296+134213633+133158738+128149325
3736+125205864+128336467+134512886+138321697+138363682+137503342+138515268
3723+141264540+145352199+149514262+151220774+149139595+146130241+149308911
3709+158426631+167080434+173168892+179006416+187759889+196284399+200337436
3696+199997165+195846463+189092866+184808185+186209067+187392627+184635000
3682+179228913+172666867+164778743+159114770+160887949+161995032+160516906
3669+163784991+168307242+169555517+169281269+168470686+166266627+164466823
3655+164506359+161779749+155671723+155140633+163170158+170149162+172557039
3642+172556237+172431929+172396469+171715056+169767577+165554250+161616339
3628+165156269+171277747+172468695+169353355+165708163+166094679+168298791
3615+168514509+168189137+168281941+168862308+170736917+172086343+171441069
3601+170463383+170198160+169745169+169786901+171147793+171383655+169210246
3588+168849692+172364268+175055088+175356903+175217139+175417105+175478806
3574+175463159+174681083+171800734+168752950+169654403+172975512+175157982
3561+176232619+176836614+176747365+176081268+175877747+176270135+175841433
3547+175066571+175773599+177391994+178248038+177933190+177323253+177354757
3534+177579240+177100373+176141610+175501494+175398722+175653194+176125823
3520+176693313+177215307+177439459+177034978+176132357+175518831+175410484
3507+175027644+174437467+174784778+175835997+176260046+176071092+176020229
3493+176213661+176173306+175551625+174767109+174349350+174386430+174809817
3480+175351309+175697696+175737721+175681857+175883392+176248912+176453461
3466+176365658+175859642+175305639+175515852+176311710+176621802+176259488
3453+176159174+176447990+176408313+176161596+176126015+176364961+176946669
3439+177614648+178064782+178399268+178701901+178791917+178715806+178698991
3426+178626033+178492246+178867889+179932351+180851386+181162348+181226053
3412+181349699+181647785+182043989+182648838+183625339+184394277+184478648
3399+184369447+184529319+184826516+185241190+185786028+186281972+186752946
3385+187208168+187567850+187982019+188701418+189581422+190123437+190309934
3372+190618892+191151254+191566626+191890169+192504897+193279846+193823970
3358+194214354+194713400+195479445+196484645+197322619+197681064+197833845
3345+198211108+199015331+200104135+200905344+201361681+202000717+202473660
3331+202429175+202577790+203276384+204162364+204890266+205319874+205535244
3318+205652234+205767360+206059137+206500176+206844838+207103212+207361953
3304+207487603+207263433+207036650+207849585+209618687+210992159+211611488
3291+212351779+213631071+215033033+216323860+217386388+217995296+218459579
3277+219255020+220099773+220615162+221253362+221940125+221968614+221751135
3264+221950335+222357674+222455706+222001164+221698182+222163179+222558059
3250+222319444+221999822+221647998+221238115+221437612+222234551+222554417
3237+222093828+221850404+221944428+221654742+221265246+221282984+221370317
3223+221132260+220979392+221230379+221318252+220947139+220392735+219881353
3210+219370842+218598019+217743055+217200622+216698423+215978414+215407404
3196+215022979+214665771+214517016+214421005+214170472+213831613+213400681
3183+212732336+211631544+210513135+209981261+209910447+209795339+209354597
3169+208906188+208602073+208078511+207523410+207260628+207029453+206867908
3156+207122815+207358764+206931474+206198501+205761453+205708534+206025002
3142+206206656+205618622+204804955+204313541+203737653+203034441+202503073
3129+202172996+201979354+201670831+201136762+200638239+200203178+199358320
3115+198070891+197150358+196804877+196325435+195475298+194382555+192952923
3102+191515362+190453392+189517734+188659425+188137971+187805750+187334498
3088+186660316+185882387+185101984+184496299+184146322+184031406+184156011
3075+184316928+184309558+183969496+183274561+182827738+182986408+183240844
3061+183241280+183308296+183706835+184064565+184027817+183705702+183223141
3047+182788114+182598428+182581578+182689350+182755756+182551381+182074029
3034+181285262+180553457+180470393+180688063+180615716+180297801+179994627
3020+179826077+179628358+179300494+178945865+178609515+178268913+177857810
3007+177406979+176896921+176333979+176010994+176014618+176137480+176196655
2993+176121049+176165168+176619188+177302988+177898793+178316482+178438822
2980+178231798+178019878+178221413+178829503+179203473+178956895+178569490
2966+178384509+178161925+177766992+177294433+176972214+176961759+176933025
2953+176616609+176314411+176330791+176592458+176745814+176557208+176272226
2939+176223837+176356388+176417514+176332185+176144119+175829253+175460110
2926+175190792+174943831+174465086+173668896+172847231+172312796+172077056
2912+172092425+172228948+172345328+172492044+172704870+172897867+172937195
2899+172872218+172785460+172589710+172488333+172750349+173179364+173505608
2885+173730719+173978394+174236542+174379774+174457419+174611018+174883106
2872+175149705+175170824+175003406+174859931+174693402+174495457+174387092
2858+174382388+174395265+174286551+173947396+173383426+172747334+172368572
2845+172416403+172592759+172729317+173030574+173460251+173756717+173846785
2831+173897387+174086010+174323631+174383294+174276375+174200491+174209098
2818+174255570+174293208+174279756+174259892+174310406+174516855+174856551
2804+175174152+175471140+175854293+176218227+176350359+176382455+176567802
2791+176702496+176576271+176380556+176286113+176256178+176199390+176268323
2777+176625600+176901940+176837172+176726751+176659997+176447223+176208573
2764+176202997+176371146+176504219+176549890+176583119+176694620+176929593
2750+177223880+177398284+177449199+177593407+177811251+177868021+177789313
2737+177784835+177815416+177791474+177887101+178141207+178358859+178548458
2723+178729415+178725390+178685452+178864300+179018735+179034679+179177283
2710+179362875+179401401+179458537+179570979+179622051+179720640+179879641
2696+179963019+180066713+180278093+180471770+180595067+180710280+180863548
2683+181013663+181097545+181144296+181144958+181105265+181029780+180849225
2669+180790573+181046700+181268291+181152782+180855933+180654329+180633524
2656+180701968+180684735+180447061+180192259+180255528+180509372+180576144
2642+180431327+180279522+180159030+180007260+179828221+179624386+179428462
2629+179367527+179407796+179307063+178997826+178718228+178725790+178900822
2615+178807216+178365725+177951277+177759778+177689940+177583858+177383752
2602+177239736+177227957+177235432+177230431+177234997+177195878+177073591
2588+176926526+176815112+176679931+176443599+176195714+176084683+176067555
2575+176017040+175893011+175719408+175566575+175455039+175309612+175056779
2561+174719330+174431073+174292511+174256128+174241108+174181463+173981879
2548+173690189+173463911+173329810+173208777+173081768+173072341+173115224
2534+172964325+172746759+172644197+172514069+172361219+172316559+172286850
2521+172212882+172175994+172165225+172131595+172001833+171784477+171699113
2507+171717496+171607580+171482784+171503258+171558704+171586270+171658426
2494+171768986+171845986+171967123+172223581+172482844+172687951+172924039
2480+173120259+173222299+173293566+173314023+173282780+173275444+173276054
2467+173242686+173186822+173164100+173258473+173370165+173380847+173421150
2453+173540736+173672764+173816292+173956718+174183519+174597967+175027069
2440+175277585+175421462+175514823+175491736+175413150+175426219+175586526
2426+175817474+176030527+176220544+176387404+176485505+176488711+176541839
2413+176760119+176976657+177102307+177284431+177575337+177832178+177945823
2399+178034741+178271945+178553442+178679458+178752955+178858828+178769770
2386+178265358+177092985+174886957+171613383+167703108+163594242+159336274
2372+154764119+150007139+145473998+141453555+138211232+136139941+135635198
2359+136905812+140052412+145097031+151731250+158180384+161191558+159179747
2345+154308269+150904602+150214407+150874248+152075198+153405806+154432909
2332+155158337+156367860+158276551+160142936+161699508+163575302+166251311
2318+169225736+171646472+173314528+174754929+176409307+178141067+179788213
2305+181348601+182653107+183683277+184657931+185588030+186360575+186972481
2291+187476161+187965884+188493524+189011231+189399768+189550371+189561784
2278+189659694+189881023+190042133+190099251+190216711+190353862+190386481
2264+190437326+190621593+190874043+191124246+191383944+191622542+191741431
2251+191781926+191852758+191918710+192010800+192223731+192458129+192589233
2237+192636890+192711555+192875539+193077109+193247070+193369462+193550174
2224+193796630+193926967+193905500+193832281+193792361+193816076+193872062
2210+193999089+194216253+194422667+194604652+194759680+194785765+194749974
2197+194772940+194855342+194974632+195037762+195073848+195211957+195398001
2183+195581850+195795391+195966066+196044582+196114926+196200987+196291544
2170+196422020+196572605+196728487+196914374+197119882+197255081+197298451
2156+197377159+197470103+197485489+197545256+197720183+197865906+197925778
2143+198002900+198126964+198237089+198296124+198342282+198436080+198574798
2129+198748819+198915226+198967413+198941781+199000503+199091077+199070690
2116+199086355+199308973+199615545+199810511+199865573+199861373+199812793
2102+199728632+199682979+199697877+199778344+199941946+200121943+200204833
2089+200182198+200195737+200345573+200521528+200544982+200461988+200476346
2075+200596333+200739773+200920068+200999768+200856572+200750856+200880165
2062+201013604+200999647+200981002+201077605+201248124+201356053+201350181
2048+201303500+201297227+201305521+201291024+201389404+201628559+201831400
2035+201916468+201957364+202030461+202076079+202058515+202059194+202133720
2021+202208873+202180070+202207932+202484951+202857284+203112330+203276175
2008+203485621+203723260+203852168+203873218+203938926+204108539+204143563
1994+203819532+203568772+203927199+204582963+205114070+205455439+205603828
1981+205698723+205860530+206071840+206278393+206443023+206454732+206215019
1967+206118870+206576252+207214469+207641986+207952739+208190274+208405749
1954+208729048+209050988+209219276+209207375+208864229+208284228+208449398
1940+209657544+210692105+211061353+211223978+211465869+211810427+212154827
1927+212185286+211689516+211318525+211365729+211381533+212002395+213341140
1913+214125290+214078138+214066760+214675494+215546837+216179478+216554965
1900+216737280+216684466+216676415+216966433+216947841+216761605+217601078
1886+218939701+219726883+220240356+220818823+221393039+221847355+222095432
1873+221535330+219697348+218468152+220134953+222969057+224683916+225376463
1859+225868765+226530122+227249434+227833094+228152125+227959128+226890118
1846+225286168+225602515+228508043+230829475+231714427+232465051+232957388
1832+231921764+230504556+231141553+232790807+234560362+236900561+238751803
1819+239661882+240281994+240609545+240288006+240149270+241257137+242883129
1805+243747450+243458948+242904422+243609202+245096911+245180846+243771967
1792+244329472+247966161+250848392+251769918+252146293+252514740+253240098
1778+254409997+254319772+252112681+250580835+252952677+257107265+260359075
1765+261496285+261045733+261500415+262841024+264108328+265400462+265011854
1751+262833950+262263498+264516799+267162629+268552167+268947709+269943709
1738+270839987+269241944+268358491+272319245+276954286+280465551+282676458
1724+283572771+283432397+280796099+276447208+276573416+282363527+287917062
1711+290831268+290919263+289442462+288799366+287971323+285622063+285588991
1697+289023518+294983887+301446176+304383923+304559007+302750211+298664939
1684+298696060+305937236+311915117+313918129+313937192+314842931+315586272
1670+316140519+320588644+325985758+327962946+329550517+333686600+336775245
1657+335096507+329182994+328859973+336796468+339708217+341124258+348447401
1643+356313639+359996050+359551683+356395744+357409447+365863736+372674765
1630+375396479+376977777+378689691+381140764+386126269+390619734+392279826
1616+396267136+404123407+410437551+414868217+419437445+424624729+429763154
1603+434880007+440600768+446800745+452925064+459210387+465953982+472641120
1589+479085184+485683038+492796003+500708033+508852510+514722043+518034875
1576+524528006+534207466+540478048+545691504+554715513+564927021+573104151
1562+576797715+575909574+583253696+602200101+618560078+631449040+642183883
1549+652078085+660154187+665406988+668551323+674040334+690403238+707792531
1535+718049238+726975529+738416006+748416220+755829275+762173912+767309061
1522+773821604+784186066+795324327+806670709+817769103+825680157+829103845
1508+830782617+841714360+860905304+873603709+879309973+881136367+884283838
1495+891578892+898280738+902583192+907476555+914823117+922444502+928563384
1481+933497381+937621546+939794623+938862398+937850437+942528849+950510229
1468+953909384+951913690+952450930+956856191+956901147+949140782+942621479
1454+945523678+950659734+952019075+949188317+946713093+945727618+943149449
1441+938153489+931708694+926405152+925876833+926304088+922812234+917902352
1427+916248254+918182682+920806504+920844141+920763569+926042577+933250647
1414+937615761+941251334+945935391+948252258+947507872+948942070+952729099
1400+954525802+956603392+962558830+970545578+977548244+980635425+978632065
1387+975214579+974969030+976094252+976740013+978782127+982272517+986688163
1373+991379468+993116091+991415433+989781547+990693769+993119366+995246652
1360+996243070+995463277+993376068+991555249+990416645+988813497+985579808
1346+981572181+979345992+979209382+978302040+975020049+971273794+968819480
1333+968042196+968439411+968350963+967956815+969367454+972097637+973356541
1319+972327435+971126868+972621983+977498897+982449553+984480235+984759241
1306+984916412+985039292+985387439+986798357+989546104+993108981+996780171
1292+1000100635+1002557249+1004403717+1008534014+1015520023+1021592625
1281+1026752099+1033396930+1039096154+1041578835+1043759580+1047767347
1269+1050884568+1050612393+1049844170+1051489417+1052760310+1053027815
1258+1055237903+1057440045+1058142194+1060059824+1063210432+1065717577
1246+1067829111+1069505583+1070234008+1071423701+1073271354+1073741823
1234+1072884455+1072746102+1073694776+1073293100+1070003374+1066710441
1223+1067400113+1071088937+1072769591+1071211956+1068972176+1067381991
1211+1067237923+1068195240+1067766242+1065966542+1065615329+1065525068
1200+1063546800+1062137066+1062164318+1062083886+1062325323+1062466394
1188+1060389222+1056403829+1052968780+1051048918+1050258182+1050555937
1177+1051139806+1050365101+1048927279+1048975441+1050217896+1050031382
1165+1046504608+1041834910+1039117064+1038166159+1038175638+1038125176
1153+1037405673+1037347962+1037165002+1035437371+1034135183+1034187596
1142+1033743404+1031710631+1029482560+1028684018+1026372518+1020469215
1130+1015735602+1014632196+1014789507+1015060845+1014513429+1012776388
1119+1010387174+1007096889+1006128978+1009706214+1012951612+1013095819
1107+1011402341+1008165376+1004799050+1002008857+1000474362+1002977534
1096+1008945797+1014079412+1016900622+1017348996+1015935778+1016574849
1084+1019311234+1020657472+1021643226+1023635156+1025682845+1027866936
1072+1030395409+1032824979+1034733619+1035773599+1036073305+1035777432
1061+1035097936+1036456023+1040866301+1043618857+1041576117+1038561144
1049+1037161865+1036301988+1038038540+1043293293+1046673210+1046908654
1038+1046862095+1043934176+1036682405+1029609273+1026856229+1028704091
1026+1033967626+1040913976+1044401648+1041329312+1034573590+1028230834
1015+1026148226+1028805015+1032115164+1033873741+1035185827+1035334843
1003+1035601024+1040118012+1045110557+1044849883+1043766201+1046263031
991+1049204541+1049832251+1049242876+1047371735+1044131912+1042774592
980+1045306411+1048255519+1047136779+1044850510+1046726600+1050491674
968+1052232966+1053002096+1054305190+1057208296+1061706604+1064701992
957+1064832260+1064398104+1064544681+1063991828+1063188686+1064241002
945+1065171206+1064199113+1064196883+1064892271+1063623817+1062110441
934+1063105256+1064578555+1062788752+1059978067+1059300383+1058863370
922+1058375198+1059237863+1059290904+1057050079+1056166085+1059990265
910+1064649787+1064769670+1061595853+1058083228+1056033030+1057456285
899+1062323511+1066814153+1066170064+1062527660+1062184670+1065426584
887+1067524805+1065091540+1059242254+1054153176+1051987765+1051198702
876+1049458246+1045490905+1040561926+1037927510+1038504688+1039833361
864+1037836831+1032233095+1029185851+1032171341+1036884881+1038714830
853+1038024600+1036163705+1033400067+1029449314+1025816737+1025245832
841+1025543029+1024669978+1024859002+1025916407+1026093512+1025353308
829+1023798461+1021519092+1020114725+1018808077+1015715389+1014820035
818+1018882724+1023963578+1025517937+1023392603+1020659215+1018873106
806+1017392837+1015662766+1013851497+1013177228+1015567836+1018880424
795+1019215538+1016771679+1010613208+1002803635+998726727+997202617+996074747
781+995778317+994427827+991682171+989680762+987478969+984003285+981325795
768+979903794+977788566+973690400+969739787+968386579+967346460+966888397
754+969104201+967791349+960260364+954408568+953391241+953217202+951711772
741+950626139+950323784+947176383+940452931+935040728+934259611+935227173
727+933086645+927151350+919183700+910401686+902590162+899254225+901796847
714+906261003+909651584+913630705+917967033+919676124+918450048+916075539
700+913068721+910177812+909712989+911288746+910624026+907075716+904147518
687+902977828+904590665+909713477+914938817+917331308+917392643+917229408
673+918600946+918986243+916189567+914584188+915278600+915171473+915179279
660+916171166+918613980+922749296+927415858+929355235+928866853+929916452
646+929310488+926778878+928246462+929828770+928068381+927924522+929299754
633+926755529+917285027+905114314+898456519+902291571+912045190+912985152
619+906546212+908844469+912954903+904493574+895085871+902598456+921774345
606+924929831+911065012+910994337+933898151
##END=
