##TITLE=Sample description
##JCAMP-DX=4.24
##DATA TYPE=INFRARED SPECTRUM
##DATE=12/9/2023
##SAMPLING PROCEDURE=Instrument type and / or accessory
##ORIGIN=Default
##XUNITS=1/CM
##YUNITS=ABSORBANCE
##RESOLUTION=4
##FIRSTX=4397.6552
##LASTX=599.8556
##DELTAX=-1.9287962
##MAXY=1.9596022
##MINY=0.33108827
##XFACTOR=1
##YFACTOR=1.8250218e-009
##NPOINTS=1970
##FIRSTY=0.34127694
##XYDATA=(X++(Y..Y))
4398+186998831+186282278+186872797+186966449+185971374+186005176+186853610
4384+186645225+185682335+184936617+184627623+184867280+185392072+185891455
4371+186472667+186795394+186798317+187330621+188449738+189171256+188819184
4357+187769583+187035557+186987074+186904967+186626560+186881697+187037484
4344+186488834+186521853+187498541+188205117+188247493+188375388+188685394
4330+188148860+186804163+186175627+186887102+187694042+187458663+186935537
4317+186992446+187293634+187756797+188415510+188754044+188822385+189042283
4303+189115261+188692171+187859904+187354430+188236666+189756419+190388825
4290+190265927+189817624+189197236+189010537+189650341+190354484+189755358
4276+187924978+186490597+186435843+187223644+187930922+187825954+186817749
4263+186401665+187344354+187920324+187524179+187666003+188383929+188672673
4249+188838323+189233211+189178424+188706100+188827741+189174489+188813959
4236+188346680+188323851+188268819+188059046+188432069+189452407+190053851
4222+189711022+189057894+188992819+189366479+189309782+188864451+189180090
4209+190510972+191353674+191122378+190606388+190380334+190719505+191173589
4195+190832866+189836044+189730471+190781166+191343027+190805938+189655093
4182+188769052+188920413+189588646+189834737+189437399+189245622+190021387
4168+190959210+191127587+190604004+189875611+189822947+190366666+190235112
4155+189548442+189231235+189228933+189347324+189589790+189983518+190638541
4141+191396409+191801667+191520075+190729417+190070556+189872606+189754639
4128+189316771+188899625+189481604+190988490+191775735+191149453+190159734
4114+189715333+189819942+190047466+190066082+189874239+189587373+189448814
4101+189750165+190231846+190472810+190492536+190461411+190555700+190769588
4087+190865608+190573826+190170871+190437145+190967065+190762550+190481579
4074+190967277+191396099+191218659+191154434+191104856+190531711+190207368
4060+190478198+190566135+190602420+191016610+191316377+191314499+191331988
4047+191358165+191384668+191699001+192357813+192392171+190891245+189206022
4033+189329100+190895671+192014886+191993200+191655760+191358573+190974642
4020+190758059+190824473+191195862+191686411+192056462+192099197+191478173
4006+190807571+190638998+190642624+190840623+191182603+191370020+191440630
3993+191584202+191716066+191795821+192113322+192312154+192030628+191682165
3979+191373923+191038181+190937230+191234205+191608991+191698479+191502766
3966+190881807+190291189+190748523+191605088+191621745+191142970+190822072
3952+190700203+190936447+191923749+192815309+192711288+192723291+192975848
3939+192582674+192043365+191464080+190871372+190866604+190989616+190600983
3925+190319799+190482526+189935656+188896800+189462286+191574372+192662217
3912+192039625+190943877+189295738+187108535+186392667+187807273+190032639
3898+191976364+192373146+190764755+189400184+190174022+190239146+189477359
3885+189994835+189352158+188338352+189615199+189981526+188688496+187691510
3871+187320251+188195025+188507905+187770335+188983626+191190457+191000280
3858+187301145+181471914+181416065+189103356+193289071+192872888+190302326
3844+187529339+185775775+184947607+185719061+187530727+188541250+189666181
3831+191081733+191177197+190278680+188440658+185539204+185720874+188268689
3817+189170831+191098928+193296534+192543516+189533092+187848391+188199842
3804+187157100+187331584+190272099+191347436+191534266+192412762+192759069
3790+192840898+193035321+192900731+192647308+192001544+191362329+192336502
3777+193669001+193443682+191792000+190235259+190367384+191392915+192439543
3763+192368672+190569515+189680257+190362289+189286430+185469688+183003980
3750+185499196+187225293+186755320+189296522+192157674+190631095+186456876
3736+184140014+186421261+190808731+193325813+193009814+191947182+192079568
3723+193283894+195172604+197164339+198259059+197558264+196074044+197701672
3709+202400504+206152171+207573064+209078300+213852591+219434230+222596406
3696+223686995+222784918+220232318+219491401+222163061+223711539+222227776
3682+218959456+214775260+209659658+206498837+208458027+209474021+208441550
3669+209993310+212047866+212303477+212220472+212320525+211534586+210827700
3655+211264637+209812114+206306325+206783222+212087514+215577659+216239247
3642+216309334+216662745+216621986+216158430+215392838+213495849+211894316
3628+214360286+217320331+217265675+215499864+214229206+215531266+217640429
3615+218267397+218267691+218331394+218537297+219174863+219544342+219272352
3601+219142481+219180007+218661436+218474949+219395871+219654111+218408716
3588+218407328+220828015+222579880+222776345+222821236+223143391+223076961
3574+222652499+222106642+220863206+219653425+220560663+222459072+223363517
3561+223574368+223638544+223679385+223838030+224186492+224508386+224467708
3547+224528962+225212055+225785184+225781102+225522355+225234362+225200200
3534+225565417+225994386+226109070+225893255+225467242+225015379+224907096
3520+225109994+225397677+225697280+225569548+225003915+224892105+225299665
3507+225350418+225254529+225846013+226610168+226517708+225853867+225531810
3493+225495362+225126944+224394371+223897764+224235514+225092570+225636517
3480+225682388+225547683+225495199+225643784+226006339+226319741+226237374
3466+225995365+226005784+226214169+226300880+226049972+225728421+225925376
3453+226452813+226450152+226190883+226411287+226757577+227074850+227605031
3439+228208598+228740461+228934084+228681413+228478416+228680972+228989295
3426+229183163+229540836+230212287+230896164+231204667+231166995+231147088
3412+231329330+231563663+231808888+232373019+233205433+233881390+234359087
3399+234777131+235027092+234973269+234934584+235345965+236014003+236451953
3385+236520375+236525110+236802163+237332703+238022198+238693469+239080878
3372+239456367+240068687+240471691+240635904+241063713+241582349+241793674
3358+241928036+242217351+242630007+243225131+243890605+244400570+244764921
3345+245178736+245799564+246490023+247063527+247509348+247732218+247755994
3331+247862219+247997120+248038222+248445162+249244459+249732542+249813897
3318+249688549+249277641+248944333+248874523+248482345+247769580+247682689
3304+248246314+248434352+248779434+250374011+252048555+252862875+253614881
3291+254600485+255623811+256836857+258478839+260370880+261924714+262822921
3277+263052731+263002990+263400262+264210827+264699269+264917550+265503759
3264+266114560+266187636+266056769+266006457+266139349+266424239+266547024
3250+266710616+266936147+266646603+266150764+266058663+266021823+265742044
3237+265478872+265446506+265529511+265423661+265198407+265099758+265056435
3223+265183547+265478317+265263988+264749728+264962049+265364677+265075084
3210+264718914+264884074+265174353+264803731+263772714+262915511+262568322
3196+262722770+263036989+262690943+261820481+261200289+260700057+260046243
3183+259494605+259130939+259002668+259104746+259058924+258603665+257922694
3169+257419686+257141605+256874530+256700780+256653930+256689709+256937939
3156+257296052+257504862+257305932+256656151+256023761+255508212+254930054
3142+254575990+254459836+254337264+254188499+254053076+253803115+253132824
3129+252470795+252414441+252266819+251501423+250828764+250407601+249639396
3115+248633723+248012503+247907159+247631544+246391113+244439076+242789516
3102+241923251+241338120+240441758+239450276+238851999+238637017+238484855
3088+238195360+237762668+237219129+236647731+236189467+235865777+235689937
3075+235713713+235729716+235511566+235237127+235124859+235245520+235600449
3061+235766410+235521429+235331562+235293938+235229533+235237910+235165079
3047+234852689+234518924+234262480+233989755+233829233+234003717+234251980
3034+233996597+233322844+232904343+232906939+232939273+232700024+232265748
3020+231813852+231381961+231161083+231156641+231083124+230870755+230485403
3007+230045689+229870356+229928882+229872969+229476137+228908593+228557616
2993+228630104+229178918+230214377+231386925+232097698+232247165+232076028
2980+231683997+231426802+231703887+232177485+232217167+231844471+231584483
2966+231543495+231391073+231168334+231013380+230782557+230534997+230331609
2953+230033311+229795892+229861799+230068682+230131290+229960056+229808825
2939+230054916+230462329+230508461+230240145+230048286+230066232+230037198
2926+229732875+229228364+228726156+228233926+227661026+227264080+227160092
2912+227073576+227027510+227089204+227096307+227263737+227751412+227984047
2899+227682712+227366827+227441569+227860430+228214706+228322809+228583580
2885+228964539+229040996+229009006+229179848+229419195+229574851+229621179
2872+229590136+229618615+229861864+230148878+230098859+229881052+229954389
2858+230214164+230218051+229814083+229197485+228561176+228045773+227870472
2845+228066839+228363177+228499612+228435975+228327267+228407137+228701825
2831+229010867+229300526+229582248+229702959+229683428+229658835+229681485
2818+229847870+230083362+230148780+230075540+230041215+230053675+230127633
2804+230361149+230637140+230831008+231079418+231299038+231329477+231389031
2791+231635759+231926512+231985103+231769288+231683508+231853975+231991521
2777+232078363+232155554+232103332+232022189+232051158+232033032+231808072
2764+231606251+231776277+232242168+232606764+232684805+232659297+232701298
2750+232832786+233035684+233227429+233440778+233587992+233455590+233301942
2737+233348874+233417427+233512875+233763930+234102415+234310081+234267297
2723+234108424+234029927+234103476+234274041+234509403+234849228+235180119
2710+235308145+235319037+235397208+235464356+235462707+235614232+236023458
2696+236407078+236483469+236428960+236618387+236949474+237088621+237135700
2683+237271858+237387147+237350535+237218541+237213217+237398822+237524040
2669+237450506+237375030+237404897+237419039+237339431+237185375+237085338
2656+237109490+237116610+237002073+236925714+237075067+237259219+237249780
2642+237103693+236864935+236585221+236393459+236373472+236432390+236410606
2629+236397950+236466241+236420355+236169871+235947834+235930998+235920776
2615+235709435+235454852+235427876+235501915+235343320+235069517+235026537
2602+235160066+235126557+234852885+234597862+234524035+234568011+234620201
2588+234613180+234535515+234480075+234471584+234446207+234463125+234459108
2575+234322868+234154164+233936863+233611899+233367180+233331613+233326649
2561+233193038+232959620+232628728+232267544+232071080+232059943+232036493
2548+231945357+231877800+231791203+231632379+231426639+231200846+231017005
2534+230945921+230965386+230975184+230948550+230837066+230578353+230300304
2521+230097439+229935741+229845306+229802636+229759966+229836325+229992813
2507+229961983+229731960+229446466+229168254+229078309+229265498+229443281
2494+229455872+229598627+229939741+230077614+229965445+230069188+230472731
2480+230772498+230805844+230713776+230630494+230634527+230699928+230753637
2467+230800634+230819316+230790755+230855535+231043917+231152396+231084039
2453+230965599+230969518+231098409+231273481+231520340+231806831+232077253
2440+232385038+232649467+232708369+232603351+232427903+232256228+232235456
2426+232441065+232796386+233122020+233339762+233533222+233687196+233737312
2413+233722991+233740529+233882060+234135401+234411735+234621916+234767121
2399+234967913+235261246+235574583+235841135+235959951+235856697+235592889
2386+235165520+234237773+232370912+229540395+226175647+222628739+218804747
2372+214620698+210496743+206727782+203135902+199994448+198016234+197465510
2359+198428416+201223530+205785991+211750026+217687524+220535008+218697525
2345+214359518+211687988+211400746+211844771+212640721+213838319+215020926
2332+215986330+217230142+218983444+220768966+222310209+224016743+226193838
2318+228526393+230614148+232277310+233672172+235145092+236804906+238508795
2305+239976848+241029208+241816650+242555787+243233721+243800987+244363697
2291+244938018+245440977+245903455+246362535+246741845+246912770+246913015
2278+247011075+247342212+247696520+247889327+247984334+248014234+248032621
2264+248204183+248496993+248734315+248878050+249029183+249240458+249472799
2251+249743679+250025842+250126336+250040310+250080939+250325348+250513108
2237+250582984+250632137+250718734+250962767+251267041+251380958+251378721
2224+251450082+251557435+251567853+251536532+251694622+252013690+252224068
2210+252299414+252397050+252572383+252753351+252829676+252863904+252972203
2197+253113799+253285051+253463503+253560731+253643638+253746908+253774342
2183+253789398+253939224+254176823+254388621+254530969+254581297+254602183
2170+254715022+254941223+255144040+255260782+255401513+255554523+255666954
2156+255821369+255995250+256046297+255978299+255975441+256127521+256336641
2143+256581246+256861989+257013432+257015522+257068512+257207904+257315093
2129+257394456+257520163+257631827+257675362+257771218+257948805+258049609
2116+258043518+258083134+258247641+258482269+258691601+258838863+258937936
2102+258926947+258841264+258840251+258910274+259004546+259166799+259357956
2089+259499716+259573494+259636119+259702353+259681500+259621977+259644562
2075+259737429+259939968+260221903+260370423+260361801+260322038+260267986
2062+260282716+260473399+260683368+260788173+260909684+261054513+261122641
2048+261097803+261003466+260897893+260863944+260963507+261161767+261382792
2035+261567564+261661183+261694545+261719121+261763245+261833218+261910915
2021+262045212+262198255+262280656+262395438+262590237+262773572+262951829
2008+263144570+263344300+263593134+263884034+264146242+264357698+264464707
1994+264356081+264238980+264502462+265071344+265582109+265869727+266041305
1981+266196046+266330326+266552739+266864263+267080160+267121622+267047419
1967+267051795+267303455+267672558+267952827+268129092+268284421+268516223
1954+268844273+269140987+269330690+269450078+269447775+269348686+269525767
1940+270078973+270630415+271058029+271382323+271599543+271845552+272170499
1927+272313957+272115239+272002204+272190422+272471214+273132589+274082561
1913+274596592+274673669+274877726+275394435+275988221+276540692+277094699
1900+277532208+277704847+277844761+278146112+278285863+278372052+278926123
1886+279632814+280145669+280706762+281356396+281927941+282379134+282682380
1873+282528161+281826500+281637270+282895027+284551918+285595461+286166711
1859+286648213+287200162+287782680+288378491+288909635+289126561+288848954
1846+288417029+289103830+290939729+292337041+293114962+293821685+294287380
1832+294032797+293761493+294547220+295721075+296976252+298491563+299670611
1819+300468030+301261399+301946599+302246938+302558642+303498522+304722444
1805+305576593+305902700+306057442+306758384+307893243+308285192+307890206
1792+308745661+311305821+313349305+314323282+314965895+315557819+316342990
1778+317322422+317561523+316624125+316160325+318111480+321126851+323417993
1765+324316364+324483646+325417387+326780210+327909158+328895219+329017791
1751+328421523+328766573+330509947+332412896+333595112+334142488+334989942
1738+335833411+335514456+335978910+338943985+341819246+344000260+345540687
1724+346510941+346988524+346063569+344298149+345182639+349116205+352710959
1711+354737362+355186334+354933777+355263575+355333368+354659403+355488992
1697+358115027+362199578+366358724+368330716+368941420+368535525+367005059
1684+368282380+373409559+377304619+378915395+379633320+380940067+381984361
1670+383042894+386421343+390006625+391661361+393362147+396423764+398736658
1657+398326681+395699470+396874109+402459079+404776512+406735571+412233569
1643+417545569+420295188+420693833+419632262+421447390+427740422+432622196
1630+435066447+437246155+439731884+442480850+446389725+449917396+452293813
1616+456632685+463037022+468332953+472627311+477052992+481969549+487025237
1603+492122826+497475553+502942557+508269875+513786129+519741754+525601490
1589+531169412+537019742+543569022+550619106+557508471+563041676+567713187
1576+574947831+583336276+588824606+593839240+601623089+610123230+617169493
1562+621366263+623284236+631068608+644873336+656715347+667168211+676555455
1549+685394865+693332084+699715355+704258710+709621561+721949810+735114670
1535+744059832+752030756+760779437+768389537+774969549+781863161+788949333
1522+796658784+805257949+813956466+822956300+831756911+838936686+843588406
1508+847474386+857498755+871266186+880035770+884803758+887995589+892941246
1495+899842042+904257240+905555985+907998538+914619310+922177220+928215735
1481+932899200+936378763+939225969+941590531+942590832+943576567+946952990
1468+950590823+952345301+953028542+952392331+948425159+942384618+942256788
1454+947396444+950258478+949980348+946866834+942871836+940040567+937003412
1441+933576300+931319255+929347458+925926225+921288745+916988640+916341913
1427+917971501+916276332+911475685+909987709+917571942+930405567+936632921
1414+936445258+937425441+941307175+943882196+944867800+947073505+949983418
1400+952828991+957812207+963671224+966586363+968458285+970741524+972141645
1387+974089534+976316468+975270901+973022869+974436380+978273763+980723762
1373+981857119+983757455+985555959+986186422+987012255+988302443+989539200
1360+989906883+988655625+986499759+984210641+982936718+982543887+981908068
1346+981074462+978849161+974347481+969688184+967220418+966123118+964751672
1333+964039168+964832603+966542011+967811232+966644301+964348129+965668168
1319+970742373+973209552+971147288+970436417+974377593+980689796+985732387
1306+987542583+988660785+991514458+993788291+994291185+993889602+993458951
1292+995600577+1000711557+1006669403+1011971900+1014837918+1016206751
1281+1018753815+1022029516+1025771794+1031444129+1037968686+1042833934
1269+1045638226+1046630950+1045114495+1041902088+1040731695+1044125494
1258+1049246860+1051337472+1050790684+1051815022+1055224890+1057865360
1246+1057975097+1057529292+1059310225+1063005211+1065290541+1065413080
1234+1065262649+1064498935+1063735286+1065287732+1069150263+1073020697
1223+1073741823+1070647971+1066665187+1064881380+1065028283+1064915477
1211+1064380315+1064091211+1064595412+1065624584+1065654304+1065134689
1200+1065686311+1067030975+1067494416+1066718292+1066511948+1066901186
1188+1065222804+1061358118+1057701931+1055805644+1056136422+1057341499
1177+1057172256+1054383707+1051185997+1051573863+1053293265+1050441160
1165+1044715851+1042791346+1044209626+1044050442+1043893545+1044865171
1153+1042628048+1038202660+1035973832+1035130428+1034068662+1033961276
1142+1035601838+1037346453+1036448246+1033973165+1032098564+1028845397
1130+1024272518+1021188203+1020019900+1021368549+1024117124+1023898892
1119+1020151584+1015177840+1010759703+1010015323+1012311299+1012263355
1107+1010278299+1010795171+1011486381+1007962923+1002733388+1000545907
1096+1001606237+1004664751+1008566343+1009516936+1009424444+1013350139
1084+1017984679+1020262758+1020997078+1018354321+1014076751+1015166866
1072+1020738675+1022277599+1020326052+1020941295+1023489666+1024419160
1061+1025223111+1028866300+1032248929+1033469487+1034233854+1034251882
1049+1033335060+1031137389+1029336665+1031649950+1035559054+1034206551
1038+1027336454+1020948872+1020242378+1024156119+1024472134+1020564664
1026+1020283660+1021995942+1021985099+1025139176+1028484051+1022024683
1015+1013053850+1013960613+1018224075+1016262011+1013495735+1014917216
1003+1018294489+1021306627+1021562156+1019876981+1019909902+1021257507
991+1022861032+1026223739+1030987089+1035134870+1037397402+1037450115
980+1036841339+1036772623+1037176949+1039416490+1042706235+1043838220
968+1043075681+1042900168+1044855634+1048571392+1052378859+1056168101
957+1058844824+1056960230+1052412760+1051086711+1053004031+1054437138
945+1053945871+1051794773+1049016348+1046773411+1046746238+1049605268
934+1052994625+1054808217+1054041107+1051937627+1052063432+1054508859
922+1057312628+1059134059+1057856216+1054433611+1052609110+1053479099
910+1055589111+1057344308+1057608067+1056872898+1057437780+1059736760
899+1062536022+1066274054+1068835293+1065465335+1057286565+1051300763
887+1052350706+1056559430+1058462379+1060970186+1063157014+1060002676
876+1055274206+1052394274+1051380452+1050413268+1044258419+1036161952
864+1033114803+1035655596+1039892145+1040452782+1038505219+1037613152
853+1034816046+1029183948+1026528454+1028858069+1029838252+1027459647
841+1025298751+1021566533+1016856613+1017578131+1023211340+1025849785
829+1022532410+1019464751+1022222731+1027246575+1027013189+1022583229
818+1020756899+1021458952+1021073828+1020969448+1020556760+1015862910
806+1009813356+1007922164+1009846734+1012173475+1011730022+1008316693
795+1003476265+998024906+997305413+1002894270+1004617852+999276556+995233613
781+994649723+992595167+989364079+989298760+990815672+992139369+994483485
768+994287788+989452717+985514808+982639906+976166821+961857240+926596402
754+889924993+892515167+930002612+957909271+961032778+957293375+953129918
741+950588863+952583129+956785451+956908644+952874780+949785173+948395830
727+945544901+940251875+933471071+925161923+916626314+912474157+914019809
714+916483199+918505030+921709860+925891410+930970841+933448078+931146419
700+928160736+926677333+926303575+927571229+928326778+924543545+918888193
687+917150567+917528897+915774026+915318358+918696219+919892217+917320593
673+917393359+916748069+906980797+902371339+914465679+924950223+925137494
660+919056913+917725900+923189409+921380585+910591326+907424120+915884351
646+924323941+926005654+923059946+918570414+917760389+926456749+947807891
633+950288851+888658581+822864657+818594664+865046148+885991329+867793285
619+870121856+894210075+907657702+908782632+908658199+907422160+908306519
606+911091672+910252710+901472087+894048083
##END=
