##TITLE=Sample description
##JCAMP-DX=4.24
##DATA TYPE=INFRARED SPECTRUM
##DATE=12/9/2023
##SAMPLING PROCEDURE=Instrument type and / or accessory
##ORIGIN=Default
##XUNITS=1/CM
##YUNITS=ABSORBANCE
##RESOLUTION=4
##FIRSTX=4397.6552
##LASTX=599.8556
##DELTAX=-1.9287962
##MAXY=1.8657534
##MINY=0.23105304
##XFACTOR=1
##YFACTOR=1.7376183e-009
##NPOINTS=1970
##FIRSTY=0.2481229
##XYDATA=(X++(Y..Y))
4398+142794827+142809569+143065654+143600078+143837108+143901871+143965297
4384+144018980+144189807+144273350+144170220+144004539+143901271+143791632
4371+143621723+144026115+144774990+144684003+144239614+144534581+145304243
4357+145492633+144450626+143208575+143317511+144660557+145781220+145857543
4344+145471142+145249514+145038845+144354339+143513533+143204116+142882650
4330+142420861+142859376+144131715+144801643+144153995+143675372+144334803
4317+144661963+144215928+143869430+143552106+143444602+144181471+145552422
4303+146515413+146328567+145399724+144206323+143173286+143311011+144557478
4290+145461863+145499184+145569882+146123215+146497919+146029038+144842274
4276+143825188+143525170+143697188+144209479+144665668+144628124+144687862
4263+145041520+145012844+144674672+144513485+144572640+144693676+144791661
4249+145213187+145914622+146020548+145934500+146526819+146370176+144761698
4236+143741928+144053694+144420062+144380837+144410646+144930843+145881503
4222+146570691+146753541+146741930+146302978+145450218+144890281+144961939
4209+145463493+146117710+146686805+146810843+146484884+146277611+146533696
4195+146765410+146530609+146476583+146579404+146066085+145643992+145832742
4182+145807993+145437388+145260045+145218230+145197991+145377942+145649704
4168+146062466+146461112+146332804+146177996+146557691+147001376+147214378
4155+147239676+146710337+145572334+144799002+145146640+146143814+146836347
4141+146892929+146582646+146072619+145674196+145826499+146370742+146766559
4128+146629006+145986777+145393961+145308085+145675105+146328945+146717146
4114+146375390+146069017+146057200+145381287+144454193+144762024+146094007
4101+146936853+147010347+147102535+147189491+147020517+146761087+146297541
4087+145873356+145830444+145642895+145299012+145523196+146142836+146738019
4074+147414053+147678422+147122156+146428731+145851780+145114876+144686747
4060+145041229+145692668+145952732+146035452+146417617+146757469+146632539
4047+146357947+146359903+146594292+146972820+147427431+147619525+147575892
4033+147561656+147305005+146729786+146242176+146083390+146270819+146504265
4020+146685159+147045627+147204053+146728672+146034029+145910660+146712584
4006+147786526+148055149+147486071+146966868+146701384+146486496+146399916
3993+146164893+145980088+146605217+147427671+147247497+146414941+145818815
3979+145573809+145743315+146092652+146000550+145797016+146143248+146888744
3966+147362925+147084852+146581994+146295620+145979471+145903216+146160828
3952+146338498+146431320+146543232+145953641+144783103+145077075+146552460
3939+146917816+146078691+144916951+144585863+145798251+146695192+145696509
3925+144439083+144688170+145129815+144769999+144908924+146268521+147275230
3912+146908297+145870852+143982620+141072259+139596299+141118232+143989223
3898+146240496+146135942+143693081+142341434+143869053+144173324+143297367
3885+144063608+143862827+143305908+144495922+143889403+141899703+140788294
3871+140197159+141512428+142489741+141661215+142953665+145604990+145160361
3858+140490540+133561478+132971115+141299898+146439896+146674062+144499867
3844+141888795+139503245+137326889+137769503+140966967+142981673+143741027
3831+144770822+145390000+145109319+142882804+138743857+138468073+141637452
3817+143177823+145658056+147921455+146851818+143397642+140967104+140623839
3804+139378787+140086027+143710292+145117621+145985457+147636247+148250090
3790+148048254+147347832+146661679+146976078+146701230+145271038+145353039
3777+146718209+146948791+145608352+144614249+145609261+146837239+147378721
3763+146613638+144129914+143177085+144405089+143462088+139381180+137347582
3750+140589297+141629837+140187108+143666479+147719671+146383125+142258199
3736+140014078+142533794+147759856+150933146+150713678+150164444+151449364
3723+153477070+156103870+159196446+160869138+159633991+157567352+160246102
3709+167378620+174099371+178869511+183847883+191930666+200138019+204550864
3696+205128586+202265631+196873279+193252153+194338393+195241440+192766601
3682+187914118+182093191+175733542+171618546+172717649+172806973+171211821
3669+173263556+176118073+176781260+176658595+176494217+175598545+175010497
3655+175483580+173489850+168898941+168809549+175141018+180301674+181686569
3642+181076413+180520027+180366849+179971547+178518184+175162337+172474548
3628+176041218+180883393+181216710+178317086+175617257+176439659+178604387
3615+179096524+178903727+178592123+178463815+179686939+180962426+180783075
3601+180047407+179581167+179228023+179683149+181034187+181101265+179264607
3588+179112098+181896003+183808916+183903265+183539041+183331922+183370598
3574+183647008+183397080+181739172+180035195+181035576+183578523+185069515
3561+185396847+185250444+184880594+184194527+183756176+183957806+183848724
3547+183673421+184647989+185991789+186331110+185785700+185381239+185582303
3534+185913665+185807173+185179095+184633702+184592179+184732785+184851283
3520+185005524+185311725+185807808+185782355+184842107+184289751+184887180
3507+185244012+184680285+184407443+184868829+185211047+185158873+185034149
3493+184900524+184509235+184017955+183836821+183867573+184073662+184500917
3480+184673527+184374135+184016034+183950328+184243271+184605025+184545442
3466+184125133+183810151+183961425+184629054+185327813+185654750+185602696
3453+185278572+184866890+184678278+185040204+185520902+185633294+185983231
3439+186710890+187142158+187265750+187310703+187353890+187534321+187601417
3426+187313842+187094289+187624091+188839291+189824699+190056104+189888364
3412+189908414+190266944+190721692+191128057+191599441+192189873+192623337
3399+192880708+193267057+193861502+194562954+195075159+195394841+195759391
3385+196037944+196388087+197058975+197716074+198208315+198795453+199340949
3372+199387583+199101329+199186999+199987671+201176493+202195946+202996240
3358+203777342+204413465+204939271+205505296+205915606+205996851+206072437
3345+206810112+208184990+209144156+209109014+208995541+209638490+210427825
3331+210791002+211021412+211399854+211893141+212167647+212216631+212568609
3318+213197785+213566812+213614355+213614972+213743058+214132957+214746114
3304+215253997+215445422+215666965+216270380+217185159+218298772+219473050
3291+220777282+222193769+223277197+224094282+225037206+225986185+226570082
3277+226733413+227020594+227900504+229142821+230129069+230184210+229638595
3264+229865609+230755913+230916431+230536994+230675593+231002445+230852937
3250+230619406+230663468+230838342+230985671+230975500+230940683+230963649
3237+230904820+230655526+229902312+228815060+228228608+228073097+227731959
3223+227759315+228576847+229183469+229286016+229578943+229525619+228458229
3210+227153259+226220557+225580867+225303222+225333580+225355465+225007518
3196+224311194+223698569+223145732+222580530+222254554+221878770+221235409
3183+220669246+220278249+219980367+219640875+219004958+218048261+217188023
3169+216846182+216748883+216584968+216552775+216581212+216357697+215982942
3156+215888851+216069573+215944729+215347609+214781343+214615559+214615645
3142+214397361+214113182+213981152+213686527+213144205+212793136+212735902
3129+212522987+211884429+211250673+211011516+210921369+210563268+209461592
3115+207729367+206426644+206014277+205792545+204997311+203568200+202156069
3102+201277651+200696755+200005748+199092427+198020114+197097531+196545227
3088+196087632+195587518+195328912+195231201+194873529+194301586+193900710
3075+193689510+193461347+193191969+192816631+192478357+192623765+193029633
3061+193044074+192791882+192873025+193261466+193444813+193302972+193013082
3047+192732847+192620370+192541937+192308251+192163546+192154645+191771125
3034+191025201+190578531+190595047+190682278+190526459+190126389+189679445
3020+189247559+188839240+188640474+188674502+188707844+188606531+188339229
3007+187959415+187603715+187346052+187112864+186744815+186268045+185865350
2993+185825508+186386594+187262302+187937187+188226923+188330019+188557102
2980+188886629+189039343+189010906+188953210+188741237+188374852+188169106
2966+188210664+188225757+187960701+187490534+187026558+186716087+186537388
2953+186386302+186412630+186604895+186689708+186673534+186666382+186632954
2939+186535827+186415751+186279690+186066414+185875247+185878625+185918296
2926+185730902+185404205+184961703+184148802+183189344+182729811+182715712
2912+182586358+182410866+182512676+182798724+183112644+183307962+183201110
2899+182919349+182775759+182939142+183401145+183846100+183933828+183837970
2885+183935029+184225605+184487916+184705086+184922495+184986074+184847149
2872+184749439+184854421+185084437+185250169+185139578+184868966+184753847
2858+184791596+184798440+184586193+184124910+183604644+183139159+182890501
2845+183045651+183441896+183757119+183926676+183999843+183935389+183999981
2831+184509458+185086186+185249329+185132598+185025917+184991117+185040890
2818+185190740+185287799+185124485+184796570+184625898+184720144+184988579
2804+185404651+185883291+186287477+186582530+186733907+186776493+186914955
2791+187182721+187270844+187135126+187115934+187195327+187184813+187228617
2777+187368692+187310292+186991604+186812923+186880190+186928934+187001792
2764+187200163+187397883+187456300+187351540+187257226+187315557+187469387
2750+187658994+187849218+187994832+188111118+188170633+188168660+188252427
2737+188402226+188466852+188515235+188598162+188605537+188589054+188731478
2723+188985694+189165508+189313060+189569454+189822160+189878039+189834972
2710+189940796+190247409+190543422+190632351+190641270+190732257+190783042
2696+190764587+190884423+191145105+191320065+191360970+191449471+191666674
2683+191919432+192206750+192457244+192416355+192175723+192089058+192121234
2669+192000626+191817948+191815993+191862542+191739396+191477290+191249968
2656+191209302+191283824+191346289+191428375+191488027+191361811+191087683
2642+190927713+190994500+191067118+190925552+190717404+190595407+190390913
2629+190048214+189776881+189685705+189691794+189747124+189848093+189884625
2615+189729527+189414218+189139764+189033032+189032123+188978028+188730501
2602+188442137+188310793+188215877+188122163+188120997+188098614+187999583
2588+187905474+187790732+187647622+187530411+187464841+187455889+187396288
2575+187235581+187118455+187051359+186917374+186790832+186697237+186473191
2561+186151142+185894902+185700235+185537281+185433036+185385047+185355307
2548+185273838+185087267+184819622+184550862+184369899+184309801+184267146
2534+184139232+184025433+183976912+183831795+183617062+183549743+183592896
2521+183535199+183335455+183161542+183105114+183019958+182877003+182865271
2507+182995912+183063351+182960889+182825292+182791589+182793407+182750564
2494+182687481+182719743+182924494+183208965+183480555+183751733+184038931
2480+184210049+184138425+184002296+183993069+184062205+184075995+183989072
2467+183954135+184070335+184265328+184483183+184640288+184701844+184760330
2453+184804751+184841507+185013276+185237443+185365220+185511932+185754948
2440+186052625+186394175+186671305+186734919+186673414+186730648+186932552
2426+187105557+187209905+187324476+187447399+187531354+187577954+187654963
2413+187806048+187977201+188130138+188317413+188565883+188757857+188855653
2399+189028744+189293696+189506612+189657423+189820463+189981427+189978203
2386+189571101+188487879+186492640+183587613+180068126+176289157+172351728
2372+168226595+164177357+160480628+157013658+153832358+151516906+150763571
2359+151989285+155043288+159554547+165548016+171574347+174280180+172312863
2345+168055906+165325564+164823307+165303251+166271867+167462284+168467879
2332+169327122+170622830+172460501+174307639+175806040+177395892+179701895
2318+182320822+184422999+185967212+187413422+188915425+190370246+191829251
2305+193308701+194583587+195539598+196294922+196932331+197465168+197964407
2291+198574271+199306646+199930472+200325225+200537334+200558362+200507405
2278+200551347+200704748+200960833+201227535+201384949+201487290+201654224
2264+201918250+202179652+202344098+202470777+202633628+202797097+202897723
2251+202949143+203034848+203189020+203394972+203646787+203857078+203950690
2237+203991287+204032862+204138565+204349131+204539595+204641028+204712085
2224+204764071+204840205+204998322+205130713+205126648+205076944+205110920
2210+205230310+205349975+205451733+205602595+205806455+206054874+206297873
2197+206400197+206424209+206525590+206631584+206662885+206700292+206751626
2183+206765690+206823267+207028413+207350119+207616238+207694893+207709180
2170+207832189+208012311+208102956+208093197+208126642+208275411+208418041
2156+208507845+208631094+208729028+208771597+208881262+209011766+209066993
2143+209173228+209423362+209643875+209699617+209682843+209697233+209826399
2129+210037925+210155857+210188736+210265694+210366955+210408649+210406420
2116+210461149+210635115+210849985+210968192+210988585+211003180+211078406
2102+211234293+211400918+211452320+211373253+211363871+211527648+211668889
2089+211654585+211605961+211681426+211845564+211924528+211905868+211939741
2075+212068959+212232222+212373616+212407765+212307018+212216254+212285408
2062+212412258+212481395+212590683+212725423+212797715+212854640+212898856
2048+212881276+212827473+212794920+212804730+212893591+213045774+213192417
2035+213359162+213524654+213611319+213649704+213697418+213734945+213759935
2021+213816379+213838453+213863906+214085174+214401769+214611649+214771344
2008+214980623+215206574+215364537+215458063+215578996+215773268+215892041
1994+215735072+215592854+215901097+216446455+216864465+217080622+217217078
1981+217437746+217656201+217758903+217848604+218052549+218225245+218151906
1967+218156914+218571220+219039964+219294557+219483529+219723287+220067118
1954+220424670+220619834+220698798+220736994+220592220+220315553+220539926
1940+221403423+222159398+222562333+222822277+223073594+223447320+223865639
1927+223975990+223721534+223613104+223697608+223774652+224395167+225424276
1913+225958211+225990147+226152603+226705011+227372229+227895359+228231626
1900+228437836+228561205+228728772+229003998+229029159+229018457+229689345
1886+230609870+231254843+231839820+232387460+232832243+233253289+233591563
1873+233310111+232135559+231509333+232938598+235101061+236468582+237121358
1859+237542113+237989915+238542391+239159784+239638047+239714627+239199078
1846+238399452+238986231+241199891+242818660+243497712+244232129+244787006
1832+244168446+243310181+244037822+245535658+247100641+248934161+250307530
1819+251106675+251880179+252463922+252469084+252611251+253676961+254997453
1805+255711648+255680947+255502660+256212533+257546866+257943094+257343040
1792+258165391+260973102+263186642+264164743+264734885+265195533+265986206
1778+267146076+267278381+265841930+265091340+267275877+270592911+273040960
1765+273836538+273665883+274434842+275850969+277039791+278065762+277931433
1751+276760809+276828213+278739634+280807732+281978219+282413757+283354521
1738+284357663+283687358+283696534+286958495+290459134+293219215+295060848
1724+295918822+295995248+294422375+291906699+292536870+296897781+301011336
1711+303252901+303450381+302689037+302796953+302780968+301766952+302477768
1697+305344942+309996841+314939076+317244718+317737988+316786780+314168264
1684+314982709+321022452+325660630+327231101+327562532+328774130+329748699
1670+330606741+334371612+338612567+340460511+342261700+345746354+348358969
1657+347581537+343740824+344272787+350761104+353352967+355245641+361504338
1643+367573513+370491317+370765051+369331070+370746837+377238515+382644692
1630+385442198+387563773+389623226+392168574+396692284+400926413+403287523
1616+407600581+414565017+420201843+424633932+429522655+434836455+439833471
1603+444993012+450857470+456944139+462732857+468506173+474602481+480734087
1589+486885485+493462268+500659996+508328696+515875657+521657994+525829933
1576+532917583+542197506+548632757+554581428+563252584+572422876+580102485
1562+584465831+585999839+594735656+610926434+624499177+636371820+647206675
1549+657132857+665339112+671623535+676536339+682714493+696308572+710425010
1535+719333917+727959829+739205765+749106426+756893916+763753867+769397519
1522+776806515+787573040+797593554+806959164+816982011+825350997+829575761
1508+831350709+841423912+859321102+871185718+877020367+880534109+885967967
1495+893331890+898156536+900810315+905202681+912513503+919860275+926148883
1481+931807423+936396822+939472316+940036180+937633839+936815999+941480315
1468+947181733+949646779+949874822+949553065+946631041+940391279+939723547
1454+948085604+955109040+955845240+952074092+948568377+946301051+943555342
1441+940120427+936413493+932519131+928206141+922356742+915569307+911486418
1427+910674546+911881651+914671748+914680941+912369433+917080743+928469172
1414+938028249+942623754+943914695+944546958+946388659+949943496+954141778
1400+958092946+961982643+965718734+969577833+974322554+977707936+976706166
1387+972814068+970561560+970992331+973260206+976690730+980026442+981529234
1373+981575817+983401602+986436412+987523733+986363554+984228361+983115039
1360+984603767+987848372+990520605+990820683+989596358+988026470+984899249
1346+979885322+975956451+973758896+971147104+968291146+966290762+965143961
1333+964274667+964117424+965328165+966186071+965881053+965472579+965389155
1319+965913503+967297060+969883057+973626282+977212951+980263884+983041083
1306+984083261+983364555+983284562+985419618+989556499+992890564+993209440
1292+993085334+995209825+998891580+1004022959+1011542067+1019550053+1025191510
1279+1028302061+1030247149+1032861754+1036384209+1038996550+1041760096
1267+1045950764+1047781351+1046662883+1047699162+1050785083+1052394419
1256+1053484072+1055848475+1058503625+1060420517+1061906844+1063190649
1244+1064539972+1066448152+1069122306+1072127067+1073741823+1072556054
1233+1069658797+1066999050+1064599727+1062642153+1063287177+1065723546
1221+1065478214+1062384061+1060666329+1061265319+1063247797+1066744457
1209+1069362972+1067935645+1064244971+1062814420+1064211355+1066197401
1198+1067219752+1065294147+1061322879+1058003083+1054784342+1052284377
1186+1052999378+1055038936+1054516097+1051725314+1048977890+1048499096
1175+1050474302+1050745704+1048829223+1048669991+1049194613+1047991145
1163+1045826246+1042909847+1040019450+1038818383+1039134583+1039180274
1151+1036950200+1032996906+1029900625+1028414435+1028110858+1028922936
1140+1029913317+1028923690+1025937795+1024372298+1024674434+1023975624
1128+1023214657+1023279489+1020152542+1012668149+1006482448+1006361909
1117+1009497638+1009687125+1006979148+1006597842+1008830591+1009361251
1105+1008440984+1008795877+1009552522+1008130409+1004991250+1003343976
1094+1004533998+1008541696+1013644741+1017332671+1019032222+1019516093
1082+1022924390+1029268911+1032382823+1032412117+1031905332+1030278159
1070+1029122027+1029604320+1031739857+1036295846+1039598627+1037497668
1059+1035056908+1037859216+1041995205+1042188123+1041111436+1040559920
1047+1038079850+1037516603+1043179533+1049508207+1050086616+1046980387
1036+1044411336+1041599904+1038003836+1038532437+1043256371+1042126378
1024+1033390973+1028369499+1028962178+1027891734+1027997729+1033703469
1013+1037060105+1033110790+1029458535+1030949870+1033463489+1033592192
1001+1032798500+1033382946+1036361981+1039829689+1041794948+1044029138
989+1046957679+1046617879+1042990870+1040566712+1039601166+1039672789
978+1041532602+1043661484+1047765160+1054627031+1056686279+1051378585
966+1047754252+1049999281+1054304862+1059567345+1065164758+1067274293
955+1064490302+1059908518+1057832051+1057904978+1056913910+1057204315
943+1061506877+1065460103+1066257979+1066888596+1068336436+1068817082
932+1067656423+1065937731+1064842521+1064776179+1065419420+1064497575
920+1061134078+1059138084+1060835852+1063064416+1062383786+1060243791
908+1060841477+1063600290+1064673478+1065394516+1066630915+1066048596
897+1065178959+1065012318+1064163400+1062723449+1061755776+1063156827
885+1065406797+1064634304+1061649370+1057134887+1050732737+1045931486
874+1043264672+1040588392+1040119682+1041665078+1041234239+1039178971
862+1037455064+1035251678+1032623146+1032631379+1035293115+1035313834
851+1032910807+1032936602+1034136641+1033635275+1031956648+1030999883
839+1032144832+1033656337+1033506572+1030825215+1027189082+1028075664
827+1033387543+1034037369+1026308194+1020045107+1022423847+1026633175
816+1025281726+1021291385+1018008156+1014850131+1014173274+1016056275
804+1016587072+1017680635+1019509576+1017723925+1013502934+1008385002
793+1003032029+1000372282+999511289+997361277+995084895+994641089+995909664
779+997369647+997861956+996907661+992598993+988230364+988484820+988793680
766+984759020+979270072+975513194+973256844+970345180+963712998+954932245
752+952905859+958907012+962847752+960562725+957945719+959001001+959956875
739+955386753+947371906+942648932+942467129+940419202+932126093+923483922
725+920867122+919955567+915880705+912210749+911785055+913412983+914490631
712+913777962+913945221+915698010+916539450+917395503+920303943+923266993
698+924391772+923987208+921928647+919518485+917872102+915343116+912181661
685+910505984+911399152+915969480+922362505+926124734+927577376+928560005
671+924454065+914523424+914256276+925683055+933264112+934437189+930062729
658+922124994+915028494+913708671+917519267+917005621+913906390+920362257
644+931113963+935008669+935276983+934882984+930892163+924339358+918609057
631+910090924+900230808+903262051+915332825+918917093+921542195+931349073
617+935155895+931932215+934875850+943011304+945002290+936828828+926358677
604+920290702+912409841+902457521
##END=
