##TITLE=Sample description
##JCAMP-DX=4.24
##DATA TYPE=INFRARED SPECTRUM
##DATE=12/9/2023
##SAMPLING PROCEDURE=Instrument type and / or accessory
##ORIGIN=Default
##XUNITS=1/CM
##YUNITS=ABSORBANCE
##RESOLUTION=4
##FIRSTX=4397.6552
##LASTX=599.8556
##DELTAX=-1.9287962
##MAXY=1.9177421
##MINY=0.28301659
##XFACTOR=1
##YFACTOR=1.7860365e-009
##NPOINTS=1970
##FIRSTY=0.2977936
##XYDATA=(X++(Y..Y))
4398+166734325+166878945+166297811+165078544+164313194+164713949+165593934
4384+166407557+166758837+165959247+164730769+164713215+166004500+166787504
4371+166409993+166257331+166830354+167683174+168328266+168228432+167696490
4357+167340354+166854766+166144648+166168042+167093230+167907821+168338661
4344+168696733+168514618+167330810+165853956+165680402+167343474+168543686
4330+167685226+166684016+166957521+167364666+166732573+165925223+166403769
4317+167495787+168077671+168173350+167346044+166178605+166120336+166263671
4303+165624086+165026433+165568904+167760648+169744698+169694589+169000239
4290+168771737+168393259+167926961+167998595+168338278+168321892+168084362
4276+167797291+167113170+166336140+166377105+166929654+167011217+166793411
4263+166908179+167311020+167845648+168519457+168758872+168013029+166771585
4249+166248537+167030623+167716747+167128388+166563808+167199322+168251709
4236+168596098+168398365+168588889+169093649+168846008+167653339+166739447
4222+166765295+166967115+166818324+166873622+167685377+168660807+169002459
4209+169141756+169654342+170201936+170197347+169646816+169259962+169352404
4195+169226439+168751781+169079199+170002018+169882994+168787689+167842845
4182+167510504+167605032+167511639+167173141+166867548+166513315+166342965
4168+166971320+168298498+169194051+169063881+168564961+168237626+168108107
4155+168352561+168940936+169390699+169536203+169516747+169073843+168250141
4141+168124176+169114757+169797060+169065283+167910742+167766138+168592043
4128+169444428+169735921+169660883+169712777+169841929+169711810+169314042
4114+168906112+168766515+168805427+168696432+168410246+168098746+167850871
4101+167744179+167841076+168197913+168612584+168682349+168696082+169100958
4087+169274345+168717607+168048837+167991303+168604090+169110085+169183538
4074+169520551+169815298+169497441+169335517+169526592+169397473+168864914
4060+168555683+169054620+169706570+169627861+169364718+169490800+169466821
4047+168991880+168628419+168691810+169059292+169534518+169759082+169729847
4033+169529345+169070923+168744172+168601053+168248055+167983177+168072298
4020+168310946+168703457+169167703+169475064+169426941+169113489+169434300
4006+170589392+171247933+170740085+169544646+168063905+166853131+166516185
3993+166982266+167838423+168703357+169503214+170313767+170705845+170580414
3979+170414836+170122075+169532232+169030091+168838833+168678227+168379509
3966+168131585+168260269+168987007+169777253+169889569+169359729+168727819
3952+168398565+168475756+168942705+168995250+168350592+168452996+169385793
3939+169828513+169540625+168780047+168385850+169118378+169696975+168936598
3925+168090002+168224077+168198463+167827227+168515336+170032019+170551430
3912+169838425+168853016+167315008+165016939+163572073+163873127+165665451
3898+168177138+168703274+166379341+164820207+166328381+166856635+165829094
3885+166176786+166090401+165904866+167539138+167655942+166033250+164794327
3871+164443798+165949986+166503737+165090525+165866771+168664011+169195502
3858+165487592+159115298+158460695+166026342+170595382+170361340+167662116
3844+164977442+163110714+161611067+162851542+166775306+168499434+167866373
3831+167618164+167672511+167187508+165320429+162140806+162124571+164525160
3817+165405062+167742227+170529938+170196263+167139251+164925281+164816953
3804+163236328+162785581+166006936+168136641+169109685+169895826+169823224
3790+169640426+169586596+169553023+169984731+169918019+169157391+169516463
3777+170477994+170179993+168376956+166906327+167568155+168757788+169389831
3763+168940302+167096317+166321489+166975475+165712023+161709416+159701204
3750+163171251+164825864+163782604+166651995+169857698+168063988+163662679
3736+161565897+164224757+169012153+172064143+172202939+171542529+172197950
3723+173814551+175931240+177944257+178716449+177576375+176071138+178764706
3709+185038984+189980829+192678785+195877530+202318654+209323292+213682885
3696+215323164+213913506+209909097+207083908+207926132+208648615+206830861
3682+203117093+198463421+193274068+190167698+191534089+191469830+189759502
3669+191728551+194384224+194678019+194228541+193811717+192641074+191822978
3655+192038098+189986686+185833218+185714044+190880136+195424447+197527720
3642+198084809+197929660+197356285+196613295+195497399+192964270+190780119
3628+193827152+197867620+197986543+195567081+193580412+194372910+195652148
3615+195345821+195151476+195583167+196255775+197748113+198938362+198642331
3601+197815392+197437965+197101669+197054797+197897438+198090582+196558280
3588+196126556+198498879+200587635+201133544+201118693+200818340+200274417
3574+200226594+200136121+198687551+197200686+198229512+200254811+200975892
3561+201063345+201627875+202074050+201582322+201042070+201142688+201081182
3547+201021145+201787129+202726267+202868618+202436226+202356566+202858339
3534+203142423+202831007+202322909+202006237+202131501+202581947+202951215
3520+202977729+202623630+202342482+202402853+202555232+202827386+203052167
3507+202697783+202051790+201977303+202243699+202098862+201931199+202254462
3493+202534491+202206606+201704232+201664218+201806702+201767756+201921454
3480+202240863+202170997+201935804+202096259+202648859+203248114+203496556
3466+203193583+202498316+202086097+202509963+203334082+203829564+203815815
3453+203573130+203277882+203119162+203531080+204286852+204885273+205393187
3439+205737375+205776738+205912981+206442687+206908769+206888612+206644508
3426+206409699+206204991+206453300+207390385+208335647+208714509+208854390
3412+209109891+209197410+209011558+209006753+209605173+210812776+211788674
3399+211857839+211653882+211762577+212154204+212808323+213654502+214638575
3385+215363611+215310048+214912631+214967279+215526086+216160499+216587918
3372+216943720+217400423+217948485+218844472+220100515+221014473+221227340
3358+221228425+221583876+222376959+223345014+224288640+225033833+225420989
3345+225797048+226431460+226900612+227069944+227363873+227933860+228528927
3331+228850638+228797910+228853809+229461907+230060695+230205782+230288930
3318+230471762+230329795+229912487+230187978+231310081+232177918+232061932
3304+231266763+230613245+230639075+231507162+232773618+233787244+234965363
3291+236747291+238219423+238658906+239080185+240515039+242484305+244222265
3277+245434057+246302361+247179376+247729423+247646375+247441067+247476942
3264+247787458+248556379+249356519+249422881+249075823+249000851+249025914
3250+248781960+248370627+248365237+249075506+249615174+249382967+248940947
3237+248665023+248754311+248937176+248617550+248243894+248148382+247811820
3223+247363125+247472437+247750731+247369483+246863821+246614145+245850697
3210+244818266+244413573+244359727+244143956+243855584+243463423+242962383
3196+242752820+242972178+243033567+242414806+241430933+240537332+239796377
3183+238981535+238009175+237506985+237643212+237601880+237085322+236567780
3169+236295410+236065757+235866572+235742627+235535383+235201207+234810998
3156+234781563+235086522+234916772+234353143+234050270+234155977+234531502
3142+234445434+233529641+232530483+231671539+230915300+230802818+230977356
3129+230786315+230601331+230580139+230391617+229856054+228887098+227710264
3115+226619314+225679075+224933248+224145839+223002027+221753893+220828288
3102+220255331+219723672+218869251+217807869+217077327+216747622+216286180
3088+215444306+214684847+214459665+214462218+214106733+213504742+213159169
3075+212971649+212661818+212376315+212311856+212552339+212840661+212707872
3061+212173910+211789492+211957356+212264283+212311489+212411423+212569693
3047+212555709+212564520+212587146+212297122+211791344+211431321+211143198
3034+210661332+210174342+209994681+209962109+209818257+209607392+209478841
3020+209275435+208831930+208672860+208876449+208641940+207902838+207198042
3007+206735799+206476093+206403224+206510817+206509115+206217389+205976639
2993+206065310+206427787+207076900+207872252+208414006+208697105+208963251
2980+209150722+209110308+208959464+208812174+208586108+208380883+208296567
2966+208068199+207560268+207161216+207049017+206946380+206919231+206988846
2953+206806832+206530374+206614222+206924003+207049000+207011823+207006634
2939+207073946+207146281+207065620+206866002+206680550+206465865+206225999
2926+205967145+205555611+204986291+204355583+203813279+203610924+203738007
2912+204026146+204327417+204426917+204368248+204277591+204043383+203711142
2899+203629930+203835088+203948237+204010811+204341116+204696384+204733110
2885+204672022+204801374+205032079+205142342+205138871+205274764+205586364
2872+205850958+205945236+205878524+205813014+205946621+206242135+206483235
2858+206568352+206440935+205929083+205152637+204528937+204221809+204109243
2845+204090321+204225330+204537530+204791846+204853886+204913522+205072009
2831+205243110+205379537+205516598+205744099+206094795+206447443+206543539
2818+206260073+205891456+205767644+205868512+206046555+206128551+206128401
2804+206425050+207040190+207490570+207618503+207673635+207766194+207884132
2791+208167399+208458124+208420964+208280398+208263996+208208097+208151030
2777+208321630+208530226+208379565+208119676+208070251+207962258+207836860
2764+208043503+208415758+208559644+208419562+208323666+208536650+208898392
2750+209227245+209407491+209259450+208976367+208926041+209143730+209468629
2737+209736928+209856819+209891576+209957237+209996266+209905827+209775573
2723+209837379+210243040+210781523+211090119+211131418+211164724+211348256
2710+211594779+211846826+212059192+212108133+212051500+211996652+211916391
2696+211875777+211951616+212099072+212327658+212665639+213010628+213135291
2683+213038878+213103670+213377025+213482983+213402689+213372453+213427418
2669+213506828+213545040+213500704+213442786+213380596+213244686+213140697
2656+213121074+212974152+212701631+212613995+212750055+212889452+212990671
2642+213056115+213027014+212946285+212806688+212597025+212453439+212371593
2629+212254305+212139870+211981684+211769068+211714570+211808180+211775475
2615+211518440+211163372+210981508+211059300+211079006+210923173+210787196
2602+210706819+210627008+210528759+210429576+210340154+210212053+210086439
2588+210072072+210167284+210206630+210061410+209854116+209734559+209661589
2575+209545419+209369513+209178655+209064737+209063336+209039858+208875215
2561+208662715+208491614+208253333+207875906+207549456+207491321+207551925
2548+207402917+207106401+206965185+206995754+207011039+206893117+206694300
2534+206573591+206515339+206384669+206214386+206104757+206043935+205962640
2521+205820072+205605036+205404583+205374982+205446132+205411858+205293586
2507+205177182+205044910+204950616+204994151+205181154+205374765+205398309
2494+205303331+205283958+205353990+205453174+205667359+206040948+206373773
2480+206514722+206541370+206497936+206429071+206429539+206465164+206448911
2467+206372071+206349795+206489793+206721265+206878149+206875246+206888195
2453+207069925+207240526+207283943+207308239+207375534+207481709+207644718
2440+207840364+208001571+208118909+208212669+208315106+208404845+208449114
2426+208569121+208842159+209154410+209322390+209234888+209082158+209186547
2413+209462822+209646221+209814686+210054501+210281602+210482388+210648066
2399+210797826+211006020+211221123+211329434+211440014+211656619+211715471
2386+211297814+210205529+208262895+205514830+202221724+198593757+194702648
2372+190590596+186438046+182456096+178820488+175967082+174212719+173655748
2359+174669540+177421242+181662980+187295371+193069110+195987442+194492701
2345+190408582+187341291+186523129+187112088+188258637+189317348+190053247
2332+190806833+192164346+194088593+196089496+197929576+199791849+201953141
2318+204314334+206405610+208028085+209542599+211130834+212622154+214052870
2305+215396533+216397210+217120694+217826975+218537778+219206614+219823940
2291+220370583+220908732+221531832+222137477+222470636+222504092+222433626
2278+222412301+222534728+222776629+222992433+223134083+223276934+223465005
2264+223741497+224078276+224291310+224383268+224520496+224709685+224914610
2251+225098877+225207304+225265306+225354911+225532587+225730803+225848608
2237+225942252+226115822+226317843+226450950+226514775+226567086+226684741
2224+226857795+226999445+227084361+227167476+227279090+227341314+227354179
2210+227459035+227680996+227881098+228004911+228122549+228186240+228171723
2197+228241789+228408468+228512908+228560597+228651654+228774299+228891970
2183+229014047+229170615+229369949+229541818+229612551+229599753+229614370
2170+229759741+230015659+230233448+230328059+230414060+230579371+230757197
2156+230847036+230867043+230923326+231027715+231186235+231415338+231645458
2143+231784472+231791947+231786875+231929976+232172829+232324540+232357713
2129+232413662+232495208+232523891+232558148+232659918+232772984+232896997
2116+233074622+233203724+233240084+233325768+233490829+233575562+233557323
2102+233623434+233833148+233995272+233944395+233832397+233897056+234055109
2089+234125475+234161200+234300214+234517936+234641849+234608259+234557800
2075+234600667+234736560+234907328+234899719+234668714+234563790+234694427
2062+234847123+235003190+235135780+235158456+235170420+235238601+235340003
2048+235425170+235416476+235362613+235388293+235504213+235640707+235793119
2035+235939341+236026193+236119753+236273584+236428783+236510780+236522761
2021+236519824+236547690+236681280+236926636+237193249+237394169+237521018
2008+237669976+237876519+238107508+238320241+238479345+238658773+238787924
1994+238655752+238527218+238807331+239314894+239785431+240146305+240383718
1981+240567767+240705529+240865234+241095738+241254275+241219584+241059279
1967+241108003+241503485+241899817+242171387+242456021+242669639+242800193
1954+243057295+243427914+243665577+243667546+243479875+243296877+243627949
1940+244474311+245153143+245527133+245814888+246049364+246303112+246548517
1927+246526491+246280869+246314225+246541426+246638690+247195178+248223621
1913+248815366+248886400+249082297+249723501+250487299+251024131+251404228
1900+251752804+251934251+252016865+252235855+252295375+252310143+252991094
1886+253946300+254566913+255061178+255590067+256112631+256592279+256905714
1873+256616440+255567540+255032377+256290707+258211299+259493240+260186639
1859+260682272+261213079+261843921+262476665+262905686+262980074+262571794
1846+261904325+262487995+264590401+266138805+266757749+267441537+268067306
1832+267645810+266912064+267544725+268930404+270476740+272284899+273623223
1819+274381582+275079602+275661654+275827265+276081397+277071812+278352635
1805+279139777+279194241+279122357+279873089+281052042+281314318+280826010
1792+281800089+284552058+286634874+287537836+288114648+288660957+289482890
1778+290549978+290712770+289478952+288725166+290659974+293835442+296229891
1765+297057565+297047453+297876394+299254848+300510692+301610585+301520446
1751+300421253+300507154+302439827+304612382+305934237+306532707+307421719
1738+308262942+307780007+307977439+310909087+314083987+316724092+318553043
1724+319453034+319617428+318261733+316074261+316840796+320979363+324827454
1711+326989063+327290584+326655671+326772208+326734163+325684529+326320744
1697+329185646+333688942+338367878+340617490+341242658+340643754+338592542
1684+339472376+344918080+349225246+350836273+351277693+352500397+353529441
1670+354425628+357943598+361887770+363616002+365295844+368576202+371072871
1657+370471831+367283849+368257961+374162571+376262374+377826446+383603440
1643+389376028+392207592+392511282+391344376+393092566+399500601+404575002
1630+407096133+409092815+411205766+413898032+418442243+422562955+424839199
1616+428923435+435393844+440553245+444539165+449078937+454540760+459902232
1603+464890665+470152986+475715928+481260515+487023826+493149663+499351990
1589+505511233+511724774+518280149+525409667+532689494+538526692+542974456
1576+549681243+557771523+563251434+568514156+576741899+585718054+593165412
1562+597521068+599095052+606783827+621796482+634349110+644569996+654165213
1549+663926425+672361344+678928133+684047487+690062294+703264352+717145209
1535+726276814+735108133+745400236+753841029+760963405+767793770+772523332
1522+777878563+788103254+799743609+810245626+819702280+827356347+832655045
1508+835672127+842285170+856005171+867707466+874535896+878508568+884528113
1495+892817728+898111153+900018262+902905324+910075423+917923585+922536210
1481+924629004+927646619+933091289+937437333+937105743+936621040+939593201
1468+941775701+943165335+947028345+950388296+949024960+943239890+941911795
1454+947576056+951733612+952059328+949482564+947313080+946244824+944165512
1441+940724332+934384610+925165301+918941983+916283123+914548817+915562275
1427+917494748+916781375+914877603+914171439+915511015+919014001+925101426
1414+932682875+938425295+941703950+944611570+947386433+949533024+951332940
1400+953254533+957225670+963168325+969204423+975648468+979360033+977021216
1387+972156428+970115361+970687834+971769039+974096309+979128093+985077556
1373+989418194+992211212+992671553+990437726+988897382+989196066+988960656
1360+988005466+987509416+986721623+985805079+985883638+985148306+982384122
1346+979467826+977438239+974947978+971258172+968983297+969011463+968690819
1333+967648660+966910125+965695096+963438977+962259990+964784960+970302982
1319+974379509+973713059+970154808+967327616+967620828+971755557+977542629
1306+982458610+986621839+989123114+989512972+991487294+995544332+997692658
1292+997769682+999103918+1002500245+1006264405+1011321485+1019235725+1026310312
1279+1030234526+1034489263+1038998699+1040538110+1039928860+1039456371
1267+1040188832+1042076252+1043709706+1044558171+1045721939+1047888821
1256+1050842694+1053893348+1056809711+1059907287+1061152084+1058794112
1244+1056282558+1057476028+1062144919+1067585850+1071477360+1072904438
1233+1072091149+1070764322+1069760942+1068302026+1066437367+1064854906
1221+1063176932+1060733793+1059177496+1060096844+1062430588+1064471655
1209+1065569279+1066508784+1067443350+1066904449+1064164427+1060950447
1198+1059887064+1060792528+1061527526+1062102736+1062729940+1061018394
1186+1057096248+1054781726+1054659983+1053581982+1051498933+1051413499
1175+1052737923+1053041213+1051350692+1047698463+1044965783+1044082745
1163+1041749868+1038643815+1039021793+1042205137+1043248697+1039959496
1151+1034854559+1031941200+1031373332+1029485512+1025830614+1024105452
1140+1025622703+1027040303+1026116884+1024346669+1022826949+1021506596
1128+1020033330+1018447732+1018540308+1019637531+1018102726+1014408382
1117+1010981552+1007588028+1004735140+1005052179+1009210269+1013454927
1105+1013704888+1009570559+1005893769+1007914011+1012315521+1014074923
1094+1015825048+1018336001+1017941070+1017629837+1020148065+1021012682
1082+1022401048+1028420193+1032485640+1029526827+1025656876+1027582808
1070+1032926625+1037146388+1040891926+1043118544+1039722751+1032938439
1059+1030148959+1031071110+1030802594+1031632303+1036782226+1044168446
1047+1049619389+1049380441+1044629187+1039579049+1036433750+1036900966
1036+1039901695+1039648530+1035470016+1035312631+1040410493+1040138306
1024+1033019668+1030383034+1034808305+1038669779+1035537963+1027367889
1013+1023177828+1025288310+1027942431+1029067687+1029239423+1027369691
1001+1025416260+1027819420+1034567355+1040980563+1042924249+1041063528
989+1040022770+1039634514+1038445315+1040489853+1044045501+1043853809
978+1043240755+1044910118+1045535987+1045790620+1048883056+1052319297
966+1054069689+1056131247+1057246959+1055518526+1054323788+1056774804
955+1061090145+1063959920+1063092099+1060067743+1060068210+1063791522
943+1066346994+1064851635+1062353497+1060307558+1057186821+1057300755
932+1061827212+1064970441+1066125400+1065426044+1063041640+1063932955
920+1066325769+1064061439+1061057907+1063599830+1069671503+1073741823
908+1071899390+1067022388+1067017782+1070762186+1070045543+1065623142
897+1063556712+1062887792+1060629003+1059522301+1060440781+1058507908
885+1054394538+1052902316+1051952733+1049657300+1050093079+1054737675
874+1060039242+1062476909+1062022975+1058936079+1052687731+1048133375
862+1048606932+1047383893+1042533456+1039515374+1035753416+1029747020
851+1026655518+1027648485+1030124931+1031774270+1034121831+1036957499
839+1035146970+1030009996+1026365777+1024774973+1023872645+1022150019
827+1021426235+1025048227+1030135810+1031809846+1030977600+1028188921
816+1024776975+1025204077+1027554842+1027611241+1026164607+1024906461
804+1025539472+1027268906+1027451854+1026481046+1023844879+1018522887
793+1011929333+1005394715+1001848145+1002831568+1004422172+1003085133
781+1000084270+998297102+996533962+992423462+988544433+987372655+988599365
768+990762175+991353537+991142021+991876619+989737770+982562732+975788833
754+973436267+973058022+972350523+971279330+968751290+965578893+961256544
741+953561294+946911274+945303183+945832539+943499862+937902013+934596659
727+933901041+931564426+929495193+928117306+924178274+920405571+919046439
714+917188454+914053901+913106454+917311866+923727611+926880518+926644174
700+926323663+927884432+930191479+930465801+928945613+928210482+926815575
687+920921444+915117819+917623766+924365828+923853959+917909102+916384642
673+920163219+924858541+929282143+933426950+935710102+937002822+936162567
660+933693597+934677487+936517718+935232807+932741144+929985303+928639253
646+930100905+936403117+942402839+937168083+929766379+934440275+946306162
633+950440691+941993157+930258491+929768047+941265368+939572644+918791806
619+906445020+907970280+908782636+905851188+902566326+901284818+913361954
606+937221879+945095472+933245603+926892933
##END=
