##TITLE=Sample description
##JCAMP-DX=4.24
##DATA TYPE=INFRARED SPECTRUM
##DATE=12/9/2023
##SAMPLING PROCEDURE=Instrument type and / or accessory
##ORIGIN=Default
##XUNITS=1/CM
##YUNITS=ABSORBANCE
##RESOLUTION=4
##FIRSTX=4397.6552
##LASTX=599.8556
##DELTAX=-1.9287962
##MAXY=1.6837007
##MINY=0.11583069
##XFACTOR=1
##YFACTOR=1.5680685e-009
##NPOINTS=1970
##FIRSTY=0.13521746
##XYDATA=(X++(Y..Y))
4398+86231859+85748562+84634958+83309667+82696276+83840213+85590016+86019356
4382+85427669+84830812+84375187+84350917+85054424+86065483+86947777+87753336
4367+88398620+88535109+87995270+87262275+87025454+86997154+86924343+87104755
4351+87036306+86797375+87403516+88353994+88447170+87969688+87881863+88133660
4336+88235351+88317674+88300692+87842369+87293492+87209886+87262769+86643524
4321+86036005+86880069+88472390+89193450+88974095+88438950+88102462+88266796
4305+88748515+89337504+89773638+89778342+89582497+89763936+90676611+91689827
4290+91942100+91778631+91798730+91969278+92089594+92023036+91799680+91346203
4274+90610823+89951295+89901956+90621219+91199193+90908671+90658974+91233755
4259+92220030+93070253+93343023+92921096+92543347+93014442+93964008+94101220
4243+93265366+92670486+92470650+92318186+92705304+93516394+94011570+93822947
4228+93428625+93738685+94638370+95276450+95478301+95611721+95494817+94932123
4212+94549528+95070580+96237932+96727321+96272000+95766637+95534795+96030133
4197+97068198+97414578+97292609+97821938+98674907+98850682+98268203+97586923
4182+97406111+97705670+97988020+97986119+97806990+97467832+96727178+96076412
4166+96509173+97420071+97683738+97621285+97583777+97721018+98395703+98973421
4151+98695633+98204163+98433762+99044037+99401506+99730638+99931377+99574601
4135+98937405+98515049+98622080+99119822+99266252+98798606+98500349+99054205
4120+99936309+100143881+99735770+99591459+99976003+100156462+99517090+98615884
4104+98417369+98962255+99581405+100060920+100450453+100688376+101233214
4091+101955233+102053151+101775715+101570947+101323264+101157353+101333185
4077+101791594+102514449+103375049+103521345+102871738+102583782+102938952
4064+103210972+103109339+103150591+103507091+103449532+102880329+102606969
4050+102812364+102882971+102793948+103380608+104671384+105507732+105281981
4037+104604873+104292608+104513493+104740650+104494668+104150255+104380672
4023+104781151+104426856+103913111+104198397+104597290+104535378+104326629
4010+104171390+104579396+105549782+106010434+105769536+105452872+105116793
3996+104837266+104644405+104445899+104782719+105784513+106707708+107101288
3983+107039253+106801178+106524958+105980899+105127579+104615687+105037957
3969+105934601+106443385+106136575+105390381+105311383+105791716+106170966
3956+106546928+106092919+104419833+103309260+104103378+104381688+102759756
3942+102969048+105358527+106230483+104859968+102080120+100503631+102595062
3929+104728553+103152121+101401786+102627961+102853217+100976494+101944666
3915+106495233+109446266+109087133+106699896+100590212+91439065+86336410
3902+88581787+95259592+103087178+106009778+101349872+97269593+100145705
3888+100514122+97067277+97690618+97791995+97948659+102481921+102142107+96366316
3873+91243695+88556519+92093053+95857884+95244596+97982356+103766681+103900548
3858+93984895+77015318+73868388+93785050+108061763+109967489+104915902+97910077
3842+91471308+86278195+87438059+94949751+99940738+102448841+105560150+106606720
3827+105164963+100246350+91127066+89539041+95493325+98913933+106376827
3813+114505730+113993791+106602112+101284093+100442337+95987987+95056439
3800+102988491+107889865+111633030+117069416+119392965+118944476+117642478
3786+116421919+116584228+115467972+113171593+115824178+121315045+122295229
3773+117766262+113485036+114415909+117224646+119849891+120207627+116068887
3759+114039956+116380173+113734059+102901967+95748610+102170559+105681492
3746+103395670+112017031+123390644+122452796+113170395+107221462+113749814
3732+128102798+138292951+139841521+138570568+140900018+146512559+153963518
3719+161465659+164910167+161395052+155796471+160831589+175974974+189070375
3705+195099628+197998556+206589442+219440182+229150183+234383741+234693877
3692+231530939+235314509+252413435+269354935+277706291+279845997+278206561
3678+273273351+273654379+287423933+298620279+306495294+323190328+339779044
3665+349621097+357024636+362999437+365595243+369298096+376685974+377276483
3651+370222764+374465114+396786269+417940319+429991677+437494274+444894088
3638+451396109+455615310+457435111+455136251+454243399+468989468+488656926
3624+497472669+496730950+494741922+500692358+509949110+515454506+521031251
3611+528209153+535447076+544477052+553369920+559058456+562407346+564781811
3597+566988569+570982704+576795271+579812169+578487278+580137889+588607803
3584+597288985+603354633+607816386+610703930+612849452+616096623+618192653
3570+613719725+606467396+609382384+619960758+626457077+628744381+630652787
3557+632155610+632570240+633024249+635170835+637863266+639222557+641047338
3543+643920780+645051394+644000148+644048270+648271273+653465165+654927696
3530+654181758+653659252+653723719+655306518+657618226+658293310+657465496
3516+656267905+655250185+655727002+657759629+659981325+660694649+658855045
3503+657614805+659671304+661347079+659800011+658277118+660341218+664996412
3489+668236817+667497493+664809927+663359028+663296157+662943182+662421588
3476+663604810+666175072+667436978+666543708+665687689+666330616+666796485
3462+666689140+668048964+669868575+669162853+666169903+663811441+662931627
3449+662343665+662586938+663382823+662849674+661424698+660302143+660138921
3435+661577201+662601611+661560171+661315149+662030602+661055151+660548229
3422+662109970+663768108+665049172+665386030+663674523+660820163+658117545
3408+656895855+657421555+657636396+657423759+657719337+656833745+654218553
3395+652163271+652378112+654049402+655259384+655093426+654280436+654814573
3381+656845376+657678664+656070854+653585509+651540186+650458835+650823821
3368+652007576+652149663+650951844+650411853+650687436+649898317+648606306
3354+649116344+650884260+651745904+651544976+650123953+647916397+646807297
3341+646439726+645953179+645813981+646351083+647073226+646433872+645395778
3327+646224125+646903238+645957588+645288434+644703969+643352736+641821480
3314+640738684+640293113+639936337+639848379+639124336+636510893+634651370
3300+635363857+635990097+635597210+636658377+638345328+638063434+637307652
3287+637894435+638288615+636702509+634447590+633784023+634588993+635776700
3273+637156366+637349844+634957058+632567047+631793550+631169249+631323804
3260+632471942+632454837+630532405+628115899+626647211+626576243+627653717
3246+628912962+628944702+626548723+623237198+623342756+627302453+629737166
3233+627735898+624319766+621622507+619107400+616961803+615582289+614926286
3219+614653972+614527622+615020137+615371857+614472885+613164035+611737501
3206+609574266+607814486+607601241+607901836+607473674+606426837+605781364
3192+606032354+605968153+604984757+603725588+601554180+598454418+596444446
3179+596130052+595706908+594479593+593986051+594552727+595053985+594841424
3165+593260830+590933727+589516620+588474915+586706164+585361849+585281264
3152+585165101+584228688+582979059+581410781+579343449+577336479+576186137
3138+575805528+575064303+573750702+572791519+571864077+570079322+568157461
3125+566343361+563752763+561616174+561202229+560781062+558817197+556246897
3111+554680405+554036946+552948525+551011040+549072263+547904588+546814532
3098+544927869+542949065+541789829+541094978+539228233+536190277+534419663
3084+534104244+533311210+531728335+530007288+528649783+527886018+527078349
3071+525810855+524532871+523278529+521783232+520042799+518104250+516228040
3057+514645089+513825789+513991025+513940128+513082664+512206765+511007312
3044+508998366+507287696+506658454+506350598+505238230+503365631+502198830
3030+501960802+501144238+499555205+497770375+495922484+494537724+493604352
3017+492388060+491050283+490656559+491170095+491068794+490201866+490178033
3003+490977567+490999195+490276787+490169442+491323243+494049429+498728189
2990+504734577+510259854+513869617+515399124+515377723+514727498+514393529
2976+514111446+512583383+509592296+506029971+502094222+497298158+492126236
2963+488180110+485638698+482897537+479812219+478042897+478012564+478586006
2949+478996416+479073541+478648953+477790235+477085501+476815848+476542773
2936+476332075+476173605+475052988+473123068+471560757+469901479+466887508
2922+462539828+458073818+454410231+451344147+448468538+445529983+442780078
2909+441140908+440586168+439904090+438342957+436322151+434603613+433521958
2895+432696690+431665818+430933184+430695536+430393763+430096171+429822906
2882+429042834+427638499+425976370+424298618+422676857+421071289+419259698
2868+417081715+414666350+412498668+410726191+408892592+406819292+404670958
2855+402409919+399579051+396042004+392771114+390584882+388931153+387048671
2841+385136274+383617449+382326882+380923383+379451235+378311612+377717607
2828+377048984+375566954+373685308+372241935+371422559+370782521+369615150
2814+367784858+365879303+364577941+363918593+363123393+361948609+360984371
2801+360139185+358858350+357384643+356113881+354827457+353327029+351762133
2787+350374105+349188868+347887925+346336295+344924053+343752805+342239529
2774+340473856+339258932+338340270+337086157+335856484+334984386+334281554
2760+333570054+332757520+331869762+330964746+330152212+329440218+328658854
2747+327975863+327490570+326876114+326103264+325319315+324567181+324039011
2733+323684098+323180521+322532083+321923633+321389951+320919825+320472733
2720+319974669+319329880+318569934+318062291+317862768+317473911+316791585
2706+315995434+315024905+313990802+313141663+312427218+311586936+310663484
2693+309922013+309317573+308705359+308009540+307092170+305997629+305065206
2679+304397971+303596537+302652255+301933989+301296232+300547235+299715847
2666+298870642+298297562+297944587+297458458+296884997+296275977+295584851
2652+295160909+295229672+295422694+295360013+295050904+294688901+294411018
2639+294294722+294402427+294570590+294588532+294540048+294412976+294144443
2625+293953264+293890488+293853104+293782631+293550190+293280537+293194973
2612+293160097+292987297+292742218+292452285+292094863+291905357+291834028
2598+291511975+291064447+290742147+290476960+290147248+289679270+289165981
2585+288684946+288135432+287491080+286821622+286207432+285743482+285360459
2571+284797452+284037583+283407371+283039097+282687129+282121024+281511205
2558+281246949+281276674+281245201+281174974+281224351+281333710+281426249
2544+281407092+281320900+281446243+281737088+281907798+282101885+282503533
2531+282814354+282843299+282829938+282925423+283061352+283134505+283031627
2517+282811997+282585353+282279037+281950276+281781714+281727433+281581051
2504+281216958+280811147+280629452+280577034+280377208+279929318+279463924
2490+279233289+279040286+278731176+278486059+278357884+278276388+278093362
2477+277649426+277097936+276676769+276352321+276045625+275838862+275820236
2463+275855929+275638712+275125804+274600599+274232306+273918216+273544620
2450+273196511+272928929+272642816+272347961+272118163+271869947+271530315
2436+271138131+270770218+270562751+270448925+270164751+269675125+269203630
2423+268987136+269004222+269058407+268996221+268780239+268618462+268622282
2409+268643797+268633800+268573438+268438421+268364982+268399915+268418522
2396+268373820+268256764+268058838+267770254+267257517+266264353+264342871
2382+260967696+256169941+250686040+245023389+239144530+233196698+227396789
2369+221685351+216207930+211716719+209079062+208586509+210286346+214103233
2355+219734752+227234650+234708587+237761234+234633837+228521815+224484138
2342+223510017+223981094+225052562+226334538+227284293+227732677+228634481
2328+230337986+232068479+233717342+235880976+238773347+241901219+244420451
2315+246092387+247589774+249363315+251163027+252749209+254120816+255334448
2301+256451568+257435040+258161383+258671915+259139020+259603387+260102687
2288+260638383+261020000+261137113+260947265+260441142+259896931+259619599
2274+259517918+259291864+258919807+258657452+258578635+258499438+258376205
2261+258351402+258400513+258367462+258237558+258128161+258134603+258186926
2247+258134641+258019961+257978034+257976362+257977540+258018269+258065175
2234+258131867+258252819+258338744+258346404+258338972+258374703+258454451
2220+258501015+258537221+258666365+258774736+258771885+258807426+258880123
2207+258905591+259026087+259257710+259379860+259365435+259403142+259588392
2193+259830221+259997756+260093831+260178197+260200301+260186902+260290635
2180+260394559+260280239+260041546+259818608+259645903+259618402+259717840
2166+259760280+259779799+259904058+260023908+260147845+260380646+260582297
2153+260712107+260927898+261174118+261297674+261375959+261501188+261664523
2139+261917129+262284586+262741275+263227100+263550711+263587905+263558750
2126+263740369+264041915+264224807+264265669+264307064+264447326+264647305
2112+264848139+265017461+265076151+265027686+265012900+265104564+265284454
2099+265537820+265830337+266103184+266314699+266496774+266690138+266931473
2085+267268598+267588502+267769247+267945202+268232265+268520449+268747359
2072+268959216+269043165+268871562+268740346+268999033+269422272+269791098
2058+270204245+270551860+270694518+270665876+270587344+270644875+270874065
2045+271089362+271168673+271329937+271665864+271934719+272133367+272390230
2031+272642569+272877043+273194762+273499368+273560471+273278388+272745352
2018+272533704+273144777+274079195+274703401+275060215+275307822+275465893
2004+275598534+275763732+275935525+276151202+276188986+275502232+274755287
1991+275263501+276554276+277593948+278308945+278842322+279206187+279466566
1977+279849456+280398551+280920202+281041288+280467390+280158147+281182976
1964+282546087+283157730+283361985+283436488+283427346+283553088+283757020
1950+283715511+283119434+281656637+279603465+278983136+280682877+282357018
1937+282722214+282576630+282551504+282673540+282719971+282068834+280334977
1923+278964187+278531046+277908436+278524451+280842355+281988592+281321243
1910+280863660+281776734+283204047+284066034+284372293+284410058+283998564
1896+283469615+283438845+282836286+281799598+282755094+284913501+286131504
1883+286711901+287206412+287596638+287834305+287791808+286222408+282004575
1869+278772571+281311169+286347067+289157353+289893522+290144607+290583316
1856+291130112+291518437+291437435+290336299+287506532+283514887+283199771
1842+288317184+292544349+293648697+294155771+294134617+291235290+287586869
1828+287880736+290136073+292654506+296524401+299534988+300555350+301077723
1815+301165131+299812852+298612601+299995726+302513874+303146081+301043817
1801+298546442+298968807+301069950+300343398+296494467+296459306+303056241
1788+308518324+309701679+309542601+309574625+310485172+312279866+311394578
1774+305864246+301273730+304655841+312284466+318684482+321110985+320076083
1761+320702209+323346860+325578439+327598751+326449815+321920630+320998889
1747+326020513+331717792+334820785+335943455+338217341+340532660+338059707
1734+337027391+346403993+357945085+367243574+373869208+377891927+379849216
1720+376873371+370524309+372900788+386758187+400813360+409831248+412950358
1707+412777520+414297904+415112719+412847157+416372762+427558142+443664492
1693+461038450+471534719+476626170+477877889+474655274+479758318+499442463
1680+516862491+526038392+531123914+538193788+544567824+549849104+562492150
1666+576789950+583442800+587943248+596884695+604267176+602252566+590793123
1653+588523722+604150100+611631069+614497403+627939602+643513448+651129814
1639+650822453+645087201+645964354+661889959+677548647+686387007+693054605
1626+700551387+710645647+726063190+740288084+749040918+761487785+779886799
1612+794298482+803076023+808508019+812044154+814103389+814886654+815254682
1599+814807971+811988353+806595965+800223716+793656240+786144253+777769482
1585+769107952+760328511+751048989+739062593+722590839+709723487+706908203
1572+702172502+693139371+689965638+691663460+691134416+683464302+665522947
1558+658389784+678294205+697887692+711036937+721519066+731778600+739810963
1545+743137959+743843984+750316964+778253825+810998457+830247865+846300124
1531+866401065+880795946+887229470+891318064+891528191+887599246+886792946
1518+887581076+887389194+886447801+880098359+865791512+847219622+843005286
1504+859988524+872635408+874572551+871846821+874685749+884403619+889303530
1491+887644784+890795101+904162152+919011879+929198583+935336909+938216281
1477+936854785+932180814+928930982+935589305+949192788+956852258+956764984
1464+957654149+959725320+953133136+938455677+935921526+947703725+955884485
1450+957019433+954723462+953553620+952935477+949961456+944250151+934557445
1437+923891872+921179827+921256991+916368103+911181433+908160050+905163299
1423+905195077+906338311+905890611+912472608+924912938+933846250+939061809
1410+943139227+945748261+946706455+948351213+951018252+951779471+950668698
1396+949966778+951677980+955808538+958471472+958708436+959440310+961167172
1383+961423750+960438492+960910519+962064472+962288816+963669698+965954342
1369+967148815+967653532+965496151+959872653+957387840+960976583+965136410
1356+966954348+967322072+966615134+965343269+964639448+964074216+961843397
1342+956606476+949976813+946461205+947141763+948648691+948753755+946777308
1329+943416027+941713491+943349431+946183341+946948968+946299960+948499610
1315+952848582+955335447+956142963+957020725+958870821+961864379+965113071
1302+968254874+971078369+972295421+971954154+971611442+971338596+971752085
1288+974043722+977652383+982227524+987223908+991333028+994259078+996754381
1275+999169328+1001086173+1002910877+1004883826+1005908617+1005589396
1263+1004842394+1004447834+1004445858+1005092814+1006083545+1006102855
1252+1005532683+1005911049+1006563479+1005795570+1004318899+1003797229
1240+1004095544+1004586956+1005620641+1007417521+1009026396+1010028076
1229+1011595518+1013826946+1014954367+1014622222+1014880320+1016309021
1217+1016817995+1015732995+1015060723+1016265004+1019027604+1022073010
1205+1023313097+1022785878+1023350425+1025411941+1027205552+1028560358
1194+1029831691+1030604769+1031267537+1033087072+1035606931+1037100631
1182+1037173461+1037016093+1037530845+1038031685+1038797389+1040939109
1171+1042536885+1041735298+1041165734+1043092993+1046201878+1049357441
1159+1051734681+1051993539+1051014211+1050749347+1051602097+1053158136
1148+1055509452+1058923721+1061742351+1061847338+1060307796+1058702798
1136+1057340694+1056601294+1055713193+1054550725+1054566386+1055789673
1124+1056854831+1056386225+1055383330+1056691458+1059822237+1061741058
1113+1060850829+1057641441+1053683379+1048694901+1041864233+1035649656
1101+1034319329+1039116913+1045442560+1048823532+1050316168+1052592601
1090+1055986572+1058462338+1059291673+1059096978+1057594839+1055585855
1078+1055319926+1057173443+1057620307+1054834519+1051538694+1049482423
1067+1049315553+1051939487+1056635124+1061313733+1063129771+1059956114
1055+1054991811+1053515064+1054817262+1055376944+1054711286+1054618690
1043+1056334529+1058767038+1059348614+1057902504+1058003007+1058076673
1032+1052428011+1044392074+1041279768+1043294226+1044194871+1040562035
1020+1036745147+1036139700+1037364735+1038897283+1040415158+1039991254
1009+1035281172+1030019011+1028775959+1029161852+1030170601+1034632088
997+1040445720+1043316501+1041346288+1035934590+1032945973+1034786795
986+1039406409+1046539116+1053315199+1054783660+1052852371+1052376087
974+1052847962+1052126884+1052353888+1055586767+1059275252+1060965395
962+1062483271+1065218883+1067144242+1067703467+1068057126+1068826631
951+1070873247+1071948972+1070020496+1067420890+1065224813+1064589792
939+1066474707+1067723689+1066196311+1064030795+1064117918+1065855956
928+1068486352+1072705781+1073741823+1067891776+1061423586+1060957717
916+1064022965+1064479103+1063220846+1063937743+1065841968+1066678981
905+1064983668+1062206091+1062591071+1066149633+1066768612+1061737485
893+1056589131+1056058718+1057324501+1055106150+1052107802+1052425882
881+1049140928+1040956518+1037872037+1039363760+1039400707+1038429133
870+1036611879+1033578409+1030156005+1026982956+1025251456+1023598640
858+1019630694+1016645879+1017831306+1019118223+1017418805+1014933156
847+1013612637+1013759057+1014875227+1016301647+1017301958+1017617605
835+1017451723+1016112730+1014449726+1015084138+1016378658+1014224546
824+1011153824+1011561612+1011592249+1007223359+1004888692+1008414639
812+1010282297+1008375563+1008919432+1010725359+1008907952+1006685952
800+1007617614+1006195299+999390327+991735570+986148867+985014223+988333160
787+989695264+985557104+980628228+979692384+980869525+978793108+973360047
773+969711703+968960063+967746584+966380755+966657174+966237527+964138684
760+960808572+956079104+956172080+962505177+961845982+951233473+941657082
746+935253132+930420349+927967922+926157206+923795323+920390709+915707159
733+911928283+909377255+906599982+903426401+898577197+891305216+885058253
719+882865293+881933707+878725460+874800239+872684063+872761454+875305184
706+879546812+882438500+882924743+883053450+882333208+879520888+877242023
692+877127912+876864036+875452365+874890023+874850871+874006255+874776824
679+878342076+881584229+882352974+880727298+874233564+862958819+862682627
665+876982556+886361135+884301216+876624108+872657759+873826613+875287547
652+874443387+872839758+874409481+879205241+882039151+880519299+876628441
638+872790495+870652044+870728599+870818002+866650572+860266692+860566983
625+866604578+866079031+859314123+857449735+860114646+859179943+852984903
611+845409970+839648794+836931352+838599981+846261200+855297828+856079648
##END=
