##TITLE=Sample description
##JCAMP-DX=4.24
##DATA TYPE=INFRARED SPECTRUM
##DATE=12/9/2023
##SAMPLING PROCEDURE=Instrument type and / or accessory
##ORIGIN=Default
##XUNITS=1/CM
##YUNITS=ABSORBANCE
##RESOLUTION=4
##FIRSTX=4397.6552
##LASTX=599.8556
##DELTAX=-1.9287962
##MAXY=1.8393275
##MINY=0.21370827
##XFACTOR=1
##YFACTOR=1.7130072e-009
##NPOINTS=1970
##FIRSTY=0.22640972
##XYDATA=(X++(Y..Y))
4398+132170910+131468227+131767337+132718632+133475265+133660837+132806473
4384+131445993+130860544+131442061+132873071+134232759+134603860+134239458
4371+134124546+134493820+134578651+134343113+134312084+134234578+134218311
4357+134487914+134638142+134768477+134792651+134780716+135751358+137017569
4344+136885686+135971177+135756186+136050554+135992881+135673486+135512871
4330+135643527+135985383+135897681+135247696+135167066+135906467+136293843
4317+136027067+135508539+134812885+134516481+135490567+137574242+139012045
4303+138243895+136262771+135264563+135738345+136445786+136304134+135662291
4290+135503694+135800976+136568048+138054887+138935235+138300620+137297080
4276+137081270+137335911+137111994+136830953+137337651+137801142+137306196
4263+136774628+137240728+138247279+138991177+138937009+138062264+137200201
4249+137087864+137639431+137960844+137736040+137835546+138333580+138427902
4236+138040769+137790129+137851421+137721730+137634568+138070440+138391845
4222+138227132+138190380+138786259+139664432+140021397+139950763+140254439
4209+140811729+140693756+139715346+138724297+138811442+139996979+140906973
4195+140812208+140364609+140383460+140746749+140474676+139548459+138996701
4182+139272323+139978634+140643703+140817949+140146043+139322168+139197052
4168+139821533+140800064+141268905+141007001+140466020+140006348+140129315
4155+140476668+140221148+139775768+139851839+140104627+140178063+140461158
4141+140986202+141363401+141343211+140737876+140005722+139971414+140385139
4128+140197766+139499624+139503051+140176332+140451876+140483827+140844994
4114+141170391+141301517+141411331+141186484+140552739+140007192+139849265
4101+139948501+140157229+140547137+140953920+141027921+141024999+141331363
4087+141814853+142324065+142618616+142392159+141841297+141371160+141247141
4074+141354397+141261546+141186162+141656595+142172870+141954304+141470570
4060+141563395+142056089+142413602+142301152+141821124+141770201+142209919
4047+142407582+142501121+142749690+142607238+141997319+141552539+141451929
4033+141573190+141744488+141607211+141460540+141732910+142047329+142134778
4020+142295802+142609221+142607394+142422692+142632752+142852301+142973650
4006+143564918+143869116+143200994+142642851+142483123+141997928+141858007
3993+142628402+143234545+143149984+143264217+143620991+143146348+142111796
3979+141610995+141540126+141545197+141859565+142465917+142884400+142983454
3966+142993892+143005470+143195862+143356903+143166599+142709841+141892411
3952+141147243+141317245+142286399+142392768+140904363+140377649+142060664
3939+143677707+143595242+141979722+140961227+142216721+143243723+141866419
3925+140559524+141181386+141107455+139825969+140718895+144004366+145899241
3912+145235024+143340280+139818993+134690318+131459059+132275409+136090873
3898+141150618+143117033+139992386+137135168+138779334+139207239+137459687
3885+137812772+137584150+137867192+141267009+141344133+137740198+134598589
3871+132702948+134440018+136674609+136258813+137831040+141513873+141874109
3858+136298027+126611583+124756200+136064151+144090998+145044938+141954617
3844+137783309+133772000+130203191+130477256+134818208+137703463+138971961
3831+140652436+141464681+141183074+138694416+132899542+131611819+135796714
3817+138319949+142529670+147004863+146487995+141778396+138211962+137699122
3804+135402674+135170032+139850865+142552922+144545764+147348571+148528968
3790+148347110+147404417+146374945+146396031+145859801+144794237+146606334
3777+149407480+149072262+145810400+143228726+144268515+146559639+148113163
3763+147621679+144329763+142664607+144026287+142401302+135443663+130520516
3750+134705845+137655715+136655228+141566988+147767907+146567833+140708344
3736+137458278+141741687+150238445+156115306+156885639+155897348+157167638
3723+160832769+165982512+171123609+173729431+172133682+168876666+172153637
3709+183016373+194098180+201798160+208557413+219008764+230133873+237016981
3696+239608676+238088520+233935089+233449085+239990728+245980274+246768875
3682+243780096+238764785+231956870+227809163+231568694+234142539+234250648
3669+239949844+247086000+250849306+252756908+253615448+252937374+253218137
3655+255926866+254769765+248243849+247551092+258588918+270047071+276124179
3642+278599919+280275523+281765041+282379022+281859528+279107356+276319938
3628+281966158+291011829+294340211+292690878+290735520+293043494+296663286
3615+298289202+300011154+302079631+304362414+308473551+312477484+314038194
3601+314411374+315040090+315581262+317074886+320452121+322303754+320181135
3588+319237311+323912272+329317344+331910152+332651223+333168908+333813109
3574+334553344+334809716+332760237+329810533+331075169+335251095+337937712
3561+339314180+340308561+340423734+339854482+340059009+341084392+341199600
3547+340954571+342299863+344085037+344510201+344355292+344837451+345753055
3534+345979260+344891941+343349220+342588247+342527494+342840408+343561541
3520+343932634+343462549+342711004+341750932+340550006+340338868+341205063
3507+340909024+339009234+338137959+339298070+340047213+339469159+339116404
3493+338876455+337581756+335641812+334292553+333701972+333237872+333172318
3480+333458475+332937484+331515886+330397217+330270736+330433230+329940180
3466+328953002+327781304+326404488+325467971+325122071+324590781+324010674
3453+323793551+323264175+322223620+321489543+320889046+320161545+319989517
3439+319876884+319188807+318699863+318638101+318252743+317242530+316123199
3426+315538847+315416471+315270749+315316296+315766512+316099260+316139101
3412+315972048+315603635+315430076+315705551+316176088+316490429+316287746
3399+315727507+315671591+316250550+316906964+317381503+317213754+316333502
3385+315608959+315579488+316179185+317119911+317536551+316801047+315517587
3372+314382389+313557983+313306622+313565325+313902214+314266347+314541856
3358+314475501+314287328+314184230+314119580+313927893+313449492+312916845
3345+312492516+312158863+311983286+311652835+310807308+309647824+308811031
3331+308800697+309158393+309017820+308253192+307167300+306192021+305855133
3318+306118255+306084330+305091550+303865571+303462015+304004961+304683888
3304+304433257+303754365+304002073+304774564+305316293+306043585+306760751
3291+307096561+307825697+308966914+309509338+309583487+309876742+310111228
3277+309732864+308918966+308398672+308496620+308689456+308264779+307404499
3264+306948541+306671292+305635575+304303296+304075874+304724842+304431691
3250+303213263+302469826+301585433+300010040+298897460+298334262+297661634
3237+297217785+297564103+298277546+298372120+297731364+296751980+295695420
3223+295166322+295463300+295969746+295788602+294807930+293954679+293560100
3210+293120705+292857269+292945893+292929400+292651977+292117729+291608343
3196+291306615+290797525+290217939+289979713+289635170+288562482+286938462
3183+285604392+285313033+285607158+285044344+283477145+281999283+281276114
3169+281349289+281276341+280269399+279218841+278861319+278580051+278114837
3156+277906709+277915964+277821426+277286552+276109391+274990600+274577370
3142+274418460+274273050+274110208+273208244+271756478+270820797+270348625
3129+269750876+269069583+268617818+268331905+267887377+267046722+265622062
3115+263892543+262578080+261971980+261665451+261068328+259903920+258242391
3102+256532322+255279569+254377135+253465984+252681071+252204636+251750279
3088+251222068+250783352+250131061+249165299+248466035+248192144+247975229
3075+247735785+247534407+247023108+246028501+245222902+244972636+244873417
3061+244716647+244584686+244598708+244575569+244246788+243950123+243986485
3047+244120882+244220066+244197483+243755270+243057867+242601143+242349312
3034+242110721+241964198+241856541+241662452+241208217+240397086+239812594
3020+239733539+239595575+239362934+239206720+238884220+238492581+238228989
3007+237885368+237400355+237133145+236999531+236673916+236640321+237274240
2993+238095479+238826512+239707581+240869154+242162931+243254478+243842136
2980+243933717+243732357+243345833+242756731+241997862+241222379+240663461
2966+240383376+240157850+239904419+239598028+239018443+238203084+237555699
2953+237392422+237646132+237977471+238056822+237826946+237471616+237161433
2939+237147637+237380714+237179162+236366760+235503871+234756502+234030846
2926+233393900+232886914+232620156+232452008+231937089+231114806+230366010
2912+229885174+229776351+229812225+229688006+229596216+229593780+229322046
2899+228720174+228219539+228178098+228334503+228309450+228246436+228277891
2885+228126044+227772489+227691555+227922787+227995440+227828927+227627114
2872+227445673+227339652+227268496+227056627+226804169+226616536+226251585
2858+225756134+225436174+225157411+224529512+223506616+222566708+222088637
2845+221835727+221627321+221679374+221916592+221998326+221948586+222002571
2831+222133210+222097319+221911094+221857474+221895158+221774783+221487252
2818+221170806+220986321+220942392+220896741+220811997+220739796+220759282
2804+220854343+220922263+220981850+221029711+221023709+220989296+220997177
2791+221120527+221106069+220682053+220244798+220255758+220408214+220268755
2777+220036792+219898237+219677652+219427630+219253392+218948185+218459902
2764+218120543+218138602+218372566+218595656+218619908+218382378+218085330
2750+218033781+218117133+217969601+217724416+217657313+217668865+217627702
2737+217470480+217311448+217390207+217533911+217471193+217346156+217325574
2723+217394434+217491235+217590123+217695049+217689829+217616724+217672275
2710+217732819+217581929+217305532+217206592+217368251+217433736+217173919
2696+216867320+216820294+216980005+217170753+217287421+217192517+216828958
2683+216440277+216241213+216051665+215766204+215587652+215478117+215185853
2669+214844459+214777217+214848721+214719961+214356402+213926941+213584242
2656+213337386+213126753+212950636+212802008+212660147+212500698+212308175
2642+212132929+211966189+211777320+211703224+211748075+211636295+211222196
2629+210719455+210465328+210477645+210468529+210336115+210249179+210174613
2615+209917963+209638156+209581683+209688540+209782174+209689810+209333418
2602+208884072+208594557+208503445+208505359+208469433+208322475+208141748
2588+207953592+207736556+207566825+207524983+207533613+207320805+206817995
2575+206382723+206236895+206141504+205953714+205791150+205601254+205305807
2561+205027114+204811418+204505027+204159806+204094373+204233015+204183780
2548+203928399+203666008+203441265+203283468+203257093+203291314+203212799
2534+203099070+203172488+203264539+203126210+202845708+202681613+202816080
2521+203011542+202996389+202926659+202950181+203027218+203071843+203058464
2507+203041032+202989813+202855746+202732327+202764478+202907922+202962029
2494+202887915+202850110+202899519+202907035+202877946+202953034+203146792
2480+203353320+203422493+203317846+203241070+203282111+203283590+203208902
2467+203197106+203330442+203490344+203520772+203472128+203465674+203547338
2453+203634118+203651046+203741983+203955000+204134736+204286113+204510108
2440+204750387+204941187+205105334+205210555+205224316+205230127+205381591
2426+205681979+205939152+206087067+206164173+206213043+206341803+206496068
2413+206566546+206638433+206786418+206990405+207202239+207356713+207418110
2399+207453984+207684590+208149908+208501340+208545322+208434394+208193645
2386+207625681+206387681+204037083+200540935+196396133+191964479+187335517
2372+182570001+177705771+173042258+168937871+165532504+163246538+162588698
2359+163719302+166805439+171934566+178892153+185804018+189026257+186890172
2345+181871363+178481724+177700047+178132849+179269578+180648325+181664088
2332+182413857+183773450+185863849+187827332+189353194+191022395+193405962
2318+196347454+199098425+201096529+202573087+204121426+205923998+207739375
2305+209281678+210489667+211459691+212251963+212915963+213534293+214151336
2291+214729617+215296363+215947419+216574413+216952081+217080354+217096900
2278+217083816+217142012+217321260+217533755+217662237+217682157+217767597
2264+218060695+218382448+218506667+218494732+218583252+218880438+219200677
2251+219359570+219461538+219610323+219785221+219967514+220104677+220146797
2237+220095978+220077902+220264109+220623197+220895244+220897976+220782490
2224+220768154+220913929+221119483+221180079+221147737+221254471+221466149
2210+221641395+221784683+221925986+222074162+222207550+222299271+222428240
2197+222636664+222867339+223067499+223178183+223232690+223326411+223446942
2183+223568987+223744947+223964053+224140204+224239423+224280917+224324759
2170+224423177+224590960+224838059+225101669+225262162+225289859+225319662
2156+225508304+225780630+225931520+225975884+226061289+226185509+226299167
2143+226428902+226592040+226742443+226865635+227037263+227230621+227342331
2129+227442524+227637778+227847055+227952920+228003512+228122495+228283910
2116+228375352+228439863+228535028+228604706+228653976+228701593+228734284
2102+228780231+228858416+228951615+229051356+229194939+229362739+229450545
2089+229447379+229488646+229692756+229958888+230082881+230083907+230093615
2075+230089266+230080619+230182587+230297533+230205848+230016387+230029992
2062+230221314+230412166+230597817+230746236+230787817+230767288+230764469
2048+230802083+230838079+230809233+230780492+230885122+231026060+231100940
2035+231206265+231351971+231497015+231642129+231728230+231707892+231626802
2021+231511264+231378868+231421092+231761094+232175176+232426764+232519893
2008+232601923+232788287+232972894+233028879+233054959+233156474+233106925
1994+232543171+232016944+232467422+233477496+234243619+234702239+235011395
1981+235253292+235410341+235549888+235774840+236023905+236025105+235625568
1967+235418657+235956837+236715392+237183441+237503993+237729467+237910455
1954+238222499+238550967+238680006+238554934+238005394+237115364+237140765
1940+238572175+239908664+240460396+240672560+240888865+241254495+241622281
1927+241523724+240739628+240183738+240202910+240151431+240892084+242572020
1913+243498898+243413945+243443451+244196370+245215786+245911345+246324278
1900+246616072+246633800+246587435+246830272+246674580+246255575+247100005
1886+248679139+249655618+250277532+250925386+251562697+252087533+252302968
1873+251476022+249099849+247443105+249358170+252758352+254747948+255502137
1859+256091657+256898543+257711762+258285937+258560020+258323951+257063490
1846+255008165+255151418+258585873+261421222+262366350+263042302+263485647
1832+262129290+260297403+261015178+262971111+264992510+267704806+269816395
1819+270734696+271410700+271878697+271440815+271096359+272401566+274364179
1805+275194918+274521663+273627997+274404124+276118716+276029953+274121430
1792+274719596+279244206+282874003+283899143+284081923+284277698+285004242
1778+286337338+286089335+283054051+280546700+282900830+287971884+292192609
1765+293628368+292870805+293324779+295116843+296704519+298126778+297473008
1751+294552880+293653978+296398946+299615983+301284141+301702172+302698571
1738+303624161+301508640+299976880+304570316+310504972+315083585+317802805
1724+318638693+318177063+314850386+309434807+309358501+316371638+323353564
1711+327115878+327201823+325238844+324397215+323297891+320156256+320170870
1697+324892144+332541339+340661386+344502303+344899978+342827986+337776505
1684+337457989+346457487+354430418+357352808+357533118+358792987+360038068
1670+361180155+367101589+374078852+376761537+378854998+383993224+388145455
1657+386714706+379835704+379658387+390324617+395089941+397837206+407789470
1643+418402775+423845182+424445610+421853184+424290040+436095503+445916240
1630+450271293+452996985+455883988+459377334+465666659+471515093+473898712
1616+478481395+487538932+494845151+499409149+504003281+509844233+515737448
1603+521268965+527098748+532970877+538327548+543823922+549967629+556029706
1589+561712722+567369294+573342503+579807788+586176968+590372171+592092870
1576+597174866+606215179+611596416+615113110+622837881+632300401+639396769
1562+641411836+637703698+642260702+661064932+677835375+691055233+702559403
1549+713009136+720157140+722765467+723125320+726908059+743655189+763054698
1535+774510293+783807535+794822483+802309533+805830889+809038114+811759108
1522+815390279+823183528+833089618+844350847+855302676+861910587+862736837
1508+860283349+867356682+886629814+900730342+906342271+906747706+909095695
1495+916189557+920715386+921601553+926812014+938184866+948207730+953852089
1481+956491453+957517498+957175182+955237082+953681104+957419654+964494727
1468+967265896+965266765+966005540+969733024+966596225+954382230+949189445
1454+956946994+963739181+964366123+961326751+959190249+958014514+956339467
1441+953096543+945136277+932847681+925564393+924340850+921579145+918253059
1427+918651327+920938563+921718744+919285506+917617418+924028249+934026199
1414+939942239+943302911+948097290+952422349+952976290+952452551+954102615
1400+956913938+959649060+962077078+966187380+972346779+976197926+976752355
1387+977506369+979671474+981431421+982964086+986267902+990439097+991996048
1373+991464515+991195129+990755804+991216563+991601052+988878526+986329003
1360+987519908+990460252+992825778+992984375+990946900+989592735+991393463
1346+993244783+989968246+983157548+978226702+975981290+973493146+970067268
1333+967105420+965846455+966250568+967810443+970396223+972978802+974301233
1319+975173204+977557519+980410039+981740752+983124493+986233942+989956833
1306+992053948+992400231+994208683+998485098+1001349658+1000281720+998045773
1292+998337288+1001981194+1007817066+1014205279+1019928554+1025422388
1281+1031214835+1036274354+1040614445+1044306020+1045710151+1045704653
1269+1047156662+1050360059+1052289669+1052055566+1054343776+1058899668
1258+1060005463+1059589033+1061791438+1064597194+1065637713+1065960127
1246+1066595141+1067639836+1069969174+1073135201+1073741823+1071161958
1234+1069434857+1069913154+1069490739+1066809202+1064685574+1065018843
1223+1066312951+1066588043+1064068513+1059949512+1058334661+1059183180
1211+1060022652+1060970616+1061864786+1061515650+1061056560+1061895336
1200+1061694567+1058320186+1054945875+1054414828+1053261711+1048925518
1188+1044402125+1041242083+1039473506+1039721319+1039777617+1038082667
1177+1036657381+1035864813+1035823337+1038077796+1039712689+1036950149
1165+1032232877+1029873406+1030731528+1032191401+1032749170+1033307635
1153+1033037902+1031158119+1029304850+1028169200+1026690329+1025648697
1142+1026932087+1028750630+1028657031+1027897658+1027593477+1027759381
1130+1028679161+1029304850+1027921040+1024872691+1022869663+1023659935
1119+1025381608+1025828936+1025965334+1026052114+1024074626+1019990489
1107+1016357370+1016474213+1020564751+1025774725+1030133118+1031226596
1096+1028677003+1025705970+1024930939+1026812252+1028804285+1030078350
1084+1032495999+1035090060+1036811246+1038390536+1040002674+1041629981
1072+1043948255+1048111794+1052235249+1052030653+1046584140+1040257654
1061+1038971549+1042720119+1046047666+1046524570+1044445898+1041458301
1049+1042108487+1047585480+1052446526+1051596407+1047230846+1045476187
1038+1046174529+1045112089+1042206888+1040045750+1040760933+1039898427
1026+1032401356+1026005001+1028154934+1035135294+1039545880+1038432848
1015+1034827634+1032133850+1031507603+1031549914+1029320787+1025171931
1003+1023204464+1026652681+1032253198+1034330409+1036093001+1042784490
991+1050089908+1051018944+1047075868+1045416966+1047507051+1048815564
980+1047890774+1046683028+1046783378+1047998292+1048254037+1047358197
968+1047433424+1050255465+1055031819+1058781016+1060384175+1060096975
957+1060367195+1064314308+1065940641+1060017711+1054860974+1056676107
945+1062897859+1068808402+1069657060+1066625622+1063910125+1062171959
934+1062026863+1064278329+1067928359+1070253452+1069271180+1066887352
922+1065251485+1064196630+1063077125+1061055586+1058447467+1056959898
910+1057236868+1059121453+1063149290+1068764073+1072672771+1073067002
899+1071477274+1067967539+1063579917+1061852608+1061712591+1060935194
887+1061778981+1063906019+1063846728+1061212513+1056793576+1051864748
876+1049228306+1048842496+1048621406+1049042987+1049385581+1045334918
864+1038118576+1036199683+1040745554+1043384988+1041459902+1039029657
853+1036784245+1033512232+1030926521+1031197577+1033578343+1035446504
841+1034256573+1030959438+1028467744+1027435019+1027727856+1028610057
829+1027894526+1024194948+1020022849+1018056356+1017268451+1017616265
818+1019064586+1019877822+1020534967+1022937236+1024965108+1022646208
806+1019825351+1021452658+1023118798+1018999101+1012739769+1010676755
795+1012041636+1015487696+1018568683+1014606260+1005943825+999683658+995641485
781+992676088+993436505+996790009+997279440+995077105+993515421+990800620
768+984411154+978534641+978434848+981069133+979997645+976412752+977960379
754+983910449+981357516+968890003+960778029+961245887+960895846+954934015
741+949141637+947112930+945740393+942349658+937781171+933749645+930311171
727+926612219+923889833+922492174+919462545+915989484+915079238+913611015
714+910813262+910888837+913934751+916247596+916081692+914797327+914448399
700+915423086+917104257+919505830+920155390+916486153+912706058+912375154
687+912142026+910134475+911636102+918429611+921902950+918477420+914779651
673+913222003+908301874+897921663+898468089+915100394+927799575+930888426
660+928663891+924435145+921464459+922940895+925411224+923485511+920179746
646+922077692+927364981+927121066+921376218+921565018+917438222+884986222
633+857854426+875671930+913743585+930311032+935096225+935817671+927138812
619+918861838+913464387+906987585+903497823+911645009+925461538+925613037
606+917108850+912853938+909569329+908274386
##END=
