##TITLE=Sample description
##JCAMP-DX=4.24
##DATA TYPE=INFRARED SPECTRUM
##DATE=12/9/2023
##SAMPLING PROCEDURE=Instrument type and / or accessory
##ORIGIN=Default
##XUNITS=1/CM
##YUNITS=ABSORBANCE
##RESOLUTION=4
##FIRSTX=4397.6552
##LASTX=599.8556
##DELTAX=-1.9287962
##MAXY=1.7422377
##MINY=0.14989384
##XFACTOR=1
##YFACTOR=1.6225853e-009
##NPOINTS=1970
##FIRSTY=0.15124834
##XYDATA=(X++(Y..Y))
4398+93214413+93519051+93954547+94179333+94354538+94582162+94603404+94209777
4382+93837245+94202605+95419678+96817035+97317376+96601800+95572282+95177544
4367+95571575+96210275+96350362+95970960+96083505+96760914+96525456+95448056
4351+95261565+96256239+97150381+96962458+96281614+96452658+97397870+98038031
4336+98168603+98000773+97534403+97313546+97726000+98101682+98060209+97701893
4321+96737900+95903360+96540995+97881395+98050429+96997980+96383203+96845854
4305+97297438+97460778+97863111+98242421+98398275+98497973+98600774+98588716
4290+98393041+98469503+99130437+100195284+101303587+101758965+101306269
4276+100577872+100010189+99753792+100029731+100184640+99506735+98712308
4263+98521850+98929776+99728363+100148365+99617728+98754277+98493335+99079909
4247+100234746+101163473+101232809+100786165+100311227+100079855+99924993
4234+99557594+99123302+98780074+99194355+100291776+100987451+101138935
4220+100989683+101087139+101781970+102346338+102340911+102280988+102905215
4207+103883415+104241841+103951511+103539131+102990108+102394773+102478959
4193+103151097+103777739+104087400+103776398+103189475+102939011+102924133
4180+102704517+102255696+102115564+102464733+103009752+103520837+103711314
4166+103358894+102967976+103280457+103914225+104067656+103837175+103614822
4153+103548057+103741510+103960492+103938709+104225669+105089018+105768843
4139+105874647+105544331+104960457+104593664+104679742+104839702+104631436
4126+104125861+103914740+104424025+105142182+105294446+105055048+104955902
4112+105233099+105700756+105662846+105144496+105031804+105451348+105852468
4099+106249659+106545490+106309508+106299085+107003053+107432432+107195477
4085+106706947+106339052+106324955+106481104+106692877+107187377+107689839
4072+107571683+107107719+107015570+107249412+107104963+106497414+106557915
4058+107474860+108081042+108039045+107774750+107680003+107808739+107918951
4045+107982446+108034132+108279820+108702899+108715233+108254997+107792576
4031+107652214+108056126+108628935+108759874+108692145+108783274+108929697
4018+109183862+109698878+110306198+110357847+109637614+109087104+109058093
4004+108638972+108000621+108016095+108107683+107975421+108185037+108428567
3991+108606058+109055861+109442013+109464917+109106362+108438596+107915223
3977+108013111+108609622+109090823+109195323+109277985+109503828+109397427
3964+109011101+109252188+109851041+109934740+109683588+109239138+108565889
3950+108190482+108544519+108488949+107811531+108703643+110371705+110469336
3937+109200218+107078230+105951973+107585991+109196260+108417280+107420640
3923+107726316+107490592+106767090+107944876+110785297+112219315+111270108
3910+108917970+104816385+100107920+98887017+101417795+105063580+108856651
3896+109845513+106574831+104441795+106903751+107248154+105188476+105680469
3883+105595475+106142789+109388353+108449864+104113243+101282557+100846107
3869+104055487+106089451+105169503+107052599+110491707+109682632+102764302
3856+92524992+92379634+105667750+113711088+113979093+110367462+106335112
3842+103182413+100567412+101523057+106036315+108759130+110063669+111791121
3829+112198376+110972854+107387322+101868158+102301954+106621227+108307334
3815+112541402+116652134+115110852+109935347+107206093+107446308+104887484
3802+105294776+111250363+113942414+115532617+118292388+119250402+118671009
3788+117687823+117053337+117297511+116520707+115387627+117480677+120579313
3775+120632863+117713252+115450856+116757975+119106026+120996487+120992593
3761+118118607+117109394+118857013+117187767+110745670+107604560+113432238
3748+116581292+115831644+121789270+128185228+126435111+120583418+118383893
3734+124011350+133225331+138867537+139215852+138872578+141512411+145672220
3721+150299391+155136270+158226291+157573889+155764170+160388476+170820541
3707+179908036+185052886+188772057+196235948+206258277+214514363+219797169
3694+221353494+221199981+227123545+240883872+251545563+255906722+257677778
3680+258311886+257241061+260020237+270864846+278265995+283336844+295185753
3667+306928720+313387724+317729175+321823514+324946707+329220237+335271599
3653+336921487+335011703+340655792+355500848+368330767+375839566+380645082
3640+385241947+389656684+393636889+397446721+399534665+401452971+409889753
3626+420159176+425788277+427423030+428838148+435054044+442745265+447697205
3613+451896347+455946863+460079148+465842183+471648307+475655732+478324925
3599+480466612+482576561+486021657+490832610+493571671+493612814+496467552
3586+503859572+509652471+511733547+513158510+515764115+517933831+518558425
3572+518658967+518142335+517151793+518912618+523083181+526972505+530545106
3559+533388677+534914476+535305697+535861267+537402752+537800181+536624865
3545+536468670+537853225+539645936+541536360+543243810+544608602+546112323
3532+546904169+545366469+543251267+543405735+545168213+546698163+547100919
3518+546628588+546992846+548109277+547557637+545659903+544758809+544577561
3505+544198793+544246952+544548615+544322147+543745087+543045261+542383307
3491+541779431+541194987+540898872+540603233+540368134+540656131+540994344
3478+540891011+540652421+540469300+539616842+538615574+538367139+537274255
3464+534965243+533275241+532790127+533129406+533384489+532961567+532321140
3451+530926519+528650054+527538288+528075896+528566189+528641201+528979231
3437+528637381+526556930+524559535+524323737+524888491+524951564+523815591
3424+521504411+519843283+520186933+520896715+521012685+521533505+521954591
3410+520935616+519043870+517966892+517856064+517823003+517855844+518151445
3397+518075442+517075826+515752764+514554048+513456315+513064323+513895511
3383+515258540+515526334+514221198+512833411+512550372+512638682+512101956
3370+511571254+512041969+512983066+512764570+511249351+510265054+510518190
3356+510651426+510306490+510892881+512118046+511956267+510174944+508744324
3343+508652011+509042754+509878755+510904893+510896922+510041452+508784145
3329+507347059+506368235+505686996+504780135+503815491+503055677+502613542
3316+502698545+502403422+500976659+499850273+499931052+500744167+501800023
3302+501666310+499636442+498001983+498432400+499548463+499968043+499287282
3289+497490457+496290088+497514187+500014659+501598241+501719501+500649429
3275+499589973+499733127+500139666+499696246+499146259+499205989+499031684
3262+498099733+496999355+495946475+494865346+493618949+492184949+491492249
3248+491843503+490966580+487997415+486070183+486672590+488267192+489172143
3235+488149752+485790524+483522875+482091741+482439982+483711102+483292403
3221+481799702+481217720+480769524+480746749+481769690+481355804+478929867
3208+477209376+476799163+476061574+474753977+473763068+473340182+473178624
3194+472865133+472418773+472225110+472818186+474130081+474577469+473240080
3181+471330738+469888841+468927466+468233223+467399279+466639245+466431035
3167+465877925+464262311+462635934+462092449+462439478+462560481+461796884
3154+460834333+460225498+459582720+458661018+457686859+456657562+455241636
3140+454049239+453608132+452529060+450284443+448526777+447926097+447418465
3127+446601970+446014808+445115477+442925080+440233112+438987376+439326361
3113+439057612+437576777+436416558+435708944+434431580+432673767+431489782
3100+431104438+430515843+429192855+427471740+425636417+424323605+424124137
3086+424081856+423246994+422165975+421062144+419811118+418907195+418565676
3073+418356804+417587036+416294464+415221563+414393093+413544786+412616839
3059+411350018+409912345+408895354+408359473+407712323+406622929+405558955
3046+404918014+404161543+402932227+402080724+401804041+401094333+399996637
3032+399080959+398005046+396843873+396082957+395474269+394793140+394133501
3019+393677187+393774202+394039241+393926025+393949756+394565718+395683655
3005+397129336+398431422+399369875+400521644+402455415+405329879+409444937
2992+414708420+420340240+425809693+430301535+432786468+433803606+434666276
2978+435549921+435636578+433934491+430420481+426460773+422811765+418977358
2965+414986389+411374446+408357416+406082273+404730999+404080323+403542238
2951+403210196+403607037+404618555+405728080+406377543+406376001+406166504
2938+406126758+405827740+404641110+403063222+401806686+400262924+397669478
2924+394335724+390684181+386673669+382796467+379841077+377540146+375228416
2911+372939020+370876165+369001132+367180246+365352381+363781326+362648658
2897+361645590+360837213+360629958+360695051+360473580+359799430+358835961
2884+358017079+357469149+356908509+355987432+354650154+353050482+351142683
2870+349206341+347537976+345871081+344127925+342340981+340496879+338905142
2857+337409870+335269028+332412233+329270159+326073607+323293661+321228344
2843+319605714+318268509+317078095+315713818+314031457+312203886+310566304
2830+309200337+307961342+306852753+305844836+304889650+304133345+303435906
2816+302455539+301362343+300465859+299661138+298742117+297747847+296943805
2803+296434666+295974624+295305764+294402650+293435599+292536360+291644156
2789+290531141+289132278+287779957+286531889+285172056+283898861+282935925
2776+282088573+281030789+279873344+278902730+277924604+276928350+276231848
2762+275643584+274825877+273958119+273387634+273037409+272526434+271820564
2749+271204235+270627579+269898108+269196959+268689180+268243133+267764172
2735+267316068+266944849+266591721+266280324+266147658+266045848+265683794
2722+265214164+264892206+264559484+264011573+263446543+263209312+263148223
2708+262850932+262366552+261872328+261315399+260781740+260317252+259737731
2695+259113192+258664500+258261781+257643652+256898458+256247599+255561841
2681+254730414+253960260+253267541+252581178+252045922+251537261+250842706
2668+250217193+249785583+249255212+248562897+247922562+247429459+247030395
2654+246697985+246539532+246573456+246496497+246111631+245634838+245347391
2641+245295467+245214964+244960634+244830833+244953636+245061616+245041706
2627+244990627+244946968+244909150+244897671+244966750+245041229+244933083
2614+244759660+244755086+244828665+244893906+245021888+245140889+245208242
2600+245173528+244878753+244586292+244540760+244449089+244199975+243892178
2587+243472010+242938792+242377197+241898108+241528927+241120735+240618797
2573+240100291+239542865+239021715+238677367+238391022+237964665+237424413
2560+236954984+236558584+236173479+235977244+236022905+236076941+236029645
2546+235957573+235855800+235770833+235835413+235930316+235920306+236009717
2533+236362202+236717625+236800222+236802224+237020922+237310591+237358585
2519+237281351+237311895+237367181+237426507+237580075+237732559+237773371
2506+237754691+237712704+237619289+237496247+237347950+237227774+237265224
2492+237359246+237221455+236941301+236932264+237120436+237087742+236869338
2479+236688825+236450474+236030196+235579117+235242850+234952796+234757094
2465+234796565+234891192+234781503+234494810+234192523+233943831+233635777
2451+233217648+232848798+232592411+232415608+232335637+232233718+231972886
2438+231664611+231398654+231116001+230822990+230539272+230224624+229866978
2424+229621923+229575031+229492104+229332970+229277575+229249142+229151704
2411+229023208+228887107+228874801+229077979+229273883+229311370+229346415
2397+229449620+229542136+229549666+229382690+229047489+228615566+227867398
2384+226363952+223784924+219992118+215311021+210404981+205588757+200853623
2370+196128132+191368405+186929461+183417857+181020646+180003802+181017542
2357+184054813+188793473+195297844+201836910+204748329+202548032+197646382
2343+194052053+192805637+193023123+194080412+195189496+195779229+196124496
2330+197165823+199036025+200656470+201623098+203009343+205502247+208405732
2316+210774786+212392623+213667489+214976720+216423834+217847401+219035317
2303+220035557+220957663+221804794+222521482+223038169+223398000+223730924
2289+224088900+224444324+224753370+224912687+224854665+224614753+224267797
2276+224000150+223885557+223685539+223362919+223184666+223152890+223103134
2262+223056408+223008506+222864250+222689431+222620958+222587916+222499919
2249+222452844+222469264+222519994+222654056+222793592+222827865+222749290
2235+222593830+222489725+222509102+222601746+222765912+222963066+223059971
2222+223063167+223074701+223048491+222988871+223005310+223100617+223254773
2208+223389919+223464030+223601435+223787550+223942367+224140200+224380075
2195+224574015+224758146+224951295+225034351+224987184+224909216+224845077
2181+224879351+225044490+225107067+224992290+224928373+224908701+224858816
2168+224889636+224908738+224832239+224889195+225125379+225315424+225382042
2154+225362848+225368358+225559359+225886056+226183421+226394404+226590474
2141+226847854+227067525+227239148+227543272+227893167+228077683+228194535
2127+228365093+228501323+228607191+228807871+229022069+229080348+229044532
2114+229059171+229155635+229296309+229419700+229475867+229499763+229584031
2100+229735579+229916459+230148896+230413677+230657446+230920868+231241302
2087+231548842+231787395+232012632+232243581+232400308+232560378+232833241
2073+233092347+233249827+233307243+233275560+233352555+233688527+234119458
2060+234441343+234651666+234850380+235046909+235197575+235339205+235477565
2046+235591900+235705557+235825255+235999248+236259033+236565600+236856646
2033+237090332+237316340+237559246+237762277+237909361+238058797+238143855
2019+238042799+237999012+238318325+238806268+239127528+239349312+239674246
2006+240048202+240384799+240682237+240961987+241301101+241544337+241394186
1992+241205408+241632573+242538480+243448041+244161257+244699011+245174483
1979+245647878+246177441+246706930+247172704+247510605+247541572+247576984
1965+248109797+248852052+249428690+249894775+250175169+250252844+250336818
1952+250408248+250323410+250067831+249458224+248489337+248210339+249078832
1938+249844468+249911453+249717293+249620994+249707577+249787695+249436220
1925+248488712+247772264+247624830+247512882+248113783+249450712+250052972
1911+249760328+249634531+250157151+250822520+251239988+251543561+251744057
1898+251673931+251592326+251779763+251629960+251324495+252114229+253488756
1884+254357873+254831379+255186067+255551886+255911828+256069970+255364339
1871+253359047+252017122+253669709+256456507+258011822+258541550+258908379
1857+259395036+259907389+260320503+260462886+260047034+258748787+257012371
1844+257383370+260343903+262559206+263290238+263908900+264271174+263092699
1830+261557294+262137220+263726808+265482986+267890226+269716493+270471844
1817+271028884+271452835+271130528+270888283+272006826+273596763+274174080
1803+273436803+272507350+273054839+274452655+274379278+272849384+273520796
1790+277422960+280466439+281394716+281673861+281997252+282826328+284097502
1776+283926890+281541948+280012237+282596738+287042699+290695528+292177208
1763+291994363+292903943+294820099+296580906+298188953+297996079+296187462
1749+296277902+299271386+302575036+304593516+305832383+307951185+309823609
1736+309024930+309519816+315323074+321629116+326945902+331114885+333991370
1722+335752856+334910427+332690753+335546887+344029587+352005316+357260608
1709+359501221+360234476+362132650+363672665+363856888+367240601+374234935
1695+384098700+394670594+401462412+405858560+408372036+409047618+416021895
1682+430508092+442058590+448783845+453738980+459942937+465191323+469822682
1668+478555066+487332376+491796483+495910585+502797912+508747924+509806756
1655+506455259+509755364+522069937+528787587+534592389+547365222+560615750
1641+569561303+574613711+577906066+587731811+605664133+620683641+632321236
1628+644687714+657732969+671489329+687511684+701642661+713298035+729081985
1614+746546899+758522083+766470665+773289372+779170691+783194721+785369469
1601+786137070+785790518+784422310+781961474+778341009+773535125+767282642
1587+759057302+749408800+740290963+731995094+722592491+710947697+701239905
1574+697323581+693128149+687228609+685084204+686259263+686766564+683711661
1560+676036603+676294331+691029147+704596765+715738520+727004436+738655622
1547+748388981+755684500+762789955+775528846+802401873+828247806+843881513
1533+858242961+875185659+888261845+895795403+899861530+900266269+898905628
1520+899825604+900191772+898710054+897581134+894207523+886235651+875399453
1506+872128845+881134570+887656683+887598937+885004829+887313731+894789542
1493+899146973+899308751+901766060+909922118+919494360+926564844+930443479
1479+932736805+934426733+934703196+934448921+938183851+945037088+948492323
1466+948324887+949552477+950792629+947367737+941466067+942077033+947064605
1452+948758500+947479336+944401657+940572099+936956850+933374073+928793959
1439+922031970+915278062+913258554+913135934+910353453+906801901+906056634
1425+907621371+908560963+906898292+906733208+913788557+923096458+928809828
1412+931341414+932937228+934209633+934799881+936707864+940753273+944333845
1398+945808657+946446218+950266593+957107928+960739194+959515572+957141356
1385+956790763+958952507+963014888+966794413+966859360+963908267+963055663
1371+965001409+966607068+967227364+966396947+963794905+961720222+961385718
1358+960935355+959888426+960096269+960831029+959670517+957302179+954397887
1344+950132512+945278065+941973956+940863256+940364770+939359791+938025673
1331+937369744+937623358+938029199+938559937+939235409+939692017+940068765
1317+941702342+945507435+949452412+950646059+950261156+951693209+955061015
1304+958534397+961221589+962895427+964214485+965750276+966623525+966876845
1290+969175535+974447578+979640275+983309891+987878471+993520209+997095785
1277+998686310+1000974347+1004039609+1006713577+1008635666+1009848929
1265+1011107301+1012801711+1014031137+1014132009+1013622944+1013434130
1254+1013254425+1012298009+1010996437+1010072054+1010168371+1011099955
1242+1012161725+1013417159+1013775466+1012686806+1011943008+1011548922
1231+1010480907+1010044870+1010902397+1011298761+1010826724+1011241970
1219+1011700855+1009922324+1007901640+1007843600+1008456403+1009072585
1207+1009849958+1010564588+1011536212+1012377943+1011975922+1011088126
1196+1011360622+1012861441+1015453565+1017019698+1013723229+1008640074
1184+1008625381+1012730299+1014928704+1014151258+1014030843+1016911185
1173+1021210061+1023300246+1023004094+1022733508+1022543886+1021912348
1161+1021370223+1021078699+1021969874+1024909432+1027638869+1028215231
1150+1028439531+1029495865+1030696417+1031945606+1032745607+1032626221
1138+1032533209+1032593380+1033037939+1034903237+1035594505+1033374426
1126+1031728506+1032486997+1034947833+1037755587+1038244154+1035313854
1115+1030880310+1028293035+1029590493+1032985997+1034782087+1034619134
1103+1033219775+1030494672+1029616574+1029790474+1026569091+1022626244
1092+1021890455+1025123373+1031433088+1036761629+1039035633+1038666673
1080+1035648504+1033242403+1034669092+1037470161+1036527778+1031639389
1069+1028637530+1031263523+1037247551+1042243058+1043700384+1041686532
1057+1038075176+1035687810+1036966386+1040898800+1043136364+1042827942
1045+1042031100+1040092848+1038079878+1037413958+1036516243+1036899162
1034+1038624355+1035772740+1027595155+1022428540+1025228360+1028863299
1022+1024963358+1016832794+1012407404+1014251543+1017150987+1016418577
1011+1015806141+1018729683+1022039523+1022179260+1020940798+1021869222
999+1023913196+1024280540+1023906731+1024477583+1025653303+1028103412
988+1031544908+1032609102+1030670630+1028954106+1030619128+1035876110
976+1039876189+1039221289+1038673947+1043027924+1049743040+1053011958
964+1050639653+1047031383+1046679394+1049494863+1054392289+1058680438
953+1061711979+1067936691+1073741823+1070901816+1063955420+1059243870
941+1056759672+1056578718+1056101612+1053561872+1050754558+1048314220
930+1048302979+1050529303+1051000237+1050822296+1052480412+1052733732
918+1049693890+1047582398+1049587066+1053335514+1054624450+1054208690
907+1055218298+1056364263+1055077825+1051404021+1048206001+1047634487
895+1048055610+1048323257+1048418766+1047593786+1046088485+1046556113
883+1049851921+1050625473+1045290908+1036858387+1029541783+1026261698
872+1027440871+1029271344+1026401141+1020215441+1015537907+1012836682
860+1012253708+1014115479+1016232407+1016783129+1015615270+1013688185
849+1012778789+1012503795+1010933768+1008397407+1006182986+1005910711
837+1007083051+1006610794+1005072286+1003937781+1002438064+1001643941
826+1002299943+1002675074+1002500366+1002120900+999809647+995545742+991761514
812+990014207+989516603+989389356+990113757+990909497+992713448+996222242
799+996459105+991149519+986607756+988968600+992519491+988449323+982442225
785+979846722+976370255+972809813+972288846+973214626+974022414+972229777
772+966675761+960729716+956227552+953594800+953572759+953054952+948995657
758+943765785+937861837+930904128+928689192+932423682+934830738+933646642
745+932036942+929564572+923638658+915092848+908239831+905898897+906732399
731+907605355+907031197+905205646+900977887+893614189+886477804+882605267
718+880341401+878275828+879053641+883003982+885966902+886221324+885717623
704+887293380+890510576+891312928+888617140+884896830+882141238+880661431
691+880054653+879415769+878343933+878724428+880182929+879868116+878674983
677+878016924+876860012+875950469+874845719+873245938+877754787+883812358
664+882516590+879261043+881005412+886231684+888556528+886362899+883550148
650+881673536+878798411+874641109+872257416+874284859+877709237+878029928
637+866448169+835228218+814214249+835159965+874254443+882771453+868037445
623+859395097+857479694+852119782+846968889+846666198+843459949+839177236
609+844774599+856082686+859313547+855816876+852334899+845475343
##END=
