##TITLE=Sample description
##JCAMP-DX=4.24
##DATA TYPE=INFRARED SPECTRUM
##DATE=12/9/2023
##SAMPLING PROCEDURE=Instrument type and / or accessory
##ORIGIN=Default
##XUNITS=1/CM
##YUNITS=ABSORBANCE
##RESOLUTION=4
##FIRSTX=4397.6552
##LASTX=599.8556
##DELTAX=-1.9287962
##MAXY=1.6858382
##MINY=0.12292802
##XFACTOR=1
##YFACTOR=1.5700592e-009
##NPOINTS=1970
##FIRSTY=0.13678597
##XYDATA=(X++(Y..Y))
4398+87121536+86974191+86892020+86265824+85312034+85551298+86707119+86977674
4382+86397680+86383957+87556321+89115986+89811484+89642983+89594295+90028188
4367+90411816+90379851+89981531+89411844+89337179+89720258+89663892+89330356
4351+89397807+89905310+90548010+90813202+90663010+90914925+91917593+92519995
4336+91943541+91410299+91430875+90899237+90154216+90334960+91012500+91353838
4321+91453530+91543863+91422362+91222817+91126713+90754919+90629973+91738084
4305+93086996+93241118+92780034+92784485+93086227+93056730+93080922+93515175
4290+93547937+93325823+93776220+94721089+95688109+96231079+96080365+95781148
4274+95792243+95859077+95679302+95289523+94918251+94622042+94165818+93876671
4259+94478864+95668027+96422595+96308952+95773403+95632189+96068160+96224426
4243+95731055+95373526+95381840+95267229+95226912+95578727+95648314+95333152
4228+95431145+95885452+96804079+98065239+98472177+98098665+97720105+97439926
4212+97494366+97989597+98389455+98256944+97953579+97798186+97776850+98123484
4197+99022370+100078737+100391649+99776321+99250140+99559503+100071628
4184+100047654+99950022+99763214+99150059+99224914+100145429+100379273
4170+100017094+100179719+100385158+99820994+99222199+99522878+100192674
4157+100504960+100480446+100146995+99899085+100315647+101094977+101563615
4143+101594460+101241022+100532920+100000048+100176008+100903974+101704345
4130+102003268+101556668+101134876+101418101+102059567+102579124+102678018
4116+102643272+103201608+103981555+103987990+103213652+102477544+102318705
4103+102518183+102535143+102317917+102316199+102642551+103188758+103820856
4089+104198534+104322741+104353899+104125920+103799806+103785152+103849357
4076+103976515+104500219+104798355+104649861+104652072+104412410+103564035
4062+102967859+103441840+104626371+105487493+105664032+105623402+105635740
4049+105458242+105188399+105260321+105485566+105437429+105050706+104604666
4035+104761540+105652292+106255671+105918111+105604468+106199799+106816484
4022+106575436+106275668+106545312+106681126+106303173+105918301+105970054
4008+106439964+106860370+106756863+106349716+106255842+106331332+106105033
3995+106042450+106615791+107330963+107843724+108098894+107736591+106988600
3981+106514125+106426762+106560507+106708355+106908754+107113224+106922269
3968+106784215+106967312+106951947+107196896+107610715+107420386+106969809
3954+106328770+105430263+105078865+105898503+106164123+104841946+105191436
3941+107660712+108670536+107422388+104928436+103540564+105494621+107612413
3927+106236424+104157876+104365687+104012799+102383489+103567973+107991050
3914+110838830+110434929+108185935+102811497+94810265+90639169+93091931
3900+98941090+105348329+107150353+102174587+98400920+101379189+101654480
3887+98303591+98938680+99171347+99698031+104349476+104090775+98766222+94262036
3871+91866798+94962241+97887447+96824123+99889148+106208540+106510633+96974145
3856+81071485+78295152+96904463+110050901+111628723+106976025+100806066
3842+95030736+90397409+91743161+98506287+102692330+104559015+106944449
3829+108035856+107492165+103470294+95080535+93717215+99256490+102175137
3815+108859603+116144658+115358371+108364979+103626835+103081065+99127357
3802+98595681+105950655+110135607+113370850+118286510+120538161+120428903
3788+119256349+117713036+117483406+116497698+114792595+117654421+122436280
3775+122633043+118194639+114404799+115595253+118674656+121431210+121641660
3761+117318873+114963050+117041997+114886421+105225897+98981569+105719259
3748+109654754+107604830+115396230+125676951+124467383+115680177+110455524
3734+117233474+130925436+140022812+141044547+139785930+141858974+146939062
3721+153940427+161076371+164437396+161345740+156425581+161777003+176498777
3707+188715522+194163371+197173026+205911762+218394839+227653047+232727242
3694+233122763+230571742+235804472+253719890+269933222+277594256+280007755
3680+278946168+273915441+273171777+285626761+295840088+302182846+317322234
3667+333802886+344300083+351497471+356351801+358330487+362146521+369375495
3653+369657980+362870671+367022643+388247550+409145707+421846750+429088176
3640+434853056+440034782+444465480+447603641+446739141+446119276+459260466
3626+477078811+485532633+486207507+485727954+491045703+498830232+503914582
3613+509050373+515453872+522438324+530274786+536612457+540789333+544968903
3599+548690219+551014371+554638348+560695584+564080545+561760873+562771646
3586+573375899+583276427+587514765+590481446+594107018+597266970+600363523
3572+601576755+597354248+591945235+593969021+600440893+605285580+609233917
3559+612915750+615093212+616172167+617821863+619542018+619906884+620095030
3545+621901628+625160399+627927506+627560477+625329259+625772139+628182126
3532+628652530+627265122+626370479+627261933+629665125+632069569+632662404
3518+632246440+634015910+636865474+636849606+635329782+635974703+637356226
3505+636045581+634623551+636856667+638758135+637633130+638041919+641352396
3491+643583196+643339320+641302360+637826515+636051237+638404697+641341159
3478+641281708+639871219+639346339+639287571+638659582+637651353+637498512
3464+638505983+639586798+639935529+639490523+638672110+637850508+636911714
3451+635073910+633072864+633077571+633792192+633514073+633405498+633435603
3437+633486815+634694694+636528929+636766883+634382180+631261065+629860598
3424+629983409+630942552+632680019+632748239+630357917+628340509+627133883
3410+625564594+625217647+628034904+631976104+633144235+631018061+628085130
3397+626559157+626902269+627922191+628614490+629201213+629257475+628671473
3383+628644329+628873172+628329690+627135933+626408518+626589186+626252831
3370+625077942+623792580+622721484+622553268+622926751+622883967+622240564
3356+621235220+620373757+619390848+617912291+617230167+618574296+620770435
3343+621796394+621267603+619394189+616702780+615873168+617885451+619238236
3329+618711077+618994663+620052815+619252472+616274516+613600343+612527841
3316+612194941+612308717+612690362+612503659+610901759+608399369+607240084
3302+607286133+607366691+608176145+608602966+607694239+607123574+607772671
3289+608814991+609381328+609759898+608977209+605729220+602638778+602553741
3275+605421034+608833366+609297126+606836837+603897072+602264232+603402372
3262+605466400+604917374+602683537+601791741+602372010+603115028+603408636
3248+602335034+599722855+596752188+594383277+594223224+596037376+596715629
3235+595799954+593855473+590775092+589255193+590589945+591990753+591485651
3221+589803231+588049326+586903594+586496323+585485854+584209679+584965035
3208+586179671+585214682+583475317+582233575+581002729+579624926+578397458
3194+578118466+578062546+577018821+575993280+574699376+572475068+570799292
3181+569732712+568769279+568437176+568869351+569470538+568521835+565511382
3167+562695226+561721353+561502988+561265679+561812541+561528689+558660865
3154+555942350+555862513+556674776+555908449+554305106+553325843+552133985
3140+550562949+549747003+549177440+547958134+546383037+545078124+544477582
3127+543199092+540513415+539061357+538687911+536525863+533753744+532455019
3113+531751863+530600246+528979212+527162592+525433135+523546739+521847956
3100+521018496+519922078+517594016+514943303+513127139+512414605+512010448
3086+511745008+511957982+511327678+509003867+506488001+504754103+503693370
3073+503707226+504233891+503737635+502024047+500038414+498573676+497487090
3059+495957017+494188837+493223317+492680669+491618531+490598116+489714520
3046+488158024+486456546+485287314+484722116+484995262+485350333+483995423
3032+480685743+477996764+477549215+477595454+476651041+475168194+473626807
3019+472361414+471725225+471046138+469885561+469357795+469399555+469079486
3005+469160955+469900025+470554968+471540724+473359204+475835817+479263904
2992+483806062+488805944+493488946+496821859+498185197+498507771+498841849
2978+498948829+498079242+496142505+493534540+490084472+485416883+480560654
2965+476790746+473489342+469841827+466377334+464179714+463736758+463803687
2951+463203601+462675645+462710875+462622990+462400677+462803050+463417980
2938+462984135+461847893+461100775+460222760+458335755+456118167+454410159
2924+452248718+448284096+443230951+439009887+435997992+433175154+430388723
2911+428008841+426068726+424638040+423613942+422716679+421487617+419957088
2897+418742262+417769263+416991736+416754428+416812056+416767791+416400382
2884+415573579+414293076+412899709+411839432+410495492+408195979+405829346
2870+404079161+402454180+400652213+398708910+396645110+394695732+393231183
2857+392038035+390013603+386748796+383416529+380824812+378560452+376391266
2843+374228079+371835973+369672254+368176310+367009052+365828924+364600507
2830+363359259+362110684+360783562+359337919+357922457+356775586+355827110
2816+354774236+353607927+352465573+351306705+350250338+349472660+348726073
2803+347787886+346737403+345493573+344081262+342797115+341639918+340391646
2789+339024701+337678560+336440235+335221461+333770655+332092107+330751926
2776+329811233+328781403+327765694+326766082+325582462+324607071+323905319
2762+322851116+321419520+320277697+319530124+318895035+318378241+317876745
2749+317276659+316809141+316489186+315869625+314889792+313821637+312709275
2735+311857587+311500580+311397281+311351972+311092360+310539804+310081131
2722+309661713+308982151+308262575+307576141+306862317+306414464+306138907
2708+305686992+305141839+304623583+304066946+303351755+302428810+301498747
2695+300754571+300103576+299366879+298531591+297598776+296578037+295765547
2681+295170927+294345529+293396029+292734917+292198951+291449631+290523174
2668+289692271+289077057+288532910+287967218+287450765+286940064+286440372
2654+286131711+285936162+285646142+285318404+285132859+285087398+285036261
2641+284955741+284800585+284532317+284394738+284548869+284746943+284777579
2627+284718945+284555570+284310782+284264030+284479966+284673635+284563921
2614+284167964+283752494+283559488+283569909+283497817+283257148+283001314
2600+282734678+282484045+282376551+282326497+282088600+281587503+280935996
2587+280270575+279664775+279096863+278605485+278267706+277893483+277226031
2573+276394141+275690890+275179220+274865814+274752304+274529250+273961054
2560+273302143+272759970+272354370+272137505+272076650+272178600+272384115
2546+272541150+272666770+272830848+273144956+273563046+273751553+273697209
2533+273743979+273934005+274126327+274377929+274544701+274406781+274184563
2519+274116305+274213586+274399701+274436221+274178640+273843500+273599814
2506+273364612+273209342+273100653+272806969+272480048+272257469+271905625
2492+271430780+271126162+271014531+270937693+270866968+270734704+270488512
2479+270184501+269822521+269408285+269055207+268875773+268774487+268616825
2465+268455804+268244975+267862324+267407846+267026277+266747645+266547369
2451+266351289+266057358+265604684+265134090+264835528+264600383+264278226
2438+263927920+263640766+263405792+263044552+262562342+262257383+262046174
2424+261654601+261339980+261304446+261243307+261054857+260934057+260916196
2411+260942390+260972761+261012148+261043430+260865761+260469880+260287561
2397+260494404+260716945+260754795+260750790+260614444+260050120+258898066
2384+256910630+253710683+249327667+244218451+238776619+233224789+227660829
2370+222103001+216688009+211748508+207707598+204907842+203760723+204714457
2357+208001054+213565906+221116714+228455781+231481077+228559136+222542787
2343+218317641+217197514+217614314+218549502+219507202+220068015+220518583
2330+221839516+224126844+226450255+228211639+229904822+232300572+235200115
2316+237737127+239506388+240958333+242508717+244027818+245508805+246990551
2303+248188730+249030946+249770984+250516356+251247073+251923599+252468125
2289+252950164+253469522+253866940+253902607+253592523+253185594+252899749
2276+252726466+252529626+252312286+252087448+251808152+251562738+251418060
2262+251401451+251462401+251386380+251182536+251055928+251049133+251065020
2249+250981957+250809641+250775322+250959122+251085881+251003672+250853887
2235+250773994+250807022+250916546+251070582+251236785+251348853+251399553
2222+251442471+251509324+251529388+251455036+251408000+251475897+251593982
2208+251717761+251847957+251942865+251952659+251926996+252038779+252313975
2195+252561553+252748105+252947089+253096608+253173673+253206360+253197932
2181+253212719+253260685+253247417+253119253+252942401+252848935+252881128
2168+252960528+252927785+252758867+252675044+252740892+252884450+253118152
2154+253327672+253445472+253598103+253806769+254036883+254312497+254534734
2141+254633363+254812075+255185178+255506652+255631532+255780595+256083732
2127+256335676+256424282+256551953+256809021+257011669+257100712+257186908
2114+257274356+257309643+257338932+257452727+257686410+257988484+258226229
2100+258324440+258394084+258617821+259008406+259338877+259434469+259426781
2087+259555439+259905347+260385620+260750315+260901485+261070232+261342903
2073+261625540+261893163+261965559+261775286+261737703+262084972+262432279
2060+262596680+262800543+263050455+263274116+263516094+263745335+263912564
2046+264026909+264042114+264014078+264175631+264514738+264875351+265178507
2033+265349969+265504043+265787838+266101339+266234096+266181859+266043995
2019+265795753+265694201+266119903+266835435+267382126+267751452+268067515
2006+268308032+268548378+268859164+269098295+269240392+269235096+268766800
1992+268357080+268907264+269997058+270975467+271731829+272213982+272583859
1979+273002005+273431427+273818198+274254358+274513799+274164651+273939471
1965+274791824+275982144+276652671+277004098+277173433+277233168+277392937
1952+277524973+277337264+276688376+275389043+273652013+273225628+274857652
1938+276439659+276771155+276447005+276137566+276169152+276398146+276020449
1925+274500854+273143779+272606978+272067406+272784343+274972092+275994957
1911+275328929+274860177+275619974+276777172+277517684+277960963+278107406
1898+277607676+276989596+277075469+276762328+275869906+276661289+278676951
1884+279965995+280673252+281227402+281676964+282057811+282140894+280697548
1871+276762898+273736406+276022177+280566005+283074754+283781061+284103882
1857+284574893+285106930+285482159+285444025+284445210+281844458+278299653
1844+278217462+282974246+286762358+287695591+288163773+288224591+285668331
1830+282338569+282550215+284670276+287128988+290722121+293425223+294298132
1817+294738981+294845563+293666460+292619432+293856239+296031897+296658728
1803+295027996+292988094+293505515+295479721+294756140+291240092+291293602
1790+297249096+302182960+303435730+303489733+303574998+304328076+305855644
1776+305083413+300227432+296219645+299392391+306386922+312240940+314459801
1763+313485890+313936249+316276174+318415957+320337983+319230517+315094737
1749+314417187+319214572+324559958+327475882+328627879+330903362+333219200
1736+331203955+330472175+338951166+349301293+357815894+363972556+367583740
1722+369246875+366642630+361216496+363701043+376290702+388837310+396920344
1709+399894732+400046699+401754250+402737538+400837323+403990138+413967845
1695+428706455+444775375+454516950+459428074+460997819+458711858+464335439
1682+483104614+499481986+508242399+513221401+520072830+526416955+531632848
1668+543213328+556246170+562700427+567490675+576068751+583140822+581859636
1655+571836677+570252544+585221971+592568289+595737200+608593324+623612482
1641+631970029+633162457+629059306+631477987+647794542+662803944+671501718
1628+679704678+689586452+700945378+716701063+731918201+742053418+755239822
1614+773854979+787992820+796071640+801888151+807109321+810571954+811790349
1601+812110607+812028910+809917467+805037056+799041358+792578408+784905795
1587+776479307+767696799+758619619+749314584+737868494+722536708+710498010
1574+707402786+702727452+694676345+691962120+693113927+692264916+685670081
1560+669947348+663093908+680979714+699606033+712927586+724203980+735235663
1547+743441053+746826241+748023756+755300259+783246343+815769739+836182611
1533+853337927+873075432+887395648+893844628+896624757+896109671+893432650
1520+893800059+894554921+893462185+892070678+887056105+874795170+857597183
1506+853491147+869999948+883080890+885685401+882507037+883557330+891917990
1493+897637998+897804353+901472140+913840587+926919858+934454740+937427419
1479+938600030+938476498+937146871+937303963+944816067+957141311+963923001
1466+962653052+961037941+961760687+956596462+945264945+945794913+958466231
1452+964878006+961598735+954355563+950466981+949410387+947079060+942754811
1439+934485187+923472258+918958497+918951815+914802273+908685397+906486790
1425+907811937+910530110+911612520+911177537+917301930+929496504+938599043
1412+942905905+945647615+946624411+946688189+949910439+953803425+954532169
1398+954621686+955351417+956802754+960295455+962920921+962386018+961644595
1385+963543064+965869304+966400942+966055324+965866571+966924532+970699224
1371+974471714+975457014+975042682+972891985+968403962+965644561+966309299
1358+967454576+968325758+969337100+968924667+966241420+963218478+961840713
1344+961441112+959310231+954784397+950168438+947411011+947179131+948803429
1331+950369112+950463109+949993047+951259276+953553778+953950950+953235570
1317+954036899+955898013+957830953+960138211+962941042+965788670+967981431
1304+969777779+971605408+972691842+972907398+973504485+974863268+976505940
1290+978391274+980688282+984152358+988731569+993352539+997910490+1002083493
1277+1005035520+1006837410+1008670962+1011271525+1013223067+1013748935
1265+1013655697+1012816936+1011771958+1011784030+1012265253+1012081055
1254+1011203647+1010171956+1009248460+1008934048+1009987226+1011329837
1242+1011319283+1010779597+1011099475+1011939452+1012238982+1011952131
1231+1012055240+1012633193+1013137118+1014140640+1016217765+1018079486
1219+1017836065+1016504692+1017250747+1020433666+1022911152+1022876833
1207+1022502591+1023166341+1023520235+1023776108+1025192519+1027687772
1196+1029882203+1030366691+1029988121+1030257660+1031209628+1032111257
1184+1032761568+1033957261+1035778816+1037124464+1037414352+1037713199
1173+1039038118+1040686181+1042351936+1044625027+1047339024+1049463982
1161+1049996228+1049943763+1051121460+1052810144+1054341053+1056545734
1150+1057486161+1056355234+1056831370+1059068852+1059683933+1058725208
1138+1057952730+1056907449+1055782140+1056564032+1057670131+1056822259
1126+1055914860+1055918352+1055547603+1053687097+1051124194+1050939464
1115+1053204811+1054158449+1052983333+1052202200+1051958399+1050956472
1103+1049722816+1049382589+1050305021+1050718821+1048737668+1046502768
1092+1046770030+1050043226+1055356116+1058867722+1058781014+1058440559
1080+1058281872+1056176275+1053593403+1052156264+1051578918+1053583001
1069+1057954097+1060021503+1060889496+1065984248+1072422826+1073300537
1057+1068345794+1062265590+1058507754+1055760957+1053009452+1053359701
1045+1056377329+1058404418+1057846205+1054322299+1048977976+1043204895
1034+1040508741+1042212079+1041686970+1038682022+1040666137+1045359009
1022+1045588232+1043479218+1044353893+1046993482+1046761754+1042885852
1011+1039112602+1037713123+1038441639+1040848209+1042588903+1043161389
999+1044643553+1044667773+1041545747+1040070113+1043533126+1048545346
988+1050152181+1048710866+1047481690+1047521551+1049020191+1052871949
976+1058322569+1061350295+1059829181+1057122625+1057110552+1059379316
964+1060736124+1061088652+1063183923+1066431076+1067753111+1068212846
953+1067072732+1058885261+1050512757+1052863824+1061173538+1067131044
941+1070246389+1070859876+1069531692+1068868852+1069673371+1069567226
930+1067129298+1064866684+1065889264+1069129129+1070189292+1068512149
918+1068676378+1071554757+1073741823+1073553069+1070877263+1068226741
907+1067515081+1066999008+1066329563+1067023684+1069054873+1069020858
895+1065162570+1061231014+1059714532+1059679681+1059155864+1056843746
883+1055485267+1058748973+1063561430+1063411171+1057220950+1047871194
872+1040164262+1037863761+1036853785+1032142690+1028103014+1029213138
860+1032811756+1035348616+1034750998+1030586726+1025202845+1021041839
849+1018563138+1017056754+1016655026+1017546177+1019425513+1021915299
837+1023742776+1023754849+1020516426+1013777863+1008449940+1009295155
826+1012749209+1013094068+1011678416+1010793187+1009559076+1007935689
814+1006696263+1006853279+1008991069+1009551408+1005645970+1002344377
802+1002731375+1002808364+1002077039+1002372242+998551614+987850592+980769068
789+984693487+991797410+992777698+988973319+985179038+981963849+978093870
775+974124122+971410277+970028564+968197822+965022115+962696179+962737710
762+962775218+960250051+957565513+960136844+965511538+962143281+950210046
748+942047782+940241943+938925604+935786797+931592231+926760488+922480657
735+919274200+916253155+913166131+909115370+903466429+897456761+892214635
721+887998202+885435906+884679070+882720391+878891335+877356707+878184383
708+878629009+879983692+883232516+885742270+885840064+884939119+883774252
694+880957906+877876045+877270985+877243955+876405118+876791888+878562269
681+879810731+880164625+881960441+885155433+886745033+883006103+871811254
667+866660772+876379759+885124835+886669107+883949111+881288643+881500174
654+884078870+886006419+885107903+883025008+881796895+879169075+873556503
640+868894077+869673844+870526120+861898198+851709909+852036469+859126117
627+867387921+873725668+872407809+866760615+863173006+857914480+851725094
613+853060719+857100091+854979765+850594774+847421269+842236924+831643034
600+820187453
##END=
