##TITLE=Sample description
##JCAMP-DX=4.24
##DATA TYPE=INFRARED SPECTRUM
##DATE=12/9/2023
##SAMPLING PROCEDURE=Instrument type and / or accessory
##ORIGIN=Default
##XUNITS=1/CM
##YUNITS=ABSORBANCE
##RESOLUTION=4
##FIRSTX=4397.6552
##LASTX=599.8556
##DELTAX=-1.9287962
##MAXY=1.798367
##MINY=0.18804885
##XFACTOR=1
##YFACTOR=1.6748598e-009
##NPOINTS=1970
##FIRSTY=0.19895425
##XYDATA=(X++(Y..Y))
4398+118788602+118402909+117923719+117618820+117982831+118943845+119435633
4384+119628225+120058865+120233032+120202044+120114782+119970794+120223397
4371+120716092+120766939+120438098+120205727+120017023+119843274+120076125
4357+120815667+121784012+122566856+122640781+122265747+122223798+121992539
4344+121191226+121118529+121967628+122362795+122397066+122769511+122327003
4330+120900206+120429735+121262170+122507656+123792706+124584313+124613806
4317+124022826+123330108+123243630+123334637+122907102+122407894+122308666
4303+122608645+123217286+123829824+123942246+123338818+122851265+123012861
4290+123078049+123065797+123664305+124667170+125621405+126115373+125591778
4276+124352298+123407841+123129998+123478118+124245641+124579046+123957655
4263+123102097+123092800+124083547+124976313+124794806+123962317+123576750
4249+124420840+125974721+126522587+125895369+125294272+124750170+124218861
4236+124346106+125183141+126169724+126510051+125955628+125534909+125919284
4222+126276701+126170249+126148158+126450361+126929151+127086672+126720019
4209+126502666+126881321+127424890+127395610+126843304+126590088+126946144
4195+127228712+127112784+127332717+127778526+127591254+126894231+126318606
4182+126280047+126620035+126925521+127080720+127025897+126814870+126662554
4168+126847539+127275545+127352566+127090960+127107811+127378581+127496297
4155+127488966+127459348+127289709+127125205+127387149+127730812+127614315
4141+127671282+128190740+128277263+127631121+126961047+126793473+126887851
4128+126780643+126710918+127330698+128281489+128716800+128779265+128895024
4114+129153649+129402479+129159023+128590134+128405753+128367131+127962133
4101+127678996+128084768+128681283+128616887+128173231+128370681+129263420
4087+129704691+129273981+129161639+129767931+130074725+129729692+129182315
4074+128730661+128485550+128771018+129495373+129705172+129191755+128873155
4060+129278331+129860513+129847639+129343324+128970372+128971947+129078737
4047+129181559+129604974+130175456+130263919+129852603+129312682+128898155
4033+128965007+129533701+130051851+130144415+129973949+129919918+129855059
4020+129494661+129332816+129645971+129894535+129951217+130249488+130912302
4006+131318965+130737833+129799569+129666737+130016583+129954331+129614966
3993+129703775+130321598+131111932+131853120+132216428+131999155+131465142
3979+131069423+131088071+131432072+131728225+131755841+131747949+131748154
3966+131427294+131078418+131572706+132484885+132549139+131797283+130622395
3952+129221844+128639930+129542998+130131158+129428912+129848760+131570936
3939+132178678+131309783+129582100+128424090+129153018+129986654+129203330
3925+128625285+129412569+129229585+128102625+128957889+131600233+133166508
3912+133120199+131706854+127351178+121067816+117948755+119755523+124219858
3898+128906812+129916519+126458315+124291585+126698453+127139511+125145026
3885+125569696+125387824+125523974+128813661+128831642+125358731+122703495
3871+121530138+123329788+124454684+123214279+125341186+129673063+129715136
3858+123493225+113545916+112277370+124722091+133396965+134292498+130507117
3844+125541056+121356460+118357526+119850703+125106333+127965798+129035515
3831+130518034+131070241+130497304+127352166+121151946+120147603+124108539
3817+126088709+130311918+134846227+134304980+130029137+127297183+127028770
3804+124137926+123651707+128672146+131199407+133121702+136566783+137932849
3790+137400251+136631954+135932137+135454975+134086782+132945765+135418310
3777+139050494+139436044+136312161+133378762+134174613+136504950+138574712
3763+138765712+135711207+133787195+134697932+132942429+126338411+121973144
3750+126445806+129096664+127915753+133588917+140469035+139256432+133420391
3736+130714932+135493338+144093567+150063730+151259108+151065332+152749242
3723+156117827+160956332+166030073+168562272+166907438+164354508+169453872
3709+181455516+192281728+199589727+206465334+217441140+229380772+237350811
3696+241562436+242032071+239686477+240741371+248371636+255051385+256501500
3682+254153842+249826236+243896785+241195223+246669114+250270425+251356014
3669+257970762+265197122+269174562+271994026+273940130+274330671+275148657
3655+277342772+275720661+270083991+271254760+283191331+294637947+300827865
3642+303992442+306517613+308433129+309935434+310935061+309072962+306833633
3628+313143784+322261710+325439739+323854230+322480468+326008469+330775887
3615+333213974+335509604+337829290+340882941+346908389+352205390+353212170
3601+352834832+354247065+356342050+358894908+362727291+364646935+362183901
3588+361051638+366302980+371945930+374019064+374776801+375760413+376337221
3574+376680537+376621318+374423769+371528236+373707315+379472865+382940687
3561+384121669+385072327+385951632+386089891+386002060+386342386+385891382
3547+384663316+385049053+387349451+389271408+389659315+388890511+387507568
3534+386389576+386117507+386208113+386115300+386159073+386998555+388189466
3520+388537978+387989392+387394826+387191833+387154608+386808979+385976828
3507+384556055+382825631+382158110+382703601+382851397+382357046+382047041
3493+381713333+380827018+379783903+378745699+377394180+376448077+376602742
3480+377394357+377690555+376371741+374336508+373306062+372719895+371712581
3466+370636155+369631582+369109900+369280864+369057158+368015929+366909681
3453+366036996+364908470+363237906+361809801+361068471+360594975+360418174
3439+360362764+360006281+359288225+358205927+357149218+356595898+356405040
3426+356066422+355487906+355354416+355868731+356093931+355541572+354887005
3412+354841666+355374594+356279664+357504598+358397746+358224184+357665562
3399+357698943+357806454+357524385+357679441+358451661+359090961+359226302
3385+358714656+358071583+358247921+358946759+359106051+358395255+357293740
3372+356473725+356085106+355898625+355899871+356046386+356124074+356060728
3358+355938626+355996172+356425361+356889355+357069679+357090284+356922559
3345+356770278+356871170+356590809+355679974+354830100+354326532+353944070
3331+353384807+352317492+351072451+350433045+350042397+349054407+347983142
3318+347226189+345904670+344283252+343644522+343470924+342793581+342241115
3304+342140793+342078123+342334925+343110063+343932605+344546567+345132485
3291+345881217+346484574+346527315+346011077+345004867+343982393+343491957
3277+343062696+342128337+341212520+341042908+341187964+340689307+339806231
3264+338996394+337364406+335092906+334039719+334049257+333578074+333001871
3250+332690691+331639426+330272533+329692629+329157957+327895122+326432498
3237+325522090+325503157+325930425+325924908+324791970+322948021+321811773
3223+321810883+322366053+322570648+321636645+320419612+320131208+320470111
3210+320849620+320935493+320382458+319430946+318534666+317854191+317504825
3196+317354431+317019941+316415197+315825399+315310657+314595804+313594540
3183+312102449+310068212+308482880+308118425+308240029+307838705+307089118
3169+306730535+306689467+306452345+306027319+305490121+304586403+303381897
3156+302406897+301939629+301640762+301127870+300573483+300110022+299447270
3142+298560634+297878771+297533641+296933434+295868663+294748447+293591166
3129+292724389+292474651+292153186+291407977+290469436+289436126+288536732
3115+287580113+286313791+285341104+284791752+284006346+282787908+281118482
3102+279138712+277509127+276544128+275814684+274966252+274256381+273743720
3088+273171699+272708808+272387877+272014098+271587275+270900999+269965324
3075+269287891+269012121+268826958+268583910+268295951+267799412+266948880
3061+266006870+265372143+265133118+265136694+265222906+265262818+265088918
3047+264703928+264525153+264726455+264842312+264577236+263996905+263291269
3034+262755476+262307212+261817648+261476236+261102866+260465292+259924588
3020+259861420+260248491+260686257+260513264+259697324+258865334+258098825
3007+257430094+257384826+257838767+258215108+258471981+258681487+258940887
2993+259787183+261388174+263191196+264928772+266819412+268803238+270228247
2980+270600834+270228798+269622364+268924255+267961621+266618536+265170254
2966+263935053+262925889+262048791+261283438+260602928+260126940+260116709
2953+260333065+260446323+260759247+261314613+261685528+261795939+261756330
2939+261548710+261068986+260281712+259424276+258689512+257931171+256889959
2926+255608121+254438722+253413846+252286476+251142132+250143305+249236403
2912+248457865+247947838+247651391+247367134+247043302+246631924+245930808
2899+245012197+244227521+243664628+243218855+242908938+242844008+243082607
2885+243479963+243853991+243938619+243461048+242894792+242663809+242203249
2872+241318606+240522951+239936339+239435084+238919861+238261628+237602755
2858+237007531+236219296+235206448+234110236+233055643+232222817+231502092
2845+230729711+230238474+230214097+230198011+229885550+229433655+228966227
2831+228613587+228506396+228437036+228140571+227725101+227395629+227201515
2818+227140837+227066850+226812806+226572642+226555417+226551129+226417586
2804+226257672+226123132+226105694+226152029+226006226+225611717+225209325
2791+225027044+224875422+224530007+224206157+224005139+223712216+223289984
2777+222876240+222508920+222147187+221771629+221385750+221041811+220874904
2764+220914068+220923268+220686413+220265516+219831148+219482708+219322883
2750+219367492+219395286+219279875+219142577+219003019+218772232+218532103
2737+218412884+218358701+218301529+218262009+218167256+217969406+217849208
2723+217862340+217759740+217570075+217556729+217600146+217535466+217478845
2710+217394680+217182879+216984263+216932590+216986114+216952483+216708102
2696+216373825+216047413+215797338+215649559+215441655+215216491+215121809
2683+214980739+214709097+214445872+214125421+213717798+213402062+213131613
2669+212767193+212434322+212217877+211953584+211552883+211171879+210954740
2656+210824026+210625001+210418182+210313162+210157163+209898511+209710536
2642+209557419+209300208+208951144+208587312+208323624+208196878+208115150
2629+207999419+207690303+207185507+206941802+207132285+207351667+207393571
2615+207266665+206975574+206784913+206803685+206762599+206622436+206471099
2602+206244137+206050575+206001411+206011962+206063298+206083263+205912459
2588+205615567+205347271+205076038+204752277+204463696+204252482+204041019
2575+203839698+203712935+203577576+203367715+203181715+203061303+202866798
2561+202537290+202198494+201841797+201413248+201116303+201087940+201140539
2548+201045377+200809554+200628341+200629301+200719107+200748948+200738093
2534+200744535+200705335+200583322+200476736+200423355+200341556+200336378
2521+200536649+200720015+200657042+200477946+200455419+200651188+200878114
2507+200940321+200884253+200918061+201054416+201174258+201244918+201260487
2494+201251484+201234704+201141944+201001568+201053081+201426754+201862349
2480+201986141+201768984+201580120+201667399+201881122+201957813+201768878
2467+201528588+201507520+201597878+201652007+201672684+201655833+201641704
2453+201650245+201714215+201902012+202112265+202243388+202376202+202525955
2440+202600868+202613057+202655691+202771191+202946426+203168779+203388854
2426+203453730+203351237+203350775+203614303+203939896+204058991+204047389
2413+204088671+204184367+204403090+204679269+204778310+204803364+204978367
2399+205283782+205602008+205850749+206021464+206124153+206125932+205944363
2386+205359886+204040022+201723539+198427339+194452818+190004979+185201296
2372+180434856+176000914+171842795+167964414+164661934+162547286+162183597
2359+163602929+166639924+171243709+177531262+183993480+186927057+184653884
2345+179806268+176700037+176045897+176429427+177275528+178318109+179215866
2332+179923014+181219444+183338842+185242151+186561908+188150318+190505059
2318+193204041+195533407+197232086+198723217+200374920+202098545+203762651
2305+205269814+206454497+207376347+208270331+209111361+209768117+210319515
2291+210885628+211435087+211873636+212203677+212423735+212495551+212521993
2278+212659095+212928744+213185955+213294516+213287114+213220920+213163926
2264+213258768+213533844+213817408+213961432+214051896+214248573+214521175
2251+214720218+214816661+214891271+214994334+215127236+215227754+215287898
2237+215405942+215574771+215765059+216018747+216203751+216199711+216189338
2224+216314678+216481443+216622246+216739099+216810292+216894706+217088055
2210+217288593+217327899+217293006+217383577+217545911+217635005+217737836
2197+217941434+218154267+218285924+218352313+218489291+218772232+219038660
2183+219117665+219119035+219235568+219452209+219651803+219721377+219725666
2170+219940474+220285089+220404860+220398294+220528314+220707641+220830259
2156+220945599+221071847+221228060+221416551+221565148+221707909+221938660
2143+222185729+222359575+222468545+222557230+222679848+222797573+222885065
2129+223026438+223225872+223375217+223431784+223454346+223466215+223514935
2116+223687198+223923661+224151815+224397798+224605310+224686629+224717786
2102+224802004+224873696+224900565+225017880+225230482+225348331+225356641
2089+225416660+225591770+225870547+226142029+226257334+226330894+226510417
2075+226634351+226647127+226727182+226825707+226814532+226806383+226935994
2062+227168667+227423280+227599102+227578764+227473726+227509777+227677075
2048+227844320+227967205+228004875+227977614+228077830+228331304+228581842
2035+228788661+228933272+229036513+229154860+229266695+229358423+229426075
2021+229378708+229224043+229284934+229707913+230128632+230297408+230367462
2008+230536256+230797168+230981050+231034752+231135626+231418531+231567217
1994+231135199+230656400+230980321+231784588+232494032+233003596+233335471
1981+233562734+233718040+233893434+234132905+234393070+234452377+234080769
1967+233871655+234443907+235265862+235775889+236015199+236075539+236165558
1954+236487539+236885500+237098991+237021784+236481151+235597629+235629641
1940+237044845+238340349+238795215+238875198+239012674+239363606+239757332
1927+239737261+239077782+238641404+238771318+238790784+239435458+240944258
1913+241815555+241804914+241976447+242751088+243595694+244155865+244540409
1900+244754577+244717708+244766018+245185990+245193161+244798368+245487989
1886+246950080+248003409+248758031+249399555+249935223+250422919+250706038
1873+249977448+247676872+246068515+247945827+251271903+253302954+254142133
1859+254673122+255302546+255997185+256594313+256947843+256683603+255320180
1846+253392137+253869459+257405947+260167991+261119699+261801544+262196089
1832+260879499+259140018+259795333+261637253+263678287+266425953+268548732
1819+269566455+270363534+270879273+270461044+270103422+271323035+273236807
1805+274129261+273529286+272623237+273252608+274803188+274722902+272918492
1792+273522684+277913779+281369803+282291671+282520234+282920152+283820133
1778+285098768+284699935+281701642+279522296+282168270+287210604+291219717
1765+292555186+292035212+292800689+294598355+296098525+297516363+296926085
1751+294187778+293452534+296273137+299592682+301307589+301662898+302591313
1738+303566420+301772117+300726795+305418091+311098124+315448667+318206689
1724+319449380+319534862+316690860+311698847+311874864+318970048+326011672
1711+329935053+330433461+329052688+328633855+327776686+325002294+325452231
1697+330448906+338343962+346588277+350435678+351030458+349445411+345071452
1684+345532243+355047257+363265024+366488321+367252499+369289156+371260935
1670+373066556+379576035+387152188+390611860+393682307+399875553+405032231
1657+404589162+398951194+400377341+412223110+418018697+422311658+433956106
1643+446025865+453104215+455673658+455431696+460290433+473538006+484532301
1630+490896190+496131339+501345669+506947231+515046632+522371713+526508017
1616+533514942+544709703+553495736+559501113+565431649+571934864+577792658
1603+582998804+588406127+593596791+597937298+602111538+606517882+610498596
1589+613878872+617097507+620579706+624337213+627690726+629041783+628259278
1576+630333764+636343767+639501904+640433024+644989122+652107829+657528569
1562+657830425+652057721+654028149+671026396+686619422+698314726+708428719
1549+718538798+726341717+730317732+732682972+738336456+755402605+774137753
1535+785401874+794722757+806036274+814818997+819929126+824080306+827099792
1522+830512595+837858423+847136672+857771030+868582474+875072273+875221172
1508+871343735+876246387+894038386+907966043+914039820+914973716+917463228
1495+924365917+929005148+929492061+931403555+938222399+946955299+954751100
1481+961079401+965559056+966356153+963171611+959089187+960326790+967365139
1468+971579736+970762355+972332561+976812145+975550912+965390157+958312589
1454+961593646+965545960+967058088+966624770+964728579+962409461+959377876
1441+954027386+945565238+936016166+930461118+927853241+924237729+920956530
1427+918884678+916794675+916568834+918215840+919663553+924537735+933493415
1414+941055191+945016758+946145249+946668390+949600543+954966122+959840304
1400+963503503+966090739+966833599+968553987+973487316+978161992+980302601
1387+980984677+981614155+982246551+982931261+983940248+984929732+985590740
1373+987401735+991560031+994854896+994856676+992798132+990113243+989820213
1360+992404673+993778222+993177784+992100041+989441914+985400986+983009910
1346+982985070+982989340+979519811+972444165+966831393+965266382+965870237
1333+967016734+967566851+967045561+967303644+969504040+971706714+972504522
1319+972175334+971898247+973597638+978104198+983858111+988181322+990132817
1306+990374885+989637434+989757863+992664322+996207803+997157714+996784184
1292+997507329+1000330157+1005298290+1011188719+1017903646+1026106430
1281+1033653615+1037985509+1040448472+1043675008+1047845975+1050729159
1269+1051054717+1051284045+1052834180+1053716118+1054476345+1057480457
1258+1061266292+1062781409+1061449569+1059711317+1059948759+1061857691
1246+1064598666+1066997500+1067638579+1067380141+1067711677+1068104140
1234+1067351314+1066888032+1068167913+1068698599+1066805397+1064319230
1223+1062209441+1060254672+1059695943+1060619020+1060429906+1058804610
1211+1057816691+1057998901+1058454639+1057597185+1055098919+1053438177
1200+1053401308+1052218226+1049093400+1045993699+1043976366+1043040975
1188+1042219394+1040420999+1037792979+1034952428+1033530979+1034992429
1177+1037193751+1037483934+1036739223+1036583704+1036754454+1035778849
1165+1033813262+1032828617+1033426137+1035270940+1036962501+1036268396
1153+1034110491+1033346563+1034736410+1036651819+1037446353+1037721874
1142+1038265087+1037699383+1036262417+1037534682+1041701805+1043890244
1130+1042109926+1038694561+1035547172+1034499253+1036710112+1040108181
1119+1041530129+1039477494+1035121044+1032411314+1034296687+1038211919
1107+1038806022+1036164550+1033934474+1032530676+1031265742+1029647847
1096+1027224671+1025114668+1024967975+1028413234+1032358502+1030837051
1084+1028669110+1033899384+1043013502+1048317158+1048846206+1047733588
1072+1044789192+1039279625+1036341635+1041184429+1050111995+1054013347
1061+1052665066+1053064576+1055330952+1054951016+1052999806+1054669374
1049+1058053920+1056099222+1050627093+1048149681+1049567216+1052908487
1038+1055585262+1055763344+1055485545+1055935233+1052978666+1045420948
1026+1039215638+1036159497+1033194104+1032798510+1036401637+1039155708
1015+1039096988+1035760913+1029817388+1027331435+1030463307+1033816536
1003+1034341812+1034744667+1036746981+1038679330+1038092628+1034205226
991+1030894845+1032661070+1038083304+1043089802+1045548495+1046601397
980+1048619868+1050532145+1050266304+1048167902+1046740972+1048581646
968+1052577947+1057064934+1063343127+1068951344+1067627832+1063311311
957+1064147270+1066375994+1066118623+1066896004+1067530891+1066041184
945+1064786427+1064073034+1064331045+1067877089+1072864084+1073741823
934+1069760611+1066757780+1066366812+1064413325+1062552508+1064131469
922+1065058247+1062428591+1060385849+1063073229+1068519806+1070447670
910+1068140510+1066883334+1066059405+1062596494+1060113459+1062020754
899+1067262772+1072010475+1071575235+1067371528+1065326580+1065477970
887+1063469108+1060449266+1060308054+1062193070+1061632989+1056682507
876+1052607058+1053114327+1053698395+1051981780+1049901101+1046407941
864+1041085210+1036471318+1033744506+1032653027+1032993887+1034313627
853+1035093997+1033832479+1030288642+1025636884+1023226875+1024148814
841+1025440226+1026179527+1027408091+1028177002+1027315207+1026915911
829+1027768097+1027563966+1027592080+1026614980+1021273815+1017773537
818+1019601471+1020342054+1017732469+1014800956+1012902985+1015152920
806+1022732133+1027151289+1023837634+1020196001+1019862970+1019552075
795+1015253847+1008257348+1004699134+1004256350+1002988284+1001140990+999184086
781+997218712+995542169+993034792+989932101+988383603+987930143+985688821
768+981789176+978357369+975247917+973273718+972627656+971218804+975256031
754+986198225+985785904+970565910+959219652+957109862+955708911+951111176
741+947124982+943263630+937878051+935666124+936613971+935077857+930003031
727+923548891+916848840+911044463+908006329+908173591+908903142+907410517
714+905094816+904782995+905208057+904458079+904464128+907531587+912010957
700+913618674+912239289+911171582+910394913+910208006+911651662+912285197
687+911313151+909866790+908396514+907228378+905946718+905411548+906236616
673+907262756+904182984+896225828+900075934+914888519+920602431+919477927
660+917740173+916288189+916692822+919171088+921691277+920165840+914206513
646+911147881+916328189+924152888+922661544+913262368+907184534+907559915
633+911695364+910941970+898267360+884657858+881176869+884271445+886337675
619+882306142+872846752+865804701+870457811+885646417+895081536+893099009
606+891482467+887254774+870474893+854142423
##END=
