##TITLE=Sample description
##JCAMP-DX=4.24
##DATA TYPE=INFRARED SPECTRUM
##DATE=12/9/2023
##SAMPLING PROCEDURE=Instrument type and / or accessory
##ORIGIN=Default
##XUNITS=1/CM
##YUNITS=ABSORBANCE
##RESOLUTION=4
##FIRSTX=4397.6552
##LASTX=599.8556
##DELTAX=-1.9287962
##MAXY=1.8594869
##MINY=0.25214812
##XFACTOR=1
##YFACTOR=1.7317822e-009
##NPOINTS=1970
##FIRSTY=0.26057392
##XYDATA=(X++(Y..Y))
4398+150465762+150473162+150311294+150458001+151439812+152683372+153030031
4384+152123527+151215526+150973928+151027311+151377463+151658401+151638920
4371+151924814+152462614+152277531+151303327+150807448+151040562+150890206
4357+150319606+150176771+150497031+150875458+151445387+152633948+153922182
4344+154057910+153073931+152160819+151763066+152204479+153938634+155386586
4330+154898796+153764720+153282040+153012615+152525410+151975306+152155123
4317+153205615+153900361+153489478+152587191+152294516+152687812+153127520
4303+153894700+154984394+155188631+154047327+152770174+152803302+153972605
4290+154922975+155157913+154926606+154287668+153611903+153615466+154377310
4276+154908416+154308594+153162833+152775234+153113288+152863860+152022854
4263+151782427+152146157+152686504+153528371+154401110+154703680+154478998
4249+154328626+154284244+153978439+153460223+152819564+152011892+151345592
4236+151391265+152340912+153635531+154420970+154636496+154547301+153940097
4222+153253835+153344182+154257931+155551449+156520852+156534051+155976908
4209+155408648+154631195+154078114+154344286+154910601+155291506+155352564
4195+155052679+154962401+155755583+156533965+155899657+154738563+154364145
4182+154601510+155071041+155525016+155790466+155564786+154778023+154209419
4168+154304998+154517048+154389563+154225337+154253990+154402298+155049685
4155+156161321+156500150+155471582+154335286+154197837+154690257+155162353
4141+155471995+155843986+156173470+155702889+154474042+153718995+153745101
4128+153746839+153889933+154759093+155594351+155399063+154565130+154196099
4114+154583113+155060991+154915231+154239190+153961557+154598051+155444650
4101+155416324+154617721+154156570+154239104+154535410+155109796+155557300
4087+155615243+155904871+156238090+155629217+154573166+154309902+154805506
4074+155167429+154778660+154076668+153749645+153594694+153450500+153653446
4060+154305394+155014148+155228263+154917502+154588259+154444701+154259738
4047+154227781+154675457+155119984+155005905+154606122+154361461+154194757
4033+154123046+154495519+155131738+155248449+154618581+154223134+154697037
4020+155223152+155108213+154698087+154433549+154581668+155307666+156010483
4006+155994892+155688588+155646460+155589550+155128020+154493368+154195204
3993+154540504+155258775+155495864+155145281+154714883+154223014+154153833
3979+155155469+156254748+156068719+155125250+154572220+154529559+155002532
3966+155640781+155773670+155711975+155703887+155393504+154978543+154937861
3952+155424464+156174210+156628822+156319093+155570207+155324135+155566696
3939+155714556+155688450+155501302+155502885+156138742+156585145+155736205
3925+154582270+154495554+154661173+154438729+154606173+155802942+156996441
3912+156964123+155917554+153947187+151520195+150908001+152335973+153828531
3898+155232118+155745068+154099264+152516582+153497773+154057360+153519112
3885+153976064+153548178+152979712+154319333+154177685+152227108+150881206
3871+150644444+152156500+153022459+152283950+153173296+155195738+155127246
3858+151820373+146278767+145600369+152655786+156947946+156519819+154004528
3844+151749162+150117279+148450617+148515495+150940422+152710252+153325545
3831+153966169+154364834+154174416+152390904+148897932+148715585+151424289
3817+152373884+154592217+157379050+156888609+153843623+151997832+152032904
3804+150477413+150546989+154218626+156001018+156997302+158735054+159094500
3790+158457300+158073108+158186051+158841888+158663344+157652244+158715212
3777+161133858+161603734+159877029+158362616+159141067+160935850+162146249
3763+161879612+160340916+160427375+162385678+162400753+159345012+158113928
3750+163061942+167321784+170103971+177242576+183858664+185763241+186010569
3736+187344701+190176467+194746226+199447050+201845767+202621551+203549446
3723+204657485+205968298+207667846+209210448+210371026+213451360+222034631
3709+233704344+244427147+253659285+263543887+276307477+288543884+296843963
3696+301746958+303008175+300037893+296437416+296188574+295516388+290936510
3682+283432143+274879194+266161727+259383221+257760683+256634127+253802551
3669+253862679+255581897+255824924+255055060+254012484+252550644+251736260
3655+252658665+251987925+248648045+248498929+254123637+259693018+262670218
3642+264015862+264983166+266011406+267176734+268085183+267624084+266507801
3628+268734102+272061402+271759022+267909995+263902231+263651065+264892577
3615+264661770+264794847+265937235+267458722+270202274+273012598+274258705
3601+274671688+275188906+275728857+276458228+277170700+276666354+275115044
3588+274929101+276023527+276075654+275450087+274911961+274415135+274107420
3574+274041802+274113512+274240102+274657662+275762707+276637839+276540986
3561+276135851+276136315+276588449+276720649+276106010+275634173+275880469
3547+276726569+277461464+277345871+277030756+277250119+277581548+277217749
3534+276409027+276022151+276187237+276633433+277025713+277055141+276864723
3520+276483078+275705900+274923955+274455577+274221740+274503280+275072435
3507+275158945+274723797+274242597+273950525+273782462+273805711+274002858
3493+274001481+273396824+272546680+272344525+272599718+272624517+272315683
3480+271880415+271708823+271791616+271875699+271846461+271630333+271380698
3466+271164639+271024161+271270509+271650158+271296150+270341358+269740590
3453+269599923+269374571+269064842+269137292+269232596+268863496+268820371
3439+269584280+270253196+269954223+268984717+268252541+268132869+268222855
3426+268026724+267692541+267570116+267645526+267968024+268675109+269359496
3412+269323873+268578945+267859142+267690356+267793851+267874389+268101944
3399+268362868+268427712+268318727+268226228+268300847+268493158+268830352
3385+269117244+269047255+268826721+268758108+268756473+268682474+268686467
3372+268910770+269319725+269863514+270437195+270744996+270802732+271270818
3358+272040442+272188560+271873892+271880535+272235317+272432154+272358482
3345+272593936+273339845+274007711+273991311+273496069+273624810+274654255
3331+275404690+275131427+274626376+274826173+275326010+275373043+275051956
3318+274926106+275121481+275076152+274723797+274366107+273827825+273245798
3304+272955498+272878350+273154676+273882068+274483231+274899536+275858080
3291+277285570+278330555+278799915+279216253+279833473+280418460+280881005
3277+281481583+282304279+283401614+284545672+284902536+284653383+284764140
3264+285195812+285468042+285248455+284443433+283703409+283425965+283306104
3250+283304951+283108458+282526534+282391409+282703340+282503784+281833853
3237+281443465+281796302+282499567+282273337+281093760+280416584+280543191
3223+280689485+280517188+280197375+279706005+279301335+279275383+278721114
3210+277475885+276495176+275966772+275814816+275814558+275222188+273855377
3196+272662084+272370614+272670620+272784045+272335663+271536423+270455591
3183+269082430+267767452+267238412+267345400+266875662+265650257+264614565
3169+264444333+264596960+264029079+263035153+262877570+263517609+263485101
3156+262395080+261552938+262167249+263100789+262038767+259718075+259290860
3142+261066989+261336483+258735800+256537344+257194643+258741513+257473258
3129+254169637+252989802+255349489+257097877+254335067+250630321+250960872
3115+253972576+253794875+249367314+246039377+246939531+249325582+247687333
3102+242628819+240330878+242410952+243920169+240499922+235591196+234901905
3088+238817720+241356623+237797861+232794227+231826459+234088089+234816617
3075+231862271+229102301+229909027+232966403+233610039+230521393+227767670
3061+228050122+230224004+230657207+228598196+227009594+227142879+227931345
3047+227666791+226223347+224998580+224712634+224991799+224852303+223934424
3034+222831117+222314811+222607537+222808935+222212142+221508481+223395987
3020+233874507+253091163+265379697+259434332+245832473+235467842+229123950
3007+224845557+222000471+220477005+219614419+218581790+217080387+215760229
2993+215650418+217225666+219139122+219339040+218315205+218002189+219330126
2980+221219868+220998973+218743899+217128056+217259705+218676681+219194002
2966+217416652+215518631+215679123+218334118+220763003+219156831+215493816
2953+213803182+215157172+217990728+218396690+215790328+213739026+214170733
2939+216401318+217309284+215136676+212731643+212500422+214389356+216277602
2926+215253509+212387497+210552720+210831231+212513570+212485846+209861862
2912+207732828+207937736+209842313+211160922+210275619+208582146+207746681
2899+208188437+209322600+209345952+208054551+207180469+207512483+208754254
2885+209700545+209346021+208535561+208311792+208665765+208959764+208597032
2872+208027188+207970949+208287733+208612520+208580614+207908532+207255001
2858+207269990+207445953+207205198+206461922+205515786+205008360+205013815
2845+204996692+204856800+204883870+205125433+205491487+205843223+205974407
2831+205887605+205773629+205740106+205720006+205702367+205718371+205612604
2818+205307264+204983424+204777466+204623067+204521378+204591471+204837285
2804+205119014+205323303+205531446+205722811+205755749+205727010+205737215
2791+205691301+205468685+205218792+205213079+205356774+205456191+205405992
2777+205185252+205134158+205376014+205451407+205083340+204525113+204256221
2764+204424973+204607303+204507078+204345123+204377597+204509797+204571336
2750+204651909+204738660+204706944+204704328+204792352+204792025+204721606
2737+204689958+204634872+204590610+204689872+204923365+205168662+205276339
2723+205260800+205256996+205276838+205262142+205244795+205327605+205447053
2710+205461457+205446950+205510606+205548053+205488493+205489749+205550652
2696+205489714+205349839+205255981+205236001+205236913+205222234+205263484
2683+205328173+205305285+205191069+205058197+205023556+205080019+205079778
2669+205027617+204986642+204859330+204631172+204432614+204296009+204158061
2656+204018272+203985661+204078194+204138598+204107312+204044516+203926169
2642+203707631+203449496+203289159+203251764+203173927+202974147+202777706
2629+202682833+202604222+202424335+202188606+202064529+202097054+202072118
2615+201850138+201542802+201303613+201261899+201267320+201012488+200608213
2602+200307296+200074939+199882783+199809025+199748070+199573226+199415093
2588+199358389+199279141+199062169+198739190+198551542+198606044+198627761
2575+198550957+198558271+198514646+198274201+197943461+197658358+197464344
2561+197241194+196931345+196600226+196320716+196233243+196312645+196344534
2548+196291581+196188534+195928918+195587903+195434296+195527672+195716730
2534+195857019+195922860+195886721+195719949+195489227+195202197+194932514
2521+194851700+194971751+195126546+195131193+195038367+194959309+194791193
2507+194593393+194642146+194841719+194845540+194682604+194589452+194621134
2494+194690348+194731409+194769235+194843922+195030434+195353568+195692208
2480+195957365+196135788+196177245+196053976+195918420+195889716+195840119
2467+195747294+195762231+195902554+196086897+196174233+196102592+196096500
2453+196257215+196424883+196587285+196789818+197002590+197236255+197459147
2440+197629585+197795274+197912381+197934374+198045769+198275509+198413543
2426+198482792+198634301+198863061+199055148+199105072+199078260+199127736
2413+199285767+199508520+199725234+199916082+200126532+200314403+200429721
2399+200600142+201198587+202789924+206304047+213287874+225377850+243378256
2386+266686173+293430996+321388196+349090426+376501893+404851906+435373667
2372+467683276+500188346+531216741+558722995+579655255+592510207+599543339
2359+598905090+583822942+557023361+527271085+500214263+484874083+489292437
2345+508279489+518129880+510014815+498179017+489087649+484599805+487448109
2332+493710998+493951270+487965791+483984788+484078646+482395601+474369577
2318+460472961+445783248+439538119+443731104+446811386+438130557+418883579
2305+397120982+380800851+370744812+362150441+352374463+340952852+327314820
2291+312747016+299549019+288231919+278228764+269541240+262394013+256656000
2278+251959358+247919861+244218350+240742518+237620952+234973718+232788737
2264+230927183+229254360+227747278+226371948+225073714+223843870+222682156
2251+221625623+220744107+219984345+219257245+218597691+218018779+217500270
2237+217102724+216850405+216662740+216472030+216235509+215947051+215714126
2224+215668643+215834727+216063349+216154506+216093310+216046674+216197167
2210+216548335+216912186+217213602+217522573+217776390+217911653+218044420
2197+218282456+218631163+218990763+219218663+219331089+219485007+219748271
2183+220026731+220217373+220328233+220376849+220358745+220302833+220250053
2170+220330883+220558989+220687558+220608173+220394505+220123721+219905992
2156+219801843+219763587+219695938+219519752+219234306+218907764+218648131
2143+218681172+219103396+219702013+220260154+220665754+220991315+221400959
2129+221860974+222239436+222500342+222730203+223004292+223329663+223674068
2116+223994741+224270637+224529289+224831153+225098977+225285213+225496489
2102+225750340+226011487+226341935+226788080+227297261+227899870+228565637
2089+229128476+229632856+230271088+231098877+232071102+233260179+234588132
2075+235852808+237255500+239020753+241026829+243157533+245467228+247908366
2062+250442450+253279636+256433969+259740670+263198760+266854908+270554905
2048+274102412+277577229+281032221+284451504+287629068+290203508+292344829
2035+294326899+295977178+297160609+298044673+298616495+298678826+298398319
2021+298020580+297405288+296315680+294906499+293431753+291852616+290203852
2008+288615680+287037525+285395885+283756860+282160928+280576973+279036350
1994+277598448+276345577+275357021+274538851+273659400+272691167+271863636
1981+271251389+270771446+270432962+270200158+269951728+269656386+269347553
1967+269118242+269106213+269272865+269492935+269751690+270092704+270525873
1954+271017742+271543685+272044107+272468258+272825260+273256743+274083723
1940+275251529+276351153+277254095+277988904+278604231+279178290+279793823
1927+280442708+280972695+281372599+281624780+281807368+282457887+283477919
1913+284056074+284120109+284246716+284720275+285342175+285875570+286284818
1900+286762438+287314556+287622236+287598075+287329510+287230799+287885225
1886+288853561+289489814+289938488+290449287+290890493+291088190+291164943
1873+290959811+290084249+289295076+289893469+291245722+292155495+292416385
1859+292178349+291737419+291445485+291376132+291353898+291075421+290055475
1846+288421683+287828384+288627555+288903777+288397762+288060912+287714511
1832+286265974+284284679+283737259+284233327+284657565+284974160+285101816
1819+285149503+285034030+284457062+283511356+282721392+282640492+282891917
1805+282939981+282770799+282221228+281740700+281880300+281514883+280357712
1792+280624280+282619704+284145888+284807094+284878443+284585425+284802482
1778+285469763+285056419+282981042+281546014+283663398+287203953+289153446
1765+289260761+288882266+289515627+290688906+291561680+292336707+292597665
1751+292095470+291881355+292964114+294686017+295699974+295684761+296033726
1738+296779635+296348239+296710937+299959523+303086098+305247279+306716656
1724+307671139+307905113+306341223+304032079+305102241+309411972+313037574
1711+314935973+315060325+314340574+314570797+314649821+313433244+313867016
1697+316776756+321343521+326133935+328734394+329886643+329547074+327307626
1684+328411380+334826018+339720581+341390547+341883587+343376368+344793292
1670+346281634+350688768+355511088+357978899+360572647+364981055+368559917
1657+368890709+366324393+368140051+375687974+379314952+382204317+389190055
1643+396017022+399900863+401059927+400313743+402317048+409057763+414314680
1630+416765352+418527111+420244436+422000034+424954587+427417339+428027366
1616+430149035+434823528+438534419+440973595+443615425+447134296+450986060
1603+454771328+458699534+462877340+467264098+472084146+477416404+482774441
1589+487922907+493285108+499416176+506255774+512888038+517873740+521685269
1576+528335981+536926049+542619732+547644154+555777288+565064151+573082741
1562+577963950+579909811+588209942+603944656+617503940+629497958+640857995
1549+651553763+660601316+667753534+672665616+678099752+692689170+709164562
1535+720083771+730097028+741614769+751065565+758883704+766801931+773713567
1522+781264140+791040531+801454208+813540673+826380068+836463744+842294376
1508+845068062+852917728+868053499+880157655+887887133+892517056+896400725
1495+902059404+907991363+913051580+918622218+926143742+933224783+937986871
1481+941055382+943338334+945980680+948523902+949123947+949956452+954411049
1468+959141747+961089743+961907035+962196491+959770772+954338220+952528999
1454+957371212+961289781+960175873+955630688+952962047+952742597+951071805
1441+946216169+938371046+930127774+928254741+930028581+926336001+919802690
1427+918008750+918916424+919576219+919749823+920110732+924779684+933747388
1414+941812374+946083040+947439457+948124859+949065299+950772643+954156080
1400+958830952+963387426+966504742+968317405+970344218+972212226+972026368
1387+970926572+972785494+976491565+978660594+979271928+979171083+980202318
1373+984334486+989957508+995111342+997806692+995525943+991194976+990714912
1360+992639710+992577344+990689925+988767536+988547949+989112888+987225055
1346+983026392+980091354+978913773+976252773+971822062+969104754+968462650
1333+966938341+964810339+964876077+966280405+966894217+966712627+967065894
1319+969413140+972936520+975629667+977163062+978034666+979736641+985159832
1306+993062158+997380665+996247208+993334887+993116882+996914988+1001302263
1292+1003739408+1005216908+1008036508+1013812415+1020616528+1025482283
1281+1028773617+1032275520+1035963901+1039188326+1042763196+1046771734
1269+1048230442+1045837696+1043413974+1044028337+1046130456+1047333024
1258+1048182119+1050405390+1054278183+1058158892+1060428353+1062205634
1246+1064712442+1066776839+1066472033+1064690621+1064573049+1064944558
1234+1063635431+1062535497+1063069804+1064363098+1065346974+1066980801
1223+1069006788+1068807369+1066287758+1062986512+1060723591+1060256193
1211+1060235130+1060274573+1060606501+1061209162+1062266348+1062412487
1200+1059905542+1056587775+1055965496+1057345111+1057563528+1056883082
1188+1056544202+1056034332+1054821783+1051905331+1048369216+1047244776
1177+1047993232+1047712518+1045452420+1043546827+1044283168+1045955337
1165+1046194680+1044313456+1040866415+1038892744+1038842149+1037229317
1153+1034289186+1032811204+1032258931+1030203069+1026843588+1025591664
1142+1027867664+1030847651+1031771227+1030366073+1027021460+1023785884
1130+1023472955+1024537369+1024358395+1024211429+1024533101+1022742809
1119+1017674194+1013707233+1015993214+1018743840+1013542646+1007097857
1107+1006314846+1008217203+1011749119+1016079259+1019089604+1021998483
1096+1023729163+1022918066+1022188403+1020609025+1016453315+1015188932
1084+1020610884+1026933350+1028494073+1030138157+1036706919+1043803793
1072+1047408538+1048286406+1047634665+1046507541+1045866676+1046082546
1061+1046713499+1048140748+1046996622+1038866379+1031503660+1033480085
1049+1040238009+1044442937+1046467340+1049292102+1051309554+1048875919
1038+1043051482+1038323262+1037290099+1038263237+1037927798+1036684685
1026+1036498896+1035644777+1031918674+1027602920+1024693283+1023923969
1015+1028408166+1036084227+1040373410+1040041482+1037021156+1033861300
1003+1030957789+1028158152+1030653602+1037938330+1040097928+1036255491
991+1035620133+1039932858+1043369092+1045926908+1048896432+1047421617
980+1044703895+1047594740+1051159697+1051053276+1050142711+1049620589
968+1051231631+1057277307+1064115082+1064819689+1060940769+1060923836
957+1065213501+1066051031+1062537150+1062676061+1067893087+1070030038
945+1065719584+1060663291+1059171404+1059828170+1061332860+1063944781
934+1065690811+1066367333+1067565840+1068104552+1065662863+1059046742
922+1054163777+1058568950+1066378278+1068381755+1067132241+1066094535
910+1065831443+1067184487+1068381205+1068222193+1066799831+1065532625
899+1067755828+1072404267+1073741823+1068227769+1059510491+1054520624
887+1054488891+1055828443+1057048565+1060239948+1064448799+1063385831
876+1055738199+1048085955+1045358183+1045461368+1044204144+1043820864
864+1047120665+1048337069+1044307054+1041700228+1042816544+1042901282
853+1039783071+1034401870+1029403262+1028174535+1029563994+1030349553
841+1033486005+1040518517+1044039075+1041407192+1037729963+1034480275
829+1030383351+1025383779+1022420449+1024122355+1026398975+1024805761
818+1021820060+1020018548+1019163396+1020495721+1022945463+1023087541
806+1022789067+1024296442+1025861158+1025394448+1022548485+1021566399
795+1024009946+1023971535+1019360130+1014642786+1012000921+1009408826
783+1004935368+999267190+994141716+989106486+984602052+984104779+985356152
770+982597886+977883433+976290082+977551643+978786151+979153943+978400806
756+978048296+978572552+974462550+966809342+962696104+961432272+960375430
743+959240803+957093045+954627057+951867070+947273286+941888025+937288803
729+933174671+929725909+927370059+924843495+921178519+918020314+916968291
716+916715524+916388965+917953887+920940345+923345344+926411033+929494481
702+930228688+930688927+933604759+936356348+935862586+934673372+933386204
689+929515132+927405165+930411517+932393036+931797396+933586518+936348501
675+938028724+940247176+942548577+942003945+936713333+932434819+931447364
662+933554302+938557867+942787920+945092074+949742854+956525972+956782387
648+949037902+941132616+939928465+945626174+946951340+939196874+932547022
635+931017482+929981704+937902134+965091259+980090734+959187868+940466351
621+930562544+910228332+893965094+898645542+914202315+921723357+918780266
608+919253721+925107344+922618090+910834435+905199436
##END=
