##TITLE=Sample description
##JCAMP-DX=4.24
##DATA TYPE=INFRARED SPECTRUM
##DATE=12/9/2023
##SAMPLING PROCEDURE=Instrument type and / or accessory
##ORIGIN=Default
##XUNITS=1/CM
##YUNITS=ABSORBANCE
##RESOLUTION=4
##FIRSTX=4397.6552
##LASTX=599.8556
##DELTAX=-1.9287962
##MAXY=1.7023566
##MINY=0.14663947
##XFACTOR=1
##YFACTOR=1.5854431e-009
##NPOINTS=1970
##FIRSTY=0.14837962
##XYDATA=(X++(Y..Y))
4398+93588740+94058564+94403113+93799000+92570594+92491156+93547668+94303665
4382+94285234+93813182+93809094+94707434+95640146+95799182+95471711+95735167
4367+96525357+96428061+95501581+94949903+94823387+94577892+94412577+94885625
4351+95707629+96216298+96247756+95800968+95147869+95111890+96083494+96613761
4336+95816805+95593914+96424161+96464303+95786738+95666839+96117856+96398624
4321+96243855+96403709+97044806+97289211+96995040+96278452+95429605+95423411
4305+95981076+96190132+96520112+97505260+98465669+98590738+98379351+98832427
4290+99530377+99522416+99123026+98991670+99217625+99666668+100140308+100706328
4274+101023667+100586908+100154312+100212265+100145581+99793485+99384368
4261+99001209+99062498+100120571+101422643+101512288+100858193+100988224
4247+101585928+101263617+100305679+100036527+100363829+100415061+100335849
4234+100579652+100600752+100305942+100675058+101362360+101552073+101716307
4220+102056428+102258012+102348127+102651406+103300238+104021920+104438566
4207+104289671+103754056+102887775+101784466+101423687+102306989+103546908
4193+104312256+104812269+105178933+105013421+104389749+103979607+104399815
4180+105048159+104688892+103681094+103478795+104265517+104848013+104946615
4166+104996748+104547159+103875290+103978799+104460625+104681025+104888070
4153+104989614+104742643+104750773+105414709+105949667+105872400+105871535
4139+106247804+106229270+105261783+104137355+104054120+104731628+105033638
4126+104988176+105451036+106291959+106663961+106437781+105840171+105279339
4112+105450237+105916809+105690111+105154675+105158913+105583821+105927796
4099+106087725+106106964+106045383+106291677+107081989+107883043+108092588
4085+107904341+107770136+107872827+108133463+107957707+107328828+107221250
4072+107722541+108260778+108715386+108697368+108112776+107893259+108478162
4058+109050648+108978842+108629124+108594903+108883369+108831667+108345169
4045+108405002+109366248+110318303+110398248+109854907+109578030+109935624
4031+110477292+110450364+109838544+109394529+109394529+109397302+109123639
4018+108850352+108905475+109273332+109789906+110495572+111376854+111715537
4004+111006403+110182021+109920285+109441194+108857805+109055535+109478572
3991+109780037+110590001+111389843+111376140+111110343+111044308+110773183
3977+110302983+110092564+110343623+110898637+111258326+111169085+110842179
3964+110541889+110794471+111461236+111619426+111275949+110871963+110241205
3950+109619027+109878169+110035711+109310467+110011415+112018618+112673391
3937+111641090+109774839+109052979+110782797+112116816+110708284+109091617
3923+109456025+109287007+108125399+109227570+112373900+114100091+113834802
3910+112239329+107952960+101864017+98974630+100912320+105462859+110557998
3896+111817532+108154422+106301997+109381972+109278708+106245247+106562981
3883+106523450+106971413+110794640+110740033+106934071+103886550+102563857
3869+105111534+106905462+105815594+107707296+111389965+110862001+103785034
3856+92788062+92848778+107848568+116771691+116972561+112763327+107524829
3842+102967326+99700879+101207873+106471588+109439173+111043453+113155132
3829+113761059+112862230+109496956+103627841+103917256+108309454+109960258
3815+115362266+121094668+119695741+113284703+109459869+109572212+107127685
3802+107796706+114063069+116786691+118594218+121688602+122756655+122327246
3788+121399177+120360081+120379668+119953492+119251472+121860072+125447626
3775+125417278+121976974+119496751+121014402+123408561+125412785+125591747
3761+122311447+120797658+122435670+120477641+113786342+111308751+117965885
3748+120485291+118841979+125864507+133695036+131867029+124906494+121743951
3734+127650756+138012035+144693822+145616223+145443635+147978633+152318678
3721+158036944+164168811+167621080+166289993+163851773+169439472+181663882
3707+191543645+196296868+199562289+207874757+219283507+228044651+233654324
3694+235877031+235686331+241150230+255937073+268876012+275464112+278561560
3680+278966382+276905653+280154194+292792017+301146572+307184282+320362382
3667+333250868+341415738+347649807+352541210+355414291+359899856+367051693
3653+369182950+367242224+374058037+391147232+405813960+415032616+421864519
3640+428123890+433242592+436961032+439515120+440097165+442631703+454900137
3626+468031938+473917013+475322124+477495187+484002307+490568415+495395305
3613+501724752+508067733+513665132+521445029+528924393+533396951+537148174
3599+540690633+542097925+543620482+547838221+551049469+551228308+553647806
3586+560169175+565958759+569908596+572673892+573961858+575040456+577656200
3572+580308298+579635498+577213895+580035584+586478643+590010876+591368129
3559+592920123+594682950+596691347+598195220+598312591+598714256+601058263
3545+604947272+608845078+610853475+610663132+610201842+611264388+613099472
3532+613239250+611912074+611685865+611987602+611197695+611206229+613331922
3518+615230579+615047229+614710566+616212747+618440624+620127246+620325371
3505+618170955+616141467+616104699+615702922+614161605+613287861+614271457
3491+617072995+620079049+621588147+621299456+619735469+617697334+615879882
3478+614889142+614614849+614546840+615200879+616591667+616240229+612943416
3464+610197067+610791632+613262484+615250843+615273851+613214175+611008742
3451+610094546+610318123+611506499+612295768+611629660+610765277+609709912
3437+608272733+607920468+607892573+606908111+606208958+606103993+605640297
3424+604511697+602713794+601570494+602212766+603425466+604118341+604510156
3410+604229697+603073991+602536007+602734133+601654218+599318782+597687876
3397+597809872+599494840+601522185+602706087+602788420+601117588+598483235
3383+597472344+597531820+596673226+595263942+594077070+593405549+592888994
3370+592019536+591596292+592176269+593264305+594443809+595042245+594253841
3356+592051266+589847300+589553157+590692359+591143574+590386713+589900986
3343+590533934+590729240+589586429+587928266+586353865+585966788+587170803
3329+588490236+588907164+588815921+588755092+588659563+587794654+585959231
3316+584651078+584255466+583496311+582290190+580836055+579636326+579460456
3302+580025997+581415619+582736405+582047365+580696879+580903689+581877022
3289+582944718+583762671+583016449+581268698+579769675+578921495+579145599
3275+580063930+580784212+580497212+579582678+579472750+580402097+581742582
3262+582254062+580838386+578487462+576147515+573797004+572394487+572383171
3248+572300913+571395476+570782416+570649743+570081270+568362279+565157836
3235+562794054+563198049+564149991+563701483+562073735+560090226+558941888
3221+559355921+560289779+559348177+556659875+554766293+554494105+555094158
3208+556208811+556924543+555451423+552797972+551415493+550387760+548888173
3194+548355114+548505757+547637164+545664632+544372118+544621147+544728368
3181+543176899+540737326+539185632+538616933+537682812+536640830+536421953
3167+536193639+535275382+534888756+535363129+535239291+534390096+533846323
3154+533575038+532594035+531187233+530803952+530833276+529852462+527878953
3140+525390243+523321243+521883386+520226540+518658868+517690422+516836077
3127+516099705+515698755+515302955+514331878+512634278+510841187+508927229
3113+506850071+505788878+505863166+505741696+504652721+502653234+499986324
3100+496974142+494406633+493021560+492414138+491816416+491150948+490266941
3086+488707239+486738618+485288280+484596796+484040166+483165369+482248203
3073+481672549+480859483+479262224+477519661+476368316+475679802+474630753
3059+472934732+471247396+469992476+468933840+467718358+466762996+466717506
3046+466913563+466008728+464052325+462561084+462248256+462213782+461490192
3032+460030643+458404098+456964588+455730045+454665506+453434986+451977957
3019+451025188+450795032+450642885+450535852+450743677+450898643+450835409
3005+450795633+451008496+451687536+452761586+454351965+456928008+460319523
2992+464340453+469462726+474985123+478779806+480109990+480517219+481156370
2978+481450212+481060353+479875548+476902389+472448028+468299163+465104382
2965+461939000+457798895+453389609+450284004+448688286+448040789+447905522
2951+447802813+447567506+447324417+447302274+447600627+447791609+447395509
2938+446569435+445793626+445330043+444957139+443676692+440980383+437797445
2924+434564280+430942420+427116796+423442116+420303577+417834943+415514508
2911+413082792+411020596+409539807+408057288+406377696+404967021+404039854
2897+403526608+403018249+402250109+401640808+401371290+401234444+401147713
2884+400847743+400048587+398843782+397319946+395556706+393786021+392005976
2870+390108146+387941925+385622317+383649973+381831280+379881832+378289724
2857+376998977+375026708+371904636+368325560+365163299+362940611+361397488
2843+359508982+357318136+355654034+354436070+353307169+352257857+351184070
2830+350033063+348952509+347759208+346097888+344288669+343045629+342446968
2816+341972482+341244305+340137247+338802664+337512293+336267637+335154075
2803+334325106+333547154+332544309+331387851+330260792+329170088+327966485
2789+326531336+325020734+323715550+322619281+321458162+320033276+318608089
2776+317545468+316705860+315733767+314634021+313693603+312773523+311677480
2762+310808341+310216258+309518985+308759153+308041034+307332933+306811980
2749+306448963+305799454+304925804+304307047+303805098+303155608+302519126
2735+301980033+301476374+300953278+300284727+299484330+298842416+298531862
2722+298395261+298148601+297654622+297001805+296364608+295882716+295463965
2708+295058146+294805395+294347827+293356768+292435560+291859756+290988512
2695+289870551+289167432+288759057+288325061+287940145+287379078+286434355
2681+285546137+284927831+284173263+283247469+282474930+281798729+281076210
2668+280405949+279735086+278986101+278400616+278067957+277856128+277700805
2654+277356999+276719671+276205729+276045838+275887845+275597067+275548983
2641+275776752+275859611+275671881+275460992+275363584+275362907+275536821
2627+275768462+275732127+275482778+275317173+275240986+275040380+274736819
2614+274604279+274724000+274873346+274790110+274503844+274230810+273981518
2600+273662055+273352386+273224882+273238811+273181930+272876208+272286870
2587+271682249+271259456+270859371+270321068+269632855+268900505+268363574
2573+268077777+267673895+266968369+266291830+265906293+265684427+265358009
2560+264956326+264649927+264364374+264078427+263966488+264046942+264145779
2546+264221157+264314166+264399601+264554060+264833240+265099130+265284811
2533+265486245+265646926+265653881+265576924+265546585+265688055+265883116
2519+265949152+266021108+266102727+266026673+265876913+265791892+265671494
2506+265407484+265173098+265091047+264939991+264536578+264087638+263925416
2492+264008407+264006997+263851109+263704245+263581723+263433542+263254966
2479+263012441+262688260+262372087+262168021+261940779+261532197+261097167
2465+260813983+260636610+260458241+260233010+259977966+259738617+259456730
2451+259029502+258522759+258134742+257990565+257881841+257461924+256856401
2438+256468290+256267420+255936359+255468565+255101488+254923795+254823624
2424+254676985+254533973+254487675+254392616+254167366+254017024+253898844
2411+253640830+253467292+253564193+253728201+253728520+253649985+253750250
2397+254035690+254246372+254200769+253951308+253586506+253065891+252216978
2384+250632520+247860194+243927274+239356443+234547731+229477733+224154026
2370+218897444+213915682+209317294+205782354+203853301+203256049+204158685
2357+207070770+211864802+218525837+225334187+228288699+225744987+220447634
2343+216845850+215879341+216290554+217327085+218200321+218460403+218629279
2330+219703611+221531440+223085258+224337207+226069187+228431747+230932244
2316+233070757+234659425+236044479+237514122+238950944+240359815+241765283
2303+242946554+243811049+244484149+245011794+245425602+245839222+246299290
2289+246798363+247262886+247539791+247501689+247145740+246702307+246388258
2276+246141090+245889129+245719670+245635532+245471769+245155858+244877900
2262+244803387+244811940+244803857+244817147+244808970+244801864+244896115
2249+245028543+245043036+244915627+244773687+244702407+244677876+244688741
2235+244710415+244663552+244613307+244667575+244732351+244752446+244756074
2222+244738310+244761280+244810943+244806037+244823820+244974970+245193284
2208+245337649+245357029+245294377+245313776+245536733+245823018+246056144
2195+246319234+246594241+246759940+246845262+246945472+247005473+246910978
2181+246727966+246627061+246639881+246668528+246613941+246489407+246441605
2168+246525141+246630990+246703379+246747515+246760937+246798757+246871541
2154+246928497+247056602+247296402+247486218+247655621+247951249+248278494
2141+248574009+248849204+249032104+249173536+249401530+249715617+250034009
2127+250297456+250439997+250468851+250555188+250761715+250958356+251019372
2114+250969240+251002492+251149733+251280413+251400905+251463839+251445699
2100+251623768+252088140+252491985+252647854+252713570+252802143+252870698
2087+252929515+253117189+253487687+253903168+254251673+254559275+254877704
2073+255233127+255544131+255638231+255510558+255438357+255675393+256085141
2060+256431898+256700401+256908019+257056350+257191598+257369234+257546400
2046+257674655+257772853+257823174+257966429+258295629+258630149+258918916
2033+259202006+259361709+259388420+259517334+259795367+260012421+260066069
2019+259980334+260001143+260431718+261039402+261384712+261511012+261711149
2006+262062342+262441299+262743299+262991501+263256226+263376605+263107030
1992+262930240+263450592+264282568+265002887+265576379+266047181+266566273
1979+267102771+267615717+268134565+268603336+268830691+268655029+268651232
1965+269446215+270460451+271047195+271334458+271428540+271422675+271542321
1952+271681610+271543900+271051538+270166308+269053009+268806029+269837070
1938+270763109+270837472+270572578+270540829+270740477+270833374+270446729
1925+269376232+268420455+268003885+267692937+268366695+270015421+270821381
1911+270543216+270414679+270965351+271692231+272201003+272503435+272581971
1898+272316683+272043668+272207977+272059138+271595743+272350762+273894185
1884+274863232+275339297+275691111+276048695+276381354+276431487+275403491
1871+272855926+271107197+272870776+276083959+277985549+278564267+278727730
1857+279065633+279580909+279991709+280070170+279489835+277847989+275683404
1844+275953260+279249792+281723483+282435982+282952104+283169873+281608555
1830+279601549+280074042+281759705+283597553+286234105+288309440+289154894
1817+289656768+289823332+289094047+288607944+289826960+291641254+292232115
1803+291215435+289951850+290382219+291796672+291497811+289438510+289895702
1790+294263201+297833762+298926346+299111445+299282088+300053198+301388702
1776+301101890+298139033+295938018+298576206+303647970+307836743+309479679
1763+309243978+310260752+312276480+313974606+315654780+315422707+313213384
1749+313194210+316776313+320923975+323642353+325191151+327416659+329516299
1736+328803086+329520585+336438280+344183854+350702065+355672530+359146905
1722+361502942+360900859+358496399+361717046+371621734+381185474+387626955
1709+390573947+391731721+394095653+396030627+396737901+401536181+410178545
1695+421583723+433637527+441369265+446456124+449476991+450055351+457031544
1682+472624724+485596822+493307018+498859980+505904031+512059640+517390903
1668+527340368+537729129+543534690+548741327+556440433+562604575+563019624
1655+558015135+559755518+572391178+579414703+584354002+595682900+607650311
1641+615290694+618400397+618520250+624278630+638909153+651686396+660967535
1628+670325293+680741423+693529644+710571432+726320255+737570843+750891784
1614+767871089+780896233+788202886+793366251+798974514+803306955+805444153
1601+807043818+808038805+806973590+803528465+797993587+790761823+782464920
1587+773451156+763759255+754221117+745253745+735322289+722974756+712599078
1574+708330849+703378016+696174900+692838574+692875417+691896445+687114292
1560+677340359+675931902+690880103+705422729+717135960+727888942+738985841
1547+748627365+754667519+758891386+768328996+794110179+822418796+841373189
1533+858507160+877193126+890734072+898259904+903413644+905744681+904909096
1520+903993283+902264216+899747611+897550938+892303285+882073776+869290969
1506+866642556+878772640+887381431+888322733+886877207+890091725+897671167
1493+902008420+901483896+903438833+914030982+927236131+936223353+940309021
1479+941876204+942045306+940309698+939236437+944295514+953056715+958872577
1466+961222261+963591344+964838519+960254643+951159523+949620161+957075313
1452+962317552+962008597+958075715+954894732+953305894+950993279+946026911
1439+936399523+924811483+920537389+921359215+918696816+914506784+913401794
1425+913215623+913590971+915195373+917114821+923458817+934521656+942908862
1412+945399452+946150373+948510283+950837260+952759414+955696707+957545476
1398+956206269+954562167+956406575+961623475+966321640+967790324+967590544
1385+968035593+967854085+966809697+967167526+968317104+967733856+966983762
1371+967952132+969025919+970141361+970717992+969027047+967880852+969397658
1358+970622200+970329862+969701726+968240937+965466956+963365023+962769368
1344+962153112+959538384+954653071+950797559+950110173+950343563+949519707
1331+947919215+945666827+943544893+944594469+948762395+951494946+951065386
1317+950610712+952392863+955641593+958975061+961721748+964170532+966495930
1304+968450416+970282192+971646663+972345327+972989253+973499041+974447636
1290+977301769+981901360+986596518+990672486+994597098+998795926+1002906708
1277+1005966861+1008133307+1010060575+1012315143+1014338954+1013463744
1265+1010924882+1010330431+1010096741+1008538807+1008154060+1010270054
1254+1012903204+1013613974+1012010248+1010379831+1010563144+1011190453
1242+1011379856+1012112206+1013171782+1013994134+1015022957+1015896062
1231+1015805157+1015462893+1015414245+1015164539+1014886337+1015555076
1219+1016722248+1016694503+1016477280+1017869045+1019421641+1019153213
1207+1018436277+1019972782+1022698190+1023676636+1023187902+1023097073
1196+1023487383+1023758217+1024346428+1025378108+1026261890+1027305300
1184+1029593704+1032518591+1034913163+1037861960+1041208888+1042987430
1173+1042577494+1040703762+1039610727+1040680754+1043046754+1045699002
1161+1046780985+1045008083+1043468946+1045752838+1050277164+1052526846
1150+1050914098+1048324633+1047756724+1049403608+1051354936+1051291401
1138+1049424060+1047867479+1048379372+1050957407+1053509653+1055576021
1126+1057040269+1056647176+1055852043+1055750988+1055867157+1056381004
1115+1055740086+1052824598+1047205432+1038736118+1033291167+1035264751
1103+1039787423+1042812162+1044093022+1043191946+1043537068+1047076782
1092+1049861439+1050591157+1051342304+1053000317+1054969690+1055263607
1080+1054788858+1055865277+1055493087+1051988561+1049914148+1051205008
1069+1051989163+1050214306+1049789032+1053567173+1059276191+1063618332
1057+1063829089+1060249449+1056922747+1056193405+1058440079+1061394140
1045+1060131701+1055994979+1055041346+1056467548+1055229170+1051710434
1034+1049005327+1046831212+1044415887+1043257512+1042833140+1040786697
1022+1038741231+1039108082+1040131417+1039660202+1037655790+1034561726
1011+1032973866+1035972363+1038911611+1036921937+1035766418+1039185904
999+1043267737+1044734542+1044828078+1047161521+1050087084+1050257765
988+1050560104+1052185108+1051758556+1051088689+1053715823+1055912646
976+1055692340+1055676550+1054691563+1053226788+1054535093+1057379752
964+1058906031+1059950043+1062894178+1067231582+1070958594+1073408506
953+1073741823+1071501390+1069252836+1068984108+1069227573+1069773977
941+1071259579+1072128098+1071248526+1069774429+1070115715+1071092582
930+1069856611+1068999672+1070246471+1070678061+1069255092+1066939018
918+1064965133+1065636804+1068527780+1069639012+1068297398+1067368051
907+1067155414+1066014408+1064048418+1062574245+1061647680+1062424391
895+1065678760+1066339003+1061887686+1057625848+1056262430+1055765124
883+1053872895+1049687901+1045829683+1045529073+1046966253+1045273879
872+1040210291+1037503530+1038739126+1038809428+1036503354+1034585260
860+1032394829+1028228707+1024267102+1023488662+1024079278+1023116998
849+1021934487+1022478185+1023932131+1024476356+1023906642+1024000629
837+1024415978+1022663077+1020740246+1021687262+1022617737+1020888069
826+1018452819+1016220807+1013491940+1010574422+1007899467+1006529131
814+1006708008+1006619209+1006226417+1006996963+1008343087+1008367449
802+1006140700+1002533165+999484440+998218167+998664570+1000127314+1000409276
789+998137940+995500805+993678127+990738353+986116280+982173999+979652581
775+976991611+974004317+970036847+965809220+964654830+965895238+966564804
762+964655732+959572294+953395370+945355766+937168264+935428746+938100168
748+938808457+937606396+935687024+933712612+933638024+934170970+930672911
735+923102642+916369990+912497785+909368834+905360310+901188926+897584774
721+894172957+891146564+889654045+887850916+883193655+880176059+883052072
708+887690235+888629808+886272154+885440253+887056234+887834600+888092727
694+889005758+889270501+888268972+886615922+886105533+887418875+887846104
681+885470555+883531558+884718957+887393461+890029543+887074355+875528271
667+873804017+886814499+894837034+896919869+897562743+895364717+890740238
654+887518803+886938111+888600484+891392661+890923025+888167616+888164909
640+887885428+882936956+884482109+911423623+943499103+931847678+899056465
627+881381052+871161694+862887197+861826568+868373953+871992617+865195827
613+862678394+873763339+885093327+881754971+865735315+848746385+841619511
600+847654252
##END=
