##TITLE=Sample description
##JCAMP-DX=4.24
##DATA TYPE=INFRARED SPECTRUM
##DATE=12/9/2023
##SAMPLING PROCEDURE=Instrument type and / or accessory
##ORIGIN=Default
##XUNITS=1/CM
##YUNITS=ABSORBANCE
##RESOLUTION=4
##FIRSTX=4397.6552
##LASTX=599.8556
##DELTAX=-1.9287962
##MAXY=1.8612344
##MINY=0.28204775
##XFACTOR=1
##YFACTOR=1.7334096e-009
##NPOINTS=1970
##FIRSTY=0.30790016
##XYDATA=(X++(Y..Y))
4398+177626888+177382904+177230317+176225135+176167745+177335400+177644236
4384+177155648+177208878+177925580+178808229+179196582+178679523+177527789
4371+176621207+177099273+178917713+180379470+180460603+179707073+178833864
4357+178311200+178174035+177730974+176551593+175787610+176684099+178096856
4344+178374384+178029082+177917551+177747823+177603816+177802961+177658730
4330+176881577+176258747+175791289+175117895+174970209+175623899+176518239
4317+177551687+178119293+177271821+175780423+175377869+176489321+177799092
4303+177955152+177622315+178094569+178841222+179139244+179461129+179777942
4290+179636858+179436836+179484580+179504730+179487159+179157004+178153782
4276+177235252+177180956+177757726+178572601+179344166+179960050+180548786
4263+180640836+179764274+179050443+179747477+180803051+180512939+179331288
4249+178834379+178901311+177943891+176630354+177164434+178607949+178822138
4236+178286872+178349763+178720030+178391680+178005854+178673471+179636136
4222+179577938+178946133+179098806+180029767+180747467+180767445+180591854
4209+180783537+180866115+180395855+179738003+179095729+178452405+178220198
4195+178297927+178061198+177952952+178703748+179966239+180398142+179093769
4182+177563997+177690485+178729004+179259422+179333678+178979539+178077222
4168+177964436+179408209+180580971+180378370+179917033+179639574+179183756
4155+178614276+178199841+178073250+178255013+178673437+178846329+178779156
4141+178786291+178457666+177740482+177150748+177058526+177352971+177545480
4128+177698909+178203761+178785775+178943898+178991454+179276306+178958667
4114+177652128+176948251+177492698+177674753+177318585+177722567+178346050
4101+177840476+176636733+176071379+176290537+176696426+177087977+177389764
4087+177688129+178072459+178078081+177883888+178211154+178358411+177797751
4074+177405564+177376371+177372657+177364250+176953563+175768664+174460697
4060+174400900+175839481+177493729+178455534+178393623+177294189+176329633
4047+176511173+177424012+178027878+177874793+177490377+177151041+176748710
4033+176588352+176807647+177048520+177123429+177236472+177485975+177768231
4020+177698909+177174750+177013790+177207519+176822278+176353996+176856492
4006+177730940+177706543+176791950+176031044+175899140+176035136+176464219
3993+177503443+178497364+178541997+178142331+178051415+177690382+176841036
3979+176495510+176816519+177101319+177424236+177922709+177794278+176949781
3966+176551507+177087169+177827082+177804010+177010644+176269458+175971729
3952+176295316+177424253+178497055+178189887+176908415+176318630+176519597
3939+176338333+175715211+175338858+175620650+176579515+177332133+176772333
3925+175590992+175092433+174873241+174677551+175288793+176689326+177474559
3912+177027544+176195872+175000657+172983931+171548548+172224315+174404648
3898+176613041+177003904+174755246+172396502+172845821+173338517+172733585
3885+173040307+172755816+172698030+174401313+174295233+172655186+171777764
3871+171421029+172544893+173386589+172566470+173077684+175032636+175215259
3858+171636524+164686866+162712692+170584973+176283952+177041127+175263433
3844+172554367+169499792+166647044+166547188+169625197+171893128+172691394
3831+173554907+174114209+174147202+172373773+167648341+165962870+168969219
3817+171193876+174314162+177279540+176689308+173546843+171675019+171752748
3804+169959426+169503437+172954755+174827593+175992532+177999390+178796641
3790+178805117+178904578+178817960+178771402+178074660+176901176+177705873
3777+179862841+180562935+179272282+178023253+178801524+180422899+182122778
3763+182996125+181910360+181326695+182489846+182233620+179457329+179009575
3750+184619890+188954459+191277734+197770732+204350211+206536992+206533932
3736+207282991+210670679+216347290+221364003+223862096+225226008+226806653
3723+228308160+230087573+232393191+234484792+235568357+237547551+245503303
3709+257963833+269159414+277843749+286547358+298339394+311013581+320474897
3696+325817829+327454282+325733102+323264684+323587739+323498301+319113805
3682+311585244+303273891+294209559+286078302+283855158+283034197+280795717
3669+281976628+284461516+284715610+283824589+283038753+282173762+281624793
3655+282019215+280786055+277369793+277398832+283189862+288906377+292091773
3642+293752916+295069754+296465369+297974217+298818354+297933023+296878686
3628+299435441+302636413+302622384+299661975+296179486+295619926+296354372
3615+295895528+296392128+298698966+301255137+303982720+306377071+307536972
3601+308306251+309119371+309520447+310405537+311987695+312491516+311127845
3588+309579075+309540597+310315859+311026957+311086513+310584377+310457081
3574+311193040+312210309+312312813+311475932+311239530+311832341+312664648
3561+313422442+313311961+312598043+312237405+312245692+312364564+312808931
3547+313594990+314095028+314157370+314186941+314297388+314409417+314218198
3534+313781327+313456450+313241573+313569682+314622128+315040775+314205200
3520+313406315+313174865+312869244+312420509+312108011+311880343+311621762
3507+311532978+312075929+312801641+312378627+310894881+309744058+309381735
3493+309254163+309268124+309335314+308892253+308200893+308270421+308986195
3480+309128105+308481033+307773443+307296546+307089544+307356447+308039279
3466+308277917+307451592+306389553+305852000+305390646+304738760+304410995
3453+304641517+304842021+304517419+304125834+303986502+303778468+303810241
3439+304289132+304480695+304101317+303631332+303204020+302610899+302070320
3426+301756688+301294612+300677318+300392019+300461238+300468699+300384729
3412+300618003+300977506+300756818+300089046+299827198+300194370+300587090
3399+300680206+300497480+300021856+299715169+299722975+299535641+299344525
3385+299672703+300190587+300270947+300032481+299735148+299273484+298898920
3372+298837060+298844865+298901499+299311996+300123673+300791272+300766583
3358+300477984+300574161+300720919+300648468+300717205+300861970+300881501
3345+301154696+301727013+301986110+302115538+302719902+303220250+302925357
3331+302221790+301635890+301340070+301293511+301246403+301297190+301688157
3318+302095594+302367689+302590027+302355585+301575406+300782814+300367605
3304+300283119+300067624+299772938+299849446+300177246+300883530+301966407
3291+302821443+303426496+303731635+303528621+303735280+304814065+305518320
3277+305435588+305371115+305707511+306713295+307924190+308425329+308485366
3264+308479555+308119433+307577581+307193871+306771235+306329240+306317583
3250+306518603+306445430+306504436+306546661+305936623+305387551+305175460
3237+304748285+304378466+304324893+304380873+304296353+304063870+304136252
3223+304302680+303715955+303048802+303580097+304593102+304420864+302986392
3210+301805172+301665634+301882265+301715837+301252042+300749012+299926023
3196+299122840+299105303+299227304+298522155+297697687+297667324+297684861
3183+296663122+295058888+294397683+294651244+294160834+292558766+291323870
3169+291631382+292305412+291397524+289457994+288648346+288979894+288609387
3156+287430918+286922834+287871279+288774542+287531187+285180231+284868541
3142+287163723+288258480+285990016+283362358+283177878+284113103+283005485
3129+280150141+278952227+280933828+282414789+279566838+275591790+275528744
3115+278705354+279022288+274529699+270875436+271571061+273490819+271234544
3102+265650018+262915180+265355212+268117972+265621977+260872406+259963074
3088+263470648+265554839+261655422+256514249+255674342+258315823+259149851
3075+255867848+252993042+253948640+256964308+257070542+253307053+250426608
3061+250985050+253453313+253933768+251475615+249428560+249300215+249838559
3047+249429592+248193234+247333968+247121911+247095623+246660918+245755402
3034+244965699+244866031+245081647+244583312+243522665+242998798+245398805
3020+256654853+276911482+289993002+284050452+269744196+258424379+251417795
3007+246812920+243643187+241730134+240650266+239624383+238121003+236829112
2993+236796273+238330378+240113779+240022519+238605911+238144058+239529822
2980+241398500+241236423+239355486+238079997+238236143+239541617+239981686
2966+238113025+236013481+236221257+239305679+241629195+239233469+235318768
2953+234204342+236127418+238875151+238642153+235527197+233471873+234198221
2939+236652300+237505497+235136128+232516258+232163546+234401063+236849193
2926+235743810+232355934+230267221+230494030+232151493+232256542+229796755
2912+227475784+227216412+228968728+230484350+229544140+227578924+226878864
2899+227811595+229189880+228990030+227313655+226233924+226452703+227478242
2885+228163534+227624399+226854037+226882371+227493389+227931670+227531299
2872+226744776+226421292+226598602+227023078+227287900+226870972+225967400
2858+225304390+225193668+225261683+224930325+224162129+223372924+222994921
2845+223064724+223049405+222818453+222719250+222814963+222998824+223032212
2831+222830161+222774130+223081642+223443397+223386953+222814567+222196397
2818+221932658+221929495+221959118+221881578+221768277+221782753+221838046
2804+221894266+222125872+222491444+222737113+222741945+222560130+222458692
2791+222651029+222804149+222576876+222164728+221869440+221754746+221642597
2777+221526545+221586531+221611323+221406367+221130472+220797497+220460844
2764+220395493+220576775+220683767+220601722+220473497+220457422+220610783
2750+220829820+220952560+220960435+220933768+220890906+220807177+220706427
2737+220642555+220620909+220605247+220676803+220880488+220937551+220740108
2723+220613413+220650859+220668654+220646802+220575623+220389373+220185998
2710+220135571+220233949+220292731+220191328+220010287+219917926+219936753
2696+219934655+219939263+219987093+219969694+219960324+220058719+220145681
2683+220153005+220143549+220106223+220053131+220064169+219991065+219651815
2669+219294134+219252458+219332973+219224572+218999448+218696543+218292390
2656+217964539+217883199+217985394+218055954+218129023+218282504+218231734
2642+217893945+217608251+217454615+217212040+216965030+216924214+216900110
2629+216691474+216450928+216264884+216020573+215697416+215401440+215210977
2615+215023403+214764392+214629015+214630786+214502682+214251476+214018444
2602+213712892+213276313+212890986+212794465+212949270+213063860+213011216
2588+212801222+212475399+212216801+212049841+211873459+211745767+211602585
2575+211343626+211106742+210933661+210749095+210628436+210640711+210696537
2561+210678742+210560438+210329211+209995462+209682672+209513494+209474019
2548+209408686+209187482+208862279+208604059+208514518+208494832+208408644
2534+208258860+208098639+207940482+207822590+207775104+207721702+207650919
2521+207622001+207639950+207696532+207664123+207459408+207270561+207260933
2507+207320489+207282201+207190958+207137299+207114364+207131281+207168074
2494+207213532+207305016+207419830+207562943+207748283+207875304+207922894
2480+208010113+208137117+208201212+208206989+208214176+208224990+208212061
2467+208217391+208344859+208510942+208534084+208450182+208365920+208335729
2453+208383457+208470126+208562693+208654038+208789553+208993289+209214252
2440+209461451+209676517+209718536+209677824+209738910+209920278+210161460
2426+210342604+210385775+210357459+210344048+210411014+210552684+210659366
2413+210683075+210760941+211026417+211392574+211696888+211860220+211906005
2399+212027954+212569427+214031786+217411340+224246168+236054881+253761839
2386+276905740+303373885+330856549+358250085+385439885+413122055+442584274
2372+473977976+505834580+536200836+563126828+583990504+596763928+602789898
2359+601440325+587326475+562218803+533828217+507096229+490958122+494039776
2345+511805499+521177069+513053222+501147730+492174829+487771867+489715317
2332+494620346+495252459+491617470+489773635+490389828+487971958+479254990
2318+465437339+451043073+444584117+448361739+451685124+444023147+425740743
2305+404261596+387817593+377747407+369277605+359632840+348423935+335080223
2291+320804072+307861402+296718105+286826794+278327575+271465531+265870397
2278+261051195+256874406+253231421+249924111+246973106+244412621+242135749
2264+240127946+238430732+236984965+235664018+234395423+233226702+232170732
2251+231153515+230141679+229161839+228380542+227874332+227398708+226840627
2237+226334004+225910268+225601466+225485397+225401324+225184109+224975903
2224+224874946+224829488+224897658+225102099+225281163+225344759+225420786
2210+225629680+225882639+226035466+226177789+226472527+226777374+226879122
2197+226952552+227252104+227650034+227929676+228142713+228420241+228700949
2183+228848240+228889400+228948423+229031895+229062258+229064630+229085554
2170+229101681+229097555+229083886+229066968+229017143+228914175+228749055
2156+228522745+228238391+227922953+227676132+227539260+227438114+227289619
2143+227249130+227547753+228078635+228623461+229089285+229491667+229849830
2129+230105196+230288678+230518203+230804946+231077625+231356185+231653983
2116+231957386+232228277+232377184+232508297+232784450+233178803+233482533
2102+233624030+233838288+234217615+234632754+235029360+235567394+236290441
2089+236950029+237516311+238221873+239192653+240358382+241622042+242906386
2075+244245420+245852216+247720739+249655180+251685059+254039040+256717469
2062+259566331+262633113+265927563+269395782+272960659+276579470+280277420
2048+283956836+287526115+290911275+294104923+297053882+299660977+301972596
2035+303935164+305470043+306569356+307292730+307654262+307651408+307389869
2021+306835433+306019252+304994178+303718534+302285747+300735464+299110495
2008+297494433+295807329+293998327+292258097+290725420+289291223+287880013
1994+286499768+285199814+284112002+283216081+282356574+281533206+280807116
1981+280116340+279470781+278992234+278619957+278221116+277890531+277737824
1967+277732821+277855355+278036464+278206812+278454475+278838478+279240792
1954+279631088+280134152+280694331+281125855+281403709+281766858+282653306
1940+284012094+285238085+286129949+286840789+287469086+288143133+288900188
1927+289513183+289840226+290133193+290404256+290484822+290930290+291880404
1913+292490098+292525997+292576028+293021977+293616267+294038077+294224757
1900+294285001+294319593+294390944+294546024+294504795+294389259+294899613
1886+295790514+296437310+296927308+297418681+297778150+297948119+298000935
1873+297586277+296320571+295274590+296030355+297684723+298699964+298891080
1859+298597872+298149654+297689228+297275670+297031359+296744926+295703208
1846+293925154+293315872+294317943+294727409+294214235+293819865+293320171
1832+291525955+289220801+288736408+289465903+290045062+290590765+290923103
1819+290956320+290746807+290085019+288934711+287921878+287827558+288219298
1805+288415108+288277943+287577264+286888706+286855764+286252294+284703867
1792+284722934+286967673+288873780+289707119+289812477+289461742+289443827
1778+289784143+289090754+286732130+285131266+287421874+291269575+293456648
1765+293587486+293064134+293727126+295043827+295906360+296520180+296351759
1751+295197153+294680954+295959417+297949563+299137282+299206707+299614866
1738+300313482+299509646+299509577+303027861+306632179+309072744+310550370
1724+311278454+311257651+309342122+306376314+307070185+311811090+315999209
1711+318116445+318128274+317141024+317121905+316852665+314990812+315006045
1697+318194673+323461062+329012749+331998123+333073091+332291915+329401240
1684+330270753+337132057+342353538+343980330+344301974+345760206+347096988
1670+348495079+353274841+358617531+361250898+363855346+368434741+372096448
1657+372069077+368629880+369726993+377558217+381377239+384298690+392025106
1643+399660778+403579794+404140008+402557540+404323043+411920925+417849791
1630+420159690+421449397+422893359+424638197+427699941+429821269+429323432
1616+430562386+435719187+440211517+442859532+445327021+448325840+451323798
1603+454463358+458187682+462207242+466115255+470264759+474966740+479652146
1589+484150253+488968870+494594831+501182459+507867640+512651527+515499805
1576+520939119+528982641+534308793+539000148+547030397+555734298+562625759
1562+566316866+566946091+574781407+591613282+606041555+618234478+629376022
1549+639945936+648974060+655446702+659019041+663890956+679206383+696156991
1535+706908875+716553812+728082264+737982824+746190710+753840034+759947774
1522+767843368+779548150+791379541+803781599+816372434+826015926+831260927
1508+833331157+841622394+859165676+873344378+881881405+887248200+892737065
1495+899271738+904359390+908048021+912975298+920364183+927967292+935012595
1481+942429401+947778316+948281242+946612982+947382467+952193863+958706324
1468+962126196+960496379+958772344+959133670+955874792+948161305+947393745
1454+954412158+958127267+957404753+955150765+953677403+952538408+950515355
1441+947878379+942617767+932189522+924102468+923180379+923094483+921123352
1427+917729751+914496731+915902972+921102377+925780631+931110015+937417055
1414+941041247+942060029+944307278+947660648+949821657+952699953+956638363
1400+958543197+959099422+961317511+966732378+973664070+977871376+978776823
1387+977425324+975064396+974895975+977484055+980083276+981005365+981107491
1373+982475770+985232478+988338477+992045746+994664635+994318439+993107166
1360+992599082+991298886+988906599+987955557+988948618+989160778+988562603
1346+987420583+984748395+981272887+976980647+972099929+968784727+967654742
1333+966525375+964083916+962885847+964318083+965267268+964300478+963734144
1319+964600322+966441474+968799376+971523280+974575362+977532195+982503210
1306+990093115+995453720+997061324+997772010+998672161+1000244622+1002974303
1292+1005945923+1007981905+1009375492+1011463259+1014954103+1019545018
1281+1024558740+1029716332+1035167028+1040095680+1042945573+1044405662
1269+1047145590+1051410665+1054489912+1055364755+1054964779+1054302234
1258+1054922691+1056003161+1055831645+1055822773+1057613722+1060250768
1246+1062736379+1065757307+1068193196+1068074771+1066749818+1066740672
1234+1068726313+1070646553+1069803138+1066027442+1062227263+1061213364
1223+1062064343+1063540043+1065836669+1066714882+1064396868+1061596009
1211+1060250287+1059023539+1058727684+1061469813+1065481258+1066988180
1200+1064484483+1060183234+1058548190+1059811455+1059181852+1056040573
1188+1053225684+1051342650+1050144649+1048981722+1048384579+1049423786
1177+1050350483+1049022916+1046050197+1043407306+1042453375+1042387423
1165+1040377231+1037362698+1036990094+1038514828+1039662763+1039286926
1153+1036954814+1035146328+1035408416+1035611774+1034378287+1032511208
1142+1031579835+1031751420+1030970450+1030215820+1030681334+1028666052
1130+1023436525+1018549068+1016561363+1018372394+1021356254+1021545858
1119+1018850562+1016643614+1017175287+1018260984+1017295981+1016752067
1107+1018312150+1018441784+1016674699+1017085471+1020173796+1022143620
1096+1020562974+1017671336+1017675050+1021954223+1026952334+1029601896
1084+1032493809+1036708818+1038871684+1038644600+1038827188+1040125320
1072+1042261159+1046229828+1049534921+1048547911+1047225297+1049358315
1061+1051179799+1051464169+1053413362+1055002604+1053566722+1052056980
1049+1051566295+1050399517+1049210594+1049771357+1051376554+1052012829
1038+1052229528+1053071911+1052817594+1050152008+1047086584+1044782806
1026+1042706592+1044216472+1050578185+1054964848+1054097226+1050402336
1015+1043456752+1034891598+1029158113+1028790116+1033681219+1039122837
1003+1041384390+1042019633+1040997894+1038035490+1036744373+1037894715
991+1038270345+1039016654+1043016958+1047474593+1048125998+1046380232
980+1047549761+1051700744+1054666036+1056870577+1058263751+1056501480
968+1054372450+1054422447+1055335527+1057239124+1060299183+1063056510
957+1064087121+1062408132+1060399521+1062116816+1066495157+1068797354
945+1068229989+1067648525+1067715990+1067391663+1066901116+1067816947
934+1069381981+1068313271+1065798708+1065038163+1066714607+1069584788
922+1068436578+1063478699+1062583293+1066031568+1067071875+1064351616
910+1062690921+1064351754+1067222004+1069445251+1071207178+1073464742
899+1073741823+1070760576+1070196511+1073116414+1072697527+1067671013
887+1062722349+1059834012+1059308941+1060393744+1060911044+1060488924
876+1059130617+1055435108+1050166519+1047487247+1047646935+1045546445
864+1042054844+1042036895+1043206011+1041556663+1038076134+1035356700
853+1037292826+1042741803+1042864079+1038085350+1036786530+1038306863
841+1037485662+1035669817+1035704272+1035398857+1035061189+1037602711
829+1038166500+1032077260+1027804482+1033079467+1040155580+1038617160
818+1031664905+1028924358+1032030839+1033618843+1031035302+1028312223
806+1025561842+1022288109+1019971883+1017678214+1015626895+1014504544
795+1012291681+1009776224+1008981912+1007959073+1004816075+1002042861
783+1002007169+1002100079+1000800365+1000557671+1001445787+1000862604+996890977
770+991187064+987300645+984969083+983300203+982798240+982113275+981048072
756+978442318+972707182+967860506+966024856+964951125+963421164+961181343
743+959237653+957061789+953475559+950995656+950298587+948131939+944031779
729+940832801+938802114+935109494+929666431+925465314+922865542+920361020
716+918367538+917736490+919457911+924810402+931431728+934842798+935669157
702+936474747+934608012+928302209+924921468+930623662+938303520+939672212
689+939054712+941870357+945318495+944293042+938808579+933655319+932660470
675+936684363+945543722+956132617+960405669+953272889+946377852+943733035
662+941610332+939553375+937197742+934238296+933833369+937222706+942379473
648+948712303+951804341+946039496+937805683+936821906+940361097+942723675
635+946068380+947272776+940858728+931426364+926808354+929880104+930788989
621+922989262+919372910+923470595+924220961+921470442+920717600+920788779
608+921996270+926442076+934465035+943479199+942667970
##END=
