##TITLE=Sample description
##JCAMP-DX=4.24
##DATA TYPE=INFRARED SPECTRUM
##DATE=12/9/2023
##SAMPLING PROCEDURE=Instrument type and / or accessory
##ORIGIN=Default
##XUNITS=1/CM
##YUNITS=ABSORBANCE
##RESOLUTION=4
##FIRSTX=4397.6552
##LASTX=599.8556
##DELTAX=-1.9287962
##MAXY=1.8167864
##MINY=0.20443413
##XFACTOR=1
##YFACTOR=1.6920142e-009
##NPOINTS=1970
##FIRSTY=0.20940609
##XYDATA=(X++(Y..Y))
4398+123761428+123726218+124313250+124535066+123656486+122465443+121789233
4384+121793311+122460484+123147244+123597050+124281300+125008007+125062441
4371+124680545+125075017+126244035+126816175+126532959+126263701+125924192
4357+124864800+123935802+124338860+125432202+126039939+126167258+126239227
4344+126323226+126527824+126779548+126917497+127451196+128270559+128072574
4330+126734669+125651323+125307613+125306785+125804226+126486433+126786787
4317+127186068+127527224+126957559+126142027+126339448+127403296+128097805
4303+127886161+128004225+129382720+130295109+129313816+128288410+128783456
4290+129802292+130300578+130242965+130309755+130967884+131171532+130320297
4276+129447512+128997610+128973259+129582193+129869681+129047993+128201170
4263+128498143+129493342+130099450+130332221+130701286+130772374+130193030
4249+129945692+130539911+130673870+130073751+130019537+130164655+129493043
4236+128610887+128378283+128585814+128962013+129794154+130849010+131404867
4222+131461802+131813421+132354693+132079896+131446074+131181756+131246010
4209+131699691+131621354+130744615+130419628+130745716+130738257+130457295
4195+130375339+130378034+130920724+132239193+133062854+132805238+132127919
4182+131215248+130197654+130135998+131227745+132138769+132321034+131961859
4168+131551279+131758942+132150517+132364557+132589807+132572520+132421528
4155+132517469+132566240+132220135+131902334+132080997+132575672+133187874
4141+133783097+133955956+133482029+132532695+131587906+131182857+131242769
4128+131201193+130922380+130964802+131721135+132700103+133077675+132725528
4114+132222345+131801303+131403643+131452247+131993810+132420497+132753860
4101+133455961+134344730+134752976+134395246+133883934+133873260+133997911
4087+133831921+133823784+134402247+135134265+135289167+134717291+133868883
4074+133551884+133877822+133966268+133705016+133698111+133809041+133507436
4060+133086315+133274594+133797293+133965626+133986691+134302053+134420556
4047+134047960+134111985+134719308+134817671+134353070+134254320+134826953
4033+135467354+135743261+135513185+134902656+134792395+135468983+135883209
4020+135621737+135350858+135349150+135485065+135608526+135651838+135989366
4006+136745770+137164927+136975018+136714470+136264982+135586650+135248612
3993+135348005+135698038+135836762+135565347+135439005+135563357+135608262
3979+135445672+135292769+135600037+136135065+136177346+135722856+135516998
3966+135813521+136085694+136270522+136426657+136323855+136181168+135914121
3952+135161716+134662117+135278520+135571943+134645798+134853911+136623426
3939+137423018+136329113+134234293+133128763+134292242+135723789+135203838
3925+134271203+134777600+134696525+133408774+133808064+136380747+138115573
3912+137984749+136945287+133968902+128850272+125509358+126242908+129984680
3898+134799661+136410259+133501465+131106784+132522647+132848823+131797313
3885+132754062+132769588+132921505+135424095+135023273+132033828+129795238
3871+128602001+130324850+131918988+131524383+133769464+137254932+136480184
3858+130265149+121347389+120822938+131742509+138458279+138759118+135707876
3844+131689783+128223328+125762720+126558939+130624341+133573716+135017117
3831+136267140+136612823+136227959+133749657+128472093+127762057+131608778
3817+133628987+137386611+141263699+140410958+135992536+133105091+132839268
3804+130713025+130956823+135573678+137755324+139277343+141571856+142149993
3790+141575097+140699406+139924340+140207117+140157878+139682366+141690307
3777+144377460+144142117+141342035+139273583+140262520+142094361+143526939
3763+143292591+140533081+139362355+140513742+138801153+133130586+129985825
3750+134176900+136251429+135124393+140190630+146223084+145001278+139566319
3736+136925982+141028250+148265363+152952637+153905105+154454682+156920575
3723+160495186+165096647+169943112+172504417+171229955+169010089+173385762
3709+184293990+194742469+202159346+209438132+220405189+231419767+238341862
3696+241809876+242009137+239941874+241185582+248334345+253962516+254300537
3682+251285896+246733717+241034722+238398490+242767276+245570978+246514851
3669+252641960+259235369+262118174+263488417+264492053+264440340+265627738
3655+269245660+269072449+264022283+264603723+275194520+285020749+289688296
3642+291538544+293253396+295312081+296984696+297547836+296062100+295134731
3628+300976272+308123591+310325456+309202524+308644211+312210385+316691863
3615+318551005+320068585+322599859+325582673+329365141+332635830+334412365
3601+336281934+338823353+340369081+341439313+344050834+345818351+344018390
3588+343199749+347495933+352032048+353673029+354301549+355615659+357009698
3574+358022898+358481202+357021781+354691301+356087278+360185345+362838434
3561+364186220+365270509+365691507+365114171+365085989+366458681+366711964
3547+365252648+365188218+367445813+369465450+369572610+368910342+368869514
3534+369023632+368513298+367517500+366739758+366137129+365802437+366141708
3520+366561650+366428562+365860103+365141895+364376975+363646507+363132474
3507+362466507+361350268+360946566+361897344+362688261+362509731+362054245
3493+361404764+360124191+358609464+357737665+357282003+356526524+355830156
3480+355635809+355568736+354999327+353785121+352561580+351827555+351392043
3466+350765882+349752647+348716902+348052766+348116351+348627531+347999609
3453+345841037+343705398+342525398+342067411+341759351+341609319+341511810
3439+340833725+339921345+339349223+339087768+338938828+338534104+337795182
3426+336847011+335957423+335554179+335643057+335956542+336278235+336315259
3412+336229481+336819534+337843161+338072102+337631411+337525484+337925839
3399+338327639+338216955+337752099+337523300+337670654+337750197+337398526
3385+337243949+337914672+338677478+338634079+337773376+336720123+336075504
3372+335847514+336037177+336714910+337462146+337736564+337256173+336316351
3358+335613889+335503558+335815000+335958444+335837933+335924662+336090651
3345+336257240+336472125+336107948+335080798+334282553+334206287+334171764
3331+333403075+332369901+331824305+331438217+330555603+329459690+328603603
3318+327400142+325640128+324308124+323694786+323378870+323614116+324326688
3304+324540164+324197934+324230483+324484153+324258137+324242954+325380998
3291+326916228+327566237+327446465+327066542+326320750+325467903+325116831
3277+325097209+324867318+324672442+324690830+324322250+323305104+322105131
3264+321248374+320715037+320159612+319671013+319569665+319317932+318253266
3250+317235240+316669529+315299232+313208261+311892743+311575770+311695753
3237+312100300+312313494+311693921+310692099+310243060+310285615+309992103
3223+309332723+309275973+309604711+308912641+307499015+306670969+306375942
3210+306182510+306213158+306417616+306411134+305866348+304926420+304032675
3196+303294880+302785250+302678125+302520942+301706352+300510711+299605024
3183+298882024+297868366+296794752+296066821+295539718+294945421+294597747
3169+294562626+293816271+292066104+290431111+289697174+289676953+289934569
3156+290037907+289548762+288595466+287429046+286325524+285966666+286287954
3142+286532306+286135844+284985787+283661761+282600722+281681121+280895065
3129+280286764+279741626+279273423+278847916+278337247+277723134+276773114
3115+275493263+274377041+273376752+272117544+270833448+269810032+268751407
3102+267397245+265974988+264717048+263640017+262844044+262189156+261377895
3088+260788142+260553635+259988101+259212983+258873764+258638447+258054436
3075+257322665+256594487+255970774+255563814+255268506+255049922+254861563
3061+254698515+254772861+255024048+255104911+254891224+254414338+253646671
3047+252944314+252805801+252918669+252826092+252717980+252604285+252195634
3034+251578368+250899666+250281960+250034684+250027586+249851010+249500783
3020+249190239+249001246+248649733+247994968+247499606+247299322+247073711
3007+246935973+247024763+247019215+246896783+246888646+246813471+246851499
2993+247792149+249532487+251138735+252408264+253651743+254689673+255192362
2980+255350990+255497323+255427714+254922242+254128066+253051052+251899374
2966+251100408+250507554+249810358+249112669+248615316+248324429+248140139
2953+247963581+247720796+247710017+248158827+248599129+248799219+248921404
2939+248705145+247949455+247064411+246483781+246065619+245518860+244881638
2926+244287340+243774945+242984645+241531265+240071827+239368642+238989670
2912+238483122+238122715+238031477+237825170+237151770+236336035+235792253
2899+235472937+235362271+235317850+235120156+234982788+235130794+235323927
2885+235291817+235183723+235073903+234821924+234548333+234433792+234361031
2872+234007510+233310913+232623422+232175581+231802650+231289797+230701699
2858+230256095+230005349+229597895+228693600+227575317+226580488+225830593
2845+225601071+225782631+225855445+225667386+225466909+225394517+225385640
2831+225444240+225551577+225524840+225301765+224975280+224459521+223769054
2818+223351402+223345766+223360984+223251886+223175461+223154730+223129842
2804+223180674+223327342+223481038+223578669+223455833+223157495+223010528
2791+223072157+223032791+222621040+222023237+221653758+221540380+221377755
2777+221081830+220827825+220703509+220657186+220422891+219876308+219406837
2764+219262353+219258866+219191882+219030084+218919594+218894618+218774107
2750+218603590+218627051+218723556+218600878+218364452+218250052+218184829
2737+218001789+217750268+217614838+217672135+217804201+217880203+217917385
2723+217915501+217760396+217563371+217551975+217573006+217539241+217600307
2710+217596731+217443564+217364374+217406893+217404497+217243897+217018462
2696+216868007+216769283+216686341+216662915+216631264+216507617+216344533
2683+216131674+215863755+215574241+215235216+214991938+214862849+214478663
2669+213872441+213539739+213499175+213343965+212950637+212599195+212499837
2656+212406714+212084281+211790505+211761126+211778070+211583230+211201580
2642+210822290+210576353+210395057+210246874+210217794+210207825+210017071
2629+209686870+209404208+209196598+209012501+208843235+208722371+208722777
2615+208730350+208609997+208522793+208526175+208404923+208193702+208152046
2602+208198123+208037417+207709083+207439984+207222281+207039840+207014512
2588+207027898+206836351+206452870+206078424+205853816+205778800+205762261
2575+205691596+205590899+205484760+205270016+205002449+204789520+204535726
2561+204171162+203788508+203416634+203048106+202885886+203032201+203129551
2548+202842310+202415517+202235718+202201830+202102031+202015672+201999380
2534+202031947+202132925+202178386+202064092+201963571+202028301+202143388
2521+202160632+202154009+202217048+202223882+202102753+201989199+202022506
2507+202183494+202294547+202276669+202239065+202238078+202218703+202193164
2494+202290496+202489863+202557693+202481849+202525725+202772807+203043263
2480+203175839+203161273+203036569+202863851+202751600+202639578+202459727
2467+202422069+202578653+202695942+202744731+202852825+202988925+203066178
2453+203116658+203236201+203443741+203632364+203717402+203789688+203943472
2440+204138718+204359785+204566339+204660941+204675965+204712619+204810039
2426+204917464+204972242+205031406+205163384+205328793+205489974+205640552
2413+205741971+205883284+206188561+206514341+206695390+206795629+206930126
2399+207097260+207297825+207556955+207721994+207727683+207725763+207617704
2386+206999805+205587341+203297338+200070700+196014782+191469649+186761767
2372+182062797+177465634+173164290+169294124+166003637+163797597+163179028
2359+164276050+167221189+172154929+178801549+185344583+188402519+186382178
2345+181575819+178187295+177334906+177956540+179241217+180332850+180812502
2332+181198026+182503998+184721558+186756412+188240985+190020796+192601159
2318+195412488+197776416+199584161+201180651+202798135+204396069+205990726
2305+207509875+208766987+209776276+210676961+211512617+212214692+212729024
2291+213153457+213683536+214317270+214850396+215171138+215291738+215331404
2278+215382641+215389476+215390180+215513158+215731900+215893627+215967534
2264+216067473+216263687+216548832+216786967+216850059+216843665+216924036
2251+217106177+217295241+217401908+217534045+217806772+217981974+217939842
2237+217965065+218121632+218297837+218526443+218735516+218841866+218919084
2224+219007750+219089442+219161375+219202538+219202908+219205004+219288404
2210+219491417+219744171+219994424+220241876+220454243+220617185+220734315
2197+220806830+220842885+220891181+221035735+221247291+221406148+221501208
2183+221641270+221838348+221981335+222096087+222251720+222345952+222356027
2170+222445468+222644043+222796383+222875855+222995362+223160806+223334229
2156+223532804+223696821+223745117+223757288+223885462+224142267+224424206
2143+224711765+224977095+225056937+224981410+225006562+225183736+225313883
2129+225321069+225388106+225560067+225689579+225832337+226058670+226235598
2116+226345365+226520655+226723686+226794316+226784365+226886418+227123161
2102+227367725+227557739+227686776+227714359+227691743+227732377+227796649
2089+227792703+227802902+227956122+228212187+228441409+228528491+228458917
2075+228413369+228549997+228774217+228851875+228695502+228532683+228619059
2062+228867075+229094607+229254396+229287140+229244022+229302006+229464402
2048+229609996+229703594+229687478+229549740+229534328+229727161+229902979
2035+230031611+230204399+230322621+230356633+230444295+230541152+230524860
2021+230449808+230374898+230444137+230814655+231254130+231479970+231571807
2008+231701900+231887371+232024545+232091071+232262838+232597583+232692467
1994+232205312+231762421+232086192+232735162+233191934+233535239+233850873
1981+234095542+234299243+234588932+234877723+235050935+235057311+234824689
1967+234814015+235399806+236043580+236412090+236695808+236888870+237045014
1954+237283342+237484366+237589624+237623407+237345254+236687266+236662906
1940+237829996+239005434+239486265+239688239+240016221+240453864+240736244
1927+240543076+239858316+239497485+239678217+239808593+240564142+242074572
1913+242914578+242839791+242871372+243483037+244244663+244821417+245286661
1900+245639601+245694150+245632890+245791077+245715127+245563123+246423050
1886+247746582+248609557+249278536+249898391+250435268+250964061+251321669
1873+250746552+248832368+247582953+249301099+252215185+253980200+254683490
1859+255167985+255805119+256545151+257271339+257791272+257713614+256679278
1846+255129218+255499313+258409560+260729066+261596814+262290575+262781129
1832+261856560+260615741+261413439+263123835+264880977+267188929+269017935
1819+269969417+270714962+271180434+270912903+270814056+272024598+273697952
1805+274495228+274109228+273556674+274377816+275941844+276019097+274627523
1792+275278677+279091740+282240966+283368143+283730489+284001385+284770197
1778+286089855+286037032+283701567+281991964+284308371+288592278+292053704
1765+293419667+293246826+294034837+295678055+297120849+298474694+298155396
1751+296128785+295783666+298238955+300970283+302424772+302972975+304108378
1738+305057465+303532310+302805506+306909068+311699628+315468075+317995439
1724+319213379+319363234+317042125+313050620+313461966+319623844+325759654
1711+329287078+329885937+328884644+328703965+328178941+326029634+326438479
1697+330677101+337556695+344725996+348143511+348811627+347559658+344028465
1684+344800747+353068850+360005194+362788870+363720625+365799407+367663023
1670+369317144+374745806+380826697+383658246+386497545+391912998+396341846
1657+396240463+392163180+394180597+404168272+408862979+412817601+423058488
1643+433289899+439285505+441451651+441036747+444961708+456261625+465502557
1630+470534000+474757510+479372322+484368396+491268281+497367912+500715925
1616+506492877+515917659+523408724+528579137+533784107+539805570+545842568
1603+551838104+558067935+563885645+568797456+573450243+578357862+583172764
1589+587650613+591919249+596490239+601799587+607211517+610670319+611988373
1576+615966281+622860423+626948380+630120997+636845768+644565561+650151160
1562+651800138+649442110+654381363+670206475+684231485+695804412+706190610
1549+716481907+724901732+729074022+730224890+734882961+752439974+771506185
1535+782373232+791131096+801868367+809842852+814469148+819109958+823280769
1522+827594108+835321581+844807517+854342066+862366010+866366322+866326445
1508+864675072+871833769+889676827+902592115+908121491+910388492+916138390
1495+925497015+929281667+926526208+927133663+936154673+946273146+952898224
1481+956530343+958129510+958726678+959462289+960523539+963174796+967838574
1468+970093809+968709527+969286616+972745348+972183617+963808671+957551716
1454+961819330+967122408+967790172+964734861+961620297+959085219+955994892
1441+952705251+947682016+939016518+932241231+930284158+927744077+922954821
1427+918585260+916218989+916519053+918965923+923298144+929853120+936855832
1414+942401906+945057813+945231201+945266005+947034402+951547197+956317360
1400+959367035+963510862+968057475+970931508+974482463+977465982+977496277
1387+976094382+976260019+979167166+983588793+987111919+989255202+990976889
1373+991919353+991798172+991049456+990795117+991708272+992782415+993612435
1360+994235883+994504313+994051997+992015029+988118003+983784796+982109046
1346+983793251+985023238+981873377+975783257+972170372+972255269+972322694
1333+970894237+970142492+970858517+971644080+971969366+971795627+971811408
1319+972787197+974159995+976059014+980006978+984846609+986818971+986531096
1306+987536616+990420020+993958082+996778288+998456293+1000073566+1001574308
1292+1002431171+1003477343+1005491555+1010141946+1018813081+1028637479
1281+1035233952+1037965598+1039005993+1040456713+1043782215+1047887081
1269+1050031139+1050145416+1049526124+1049565861+1051595290+1054541468
1258+1056283868+1055938925+1055319351+1057172153+1060894241+1063810194
1246+1064808881+1065614523+1068508565+1072237769+1073741823+1073309094
1234+1072917581+1071799968+1068801865+1065733379+1064350154+1063584953
1223+1062261966+1060569096+1058474989+1056607675+1056002192+1057258388
1211+1059706738+1059993275+1057020958+1053318526+1050690519+1049720085
1200+1049278760+1049206474+1050108921+1049439184+1047106873+1045847647
1188+1044899758+1043452772+1041888833+1040290582+1040454176+1041566928
1177+1040637216+1039501003+1040310591+1040626718+1038733617+1036897443
1165+1037008479+1037049131+1034411331+1030191554+1027965981+1029377035
1153+1031242588+1029649904+1027101509+1027528179+1028542647+1028165789
1142+1028866384+1031813689+1035958995+1038354081+1037054979+1034415981
1130+1032192098+1030031765+1028168043+1027058532+1026836461+1027965840
1119+1030061989+1030567850+1028791209+1027427571+1029195686+1034088087
1107+1036136540+1031914227+1028035589+1026954824+1024277499+1022204247
1096+1024917856+1029069714+1030488800+1032037028+1038985068+1046530770
1084+1045135074+1039042418+1034844271+1030744408+1027766103+1029355546
1072+1037435149+1050537634+1057672447+1052453491+1045097734+1042167126
1061+1040985118+1040429447+1039999043+1039475076+1041607650+1046283969
1049+1048210606+1047276949+1047898354+1047121316+1041990075+1037549003
1038+1038333720+1043139252+1045359823+1043076688+1041549878+1039064822
1026+1034470935+1034335240+1036551373+1034380260+1030871859+1030799009
1015+1032946943+1033485494+1030087212+1025238070+1024084455+1027254254
1003+1029867254+1030204800+1032055065+1035450951+1035884314+1033459355
991+1033452451+1037785447+1042041648+1044373466+1047669871+1049831050
980+1048292896+1046773132+1046949408+1047863549+1049438621+1050862286
968+1054045190+1060031883+1062721820+1059712726+1057302422+1058752508
957+1061177537+1062854203+1064176837+1062346300+1058068117+1059751617
945+1067163949+1068739866+1063218028+1060888394+1063712968+1064700170
934+1061571516+1059586684+1061033177+1061995227+1061018452+1059833062
922+1059328540+1061119553+1064061504+1063211476+1058469635+1055798016
910+1057365972+1059991865+1062429576+1063705570+1062123806+1060460315
899+1060313277+1059284225+1058317806+1059520316+1058952597+1054947283
887+1054480032+1058825005+1059996022+1056250684+1053907381+1054797075
876+1053698485+1047365016+1039919148+1036774219+1037716261+1039329025
864+1039593650+1038654286+1037789181+1036644584+1034980388+1033855378
853+1032470180+1030764980+1029748962+1028525175+1028483184+1031300783
841+1032173850+1028983408+1026182154+1024838595+1024693107+1024708185
829+1021724243+1018026039+1018467433+1022318735+1023614526+1019204594
818+1013106794+1009996740+1011958252+1016216708+1017213633+1017197992
806+1019214106+1017480865+1010898200+1006404287+1006214343+1008142319
795+1012251341+1019794577+1026658424+1024865720+1014742808+1003856245+996737214
781+993387122+991518610+989510387+988237775+988572855+988198391+985266657
768+982500700+980700810+975503977+967440790+964046102+966835167+969298171
754+967454529+962848875+959451932+957817680+954493093+949184026+943670573
741+938986152+936232314+936078583+937939698+938317754+933559850+925456152
727+919184330+916069626+912500353+906309131+901474361+901207058+901437232
714+899923667+900600730+905928961+912448569+915242284+914939191+914261493
700+914770876+916306704+915234112+910880614+907026424+904580610+902538640
687+902510811+905257885+908779744+911123046+911135939+909512184+908413382
673+908282127+904293228+897090638+902434650+915179016+918056502+915106449
660+913663056+914357311+913481214+910737380+908935658+909099535+913646429
646+921091099+920469483+912048460+911246763+918842487+911170884+876911747
633+849808770+858607004+886141723+901792884+901572503+897239789+897485745
619+901189515+898679166+888360604+880582685+885462194+899692718+905846388
606+899523347+892386279+885048276+880749591
##END=
