##TITLE=Sample description
##JCAMP-DX=4.24
##DATA TYPE=INFRARED SPECTRUM
##DATE=12/9/2023
##SAMPLING PROCEDURE=Instrument type and / or accessory
##ORIGIN=Default
##XUNITS=1/CM
##YUNITS=ABSORBANCE
##RESOLUTION=4
##FIRSTX=4397.6552
##LASTX=599.8556
##DELTAX=-1.9287962
##MAXY=1.79615
##MINY=0.19073606
##XFACTOR=1
##YFACTOR=1.672795e-009
##NPOINTS=1970
##FIRSTY=0.19796161
##XYDATA=(X++(Y..Y))
4398+118341824+117516396+117102516+117197848+117677381+118249983+118401445
4384+117973044+117859789+118228043+118478784+118652765+119033455+119436735
4371+119244127+118760515+118550448+118406496+118550546+118918462+118970413
4357+118867633+119140163+119895236+120229479+119821772+119561152+119381541
4344+118870689+118550181+119025206+119789810+119767148+119719143+120408672
4330+120324981+119214125+118678571+118787141+118776407+118970974+119484419
4317+119922298+120307121+120149923+119227006+118600760+118706809+119211355
4303+120067070+120826819+121162542+121444933+121476796+120945740+120580087
4290+121068536+121691816+121333165+120674378+120787687+121107731+121087136
4276+120824405+120482376+120715791+121684476+122344635+122060498+121318547
4263+120947513+121600465+122898940+123546316+123123296+122411703+122100521
4249+122499125+123278819+123174997+122343699+122462273+123159800+122984171
4236+122067134+121265981+121087430+121420641+122053594+122820622+123235839
4222+123252630+123202906+122888135+122410090+122717673+123696442+124383182
4209+124758910+124722307+124184098+123562404+122808231+122364152+123090702
4195+124520818+125405929+125436858+125101358+124445831+123358822+122401120
4182+122313011+122926101+123463820+123677824+123749720+123770110+123809421
4168+124174932+124805578+124936356+124429458+123805706+123184271+122786754
4155+122985980+123323208+123168085+122908409+123061742+123442013+123777041
4141+123990582+124041428+123847217+123598401+123760686+124217984+124324247
4128+123862254+123359517+123533943+124395279+125244286+125481745+124826557
4114+123607389+123093810+123722658+124105637+123600592+123247829+123567740
4101+124122366+124669652+125212778+125554923+125620486+125683055+125705352
4087+125360053+124998756+125186687+125580854+125774673+125877462+125733483
4074+125279312+124819947+124828133+125674468+126553049+126539946+126064342
4060+125663066+125477629+125760786+126399708+126778723+126576531+126026626
4047+125656064+125947336+126553780+126669761+126075762+125304281+125213856
4033+125840102+126333843+126420784+126391495+126237067+126229290+126712608
4020+127115916+126989628+126751866+126593393+126330039+126371007+126935824
4006+127180997+126768060+126267416+126233094+126780157+127158674+126718710
3993+126027855+126016720+126724866+127423444+127733664+127883486+127920873
3979+127625886+127144955+126720349+126386115+126354082+126746797+127353072
3966+127740549+127750874+127849048+127771478+127121875+126787898+126805224
3952+126265857+125661258+125751397+125539860+124878445+125769801+127675227
3939+127989321+126466322+124409344+123744936+125494412+127188444+126583969
3925+125496826+125731853+125554950+124524711+125038156+127611286+129397631
3912+128846346+126904566+123567464+119395144+117752947+119588232+123038546
3898+126515182+127080622+124247843+122703749+124570943+124576145+123120142
3885+123794589+123516804+123750148+126631974+126095555+122305101+119435461
3871+118752694+121630200+123612226+122856512+124437983+127378246+126878198
3858+121684298+114022372+114374432+124801882+130437420+129916163+126530708
3844+122897747+120229854+118533354+120048105+124147647+126256192+126822782
3831+127648352+127910762+127479600+124983078+120148818+120171756+124236806
3817+126138999+129608857+132968478+131737222+127388178+124871684+124674498
3804+122319283+122631221+127490548+129397934+130241410+132155165+132794034
3790+132565242+132275209+131908852+132041803+131537533+130533145+131781103
3777+133899456+134038696+132272688+130894852+131955048+133844156+135578817
3763+135716614+133128491+131750228+132610682+130811928+125435655+123287157
3750+128435119+130620576+129388055+134221799+139644990+138384115+134081312
3736+132913525+137600421+144753516+149365639+150068306+149787831+151334161
3723+154572946+159165257+164101397+167224023+167106741+166156798+170795894
3709+180307438+188822879+194829664+200907268+210629966+221355271+229269230
3696+234311143+236124960+235590947+238581770+247476030+254392905+256292434
3682+255384323+252616536+248236287+247601365+254675411+259998993+263021298
3669+269501148+275431433+278730454+281817768+284763607+286253710+288331077
3655+292059977+292674946+290179832+292790464+302678726+311446065+316472888
3642+319912529+323262343+326663645+330053402+332193481+331440867+331522785
3628+339305440+347697113+350294420+349671505+350303292+355123843+360062620
3615+362386595+364662717+367479729+370654306+375489109+380389154+383216571
3601+384708009+386181597+387666943+389552505+392440994+394592868+394862422
3588+396756821+401774023+405710443+407194328+407605020+408236343+409685701
3574+411260305+411187153+408455407+406070110+409000609+414284337+417002934
3561+417995208+418620367+418849978+419079019+419797748+420500584+420097838
3547+419343728+420108100+421695994+422547701+422625200+422212334+421951617
3534+422285700+422580909+422427764+421937934+421244255+420686083+420813823
3520+421707254+422284132+421807166+420791446+419672395+418781708+418162677
3507+417580668+417602439+418524910+419253080+418816484+417670388+416629371
3493+415732020+414767076+413665235+412610143+411751025+411103347+410896005
3480+410865718+410280609+409095568+408062211+407307459+406348822+405676450
3466+405248156+403833254+401920826+400862420+400678774+401077422+401155705
3453+399887749+397622388+395234097+394150606+395049311+396381476+396700273
3439+395828934+394273750+392553875+390892117+389793910+389336754+388714659
3426+387754918+386941908+386642779+387232378+387972842+387675922+386991685
3412+386939592+387381604+388217026+389186923+389377018+388664240+388018308
3399+388006549+388416920+388968251+389417781+389358276+388870370+388738782
3385+389234990+389696136+389807593+389712955+389079671+388045566+387398386
3372+387231915+387104709+386620937+385951879+385817226+386297899+386706809
3358+386809607+387087820+387627213+388175764+388669656+388676711+387878346
3345+386805260+386083467+385821716+385954908+386430805+386640463+385452535
3331+383224730+381961299+381712411+380611817+378892477+378359355+378648079
3318+377585076+375110842+373007392+371973679+372248863+373292268+373429415
3304+372620752+372281110+372853997+373593998+374280123+375203378+375840794
3291+376577232+377835675+378267104+377987003+377991635+377880678+377761418
3277+378001077+378044869+377446398+376756139+376577695+376298378+375627574
3264+375432383+375497055+374742766+373476306+372509153+371821816+371668279
3250+372090693+371713781+370002814+368392900+367463231+366570798+365822388
3237+365395413+364955895+364158634+363087187+362857825+363288007+362616634
3223+361223432+360332958+359932279+359886243+359561138+358495250+357193122
3210+356059391+355581390+356353103+357839447+358518838+357952400+357127310
3196+356909921+357439373+357744168+356942560+355518821+353854960+352006134
3183+350543343+350049345+350562798+351435028+351661646+350671475+349095197
3169+347914859+347105733+346388644+345839914+345474546+345295105+345166830
3156+344917550+344799395+344810370+344371850+343413320+342430738+341873065
3142+341565420+340571829+338880104+337285760+335993503+335329220+335160717
3129+334638427+333950520+333596304+333230330+332471409+331238871+329733678
3115+328349099+327257413+326346950+325180223+323426641+321603292+320311284
3102+319298380+318160337+316967635+315887885+314838708+313747164+312973812
3088+312799181+312703688+311935538+310473282+309132209+308500422+308134983
3075+307520976+306640372+305735076+305110095+304501932+303718746+303129289
3061+302718277+302237675+301634750+301025732+300658867+300385750+299786424
3047+299061994+298622797+298161294+297622310+297448427+297340766+296917140
3034+296383287+295930799+295686828+295549343+295312748+295034838+294787714
3020+294870398+295480930+295876300+295535767+295105140+295042392+295001914
3007+294884971+295277027+296421324+297908825+299819846+302550309+306031212
2993+310297261+315042807+319032139+321746176+323911946+326216965+328783236
2980+330635340+330485544+328778034+326505689+323483438+320049854+317410823
2966+315474450+313371962+311293988+309811137+308871705+308266001+308076297
2953+308250430+308317631+308148238+308137049+308534842+309322269+310038111
2939+309838823+308487416+306729737+305243144+303943867+302582769+300914953
2926+298861940+296964423+295288447+293305646+291324324+289917671+288859710
2912+287797011+286826829+285858624+284596458+283341008+282367762+281384860
2899+280323942+279379611+278767582+278511995+278128597+277578015+277328860
2885+277092657+276580094+276084795+275369612+274187528+272928248+271730735
2872+270508922+269352600+268174596+266834271+265481814+264281504+263188036
2858+261940942+260298407+258518974+256942928+255423233+253885098+252589937
2845+251556990+250485115+249260487+248184051+247444959+246690848+245819135
2831+245208228+244801135+244374320+244096125+243917022+243366404+242408462
2818+241592904+241066195+240544226+240094998+239920955+239829613+239595566
2804+239290130+238974397+238705252+238578902+238555955+238518435+238319930
2791+237852602+237082849+236114609+235237230+234589765+233998634+233382258
2777+232832496+232325277+231889679+231503413+230899543+230089099+229419168
2764+229018738+228694364+228400010+228242571+227970968+227374706+226814806
2750+226649689+226639641+226294387+225674839+225299690+225163648+224830081
2737+224374975+224099505+223965423+223943599+224012635+224006239+223882348
2723+223617621+223236255+223012131+223019115+223054907+223074326+223095937
2710+223014963+222848225+222777656+222643680+222185955+221667210+221336850
2696+221136029+221032590+220854787+220475861+220183930+220078995+219835363
2683+219374234+218807867+218201058+217686143+217262375+216888562+216575109
2669+216227913+215796769+215326821+214842568+214335474+213897667+213618438
2656+213350327+213053265+212767944+212320106+211844190+211646879+211577611
2642+211398294+211094088+210725602+210394084+210145748+209922658+209757968
2629+209751804+209733115+209501811+209222458+209105390+209175567+209382320
2615+209574821+209612964+209657504+209884122+210033918+209875963+209650039
2602+209650699+209823317+209951787+209992924+210020699+210021750+209892335
2588+209607032+209274463+208935925+208604514+208402375+208345881+208298705
2575+208175490+207943046+207555889+207024815+206504146+206129656+205825984
2561+205521315+205227264+204823253+204250187+203701351+203333578+203197108
2548+203281591+203306783+203036160+202677704+202462702+202370522+202355664
2534+202382637+202428941+202529600+202635605+202652708+202579129+202461775
2521+202452529+202663433+202959925+203182303+203264595+203254493+203323441
2507+203509759+203685566+203774717+203806180+203886084+204089916+204287102
2494+204329896+204343988+204448621+204558081+204635046+204702711+204770946
2480+204851865+204832785+204574989+204230946+204060323+203969266+203789700
2467+203676302+203700247+203656152+203509064+203432634+203402454+203317615
2453+203234878+203174286+203155722+203169725+203106087+203003556+202989143
2440+203092547+203257878+203386259+203414854+203376692+203303433+203145905
2426+202994239+203025007+203186864+203298605+203323280+203381912+203484193
2413+203560053+203669942+203804790+203911810+204040744+204121485+204087724
2399+204098093+204261857+204508197+204745540+204897118+204894499+204694248
2386+204122732+202751622+200178616+196374711+191742279+186939205+182374811
2372+177798499+172826513+167722547+163104385+159552877+157489549+156916144
2359+157986398+161109914+166146572+172867703+179677041+182884381+180725773
2345+175699182+172280331+171522640+172038107+173104423+174288716+175148938
2332+175807217+177120052+179250689+181236697+182572942+184073983+186526180
2318+189468544+191992414+193761834+195179176+196744498+198377751+199850163
2305+201211581+202417414+203417526+204355426+205194215+205850499+206463882
2291+207076232+207576965+207987853+208385236+208686360+208844868+208910039
2278+208869276+208826785+208895857+208967281+208985756+209028978+209123794
2264+209273162+209462545+209621623+209744873+209910472+210084070+210174931
2251+210280757+210474166+210611474+210699502+210863978+211027029+211099914
2237+211098952+211087069+211189617+211418034+211562966+211513652+211477432
2224+211589601+211725340+211789103+211773425+211758442+211888801+212135961
2210+212328889+212464112+212642680+212786740+212829765+212925240+213177246
2197+213492801+213727062+213807982+213808516+213855568+213962499+214085981
2183+214235901+214431074+214660169+214861666+214933055+214894519+214904246
2170+215037064+215259673+215498727+215691548+215855508+215988967+216069548
2156+216128750+216181913+216274003+216488827+216765846+216993195+217203066
2143+217363961+217372619+217386605+217644810+218017216+218162059+218068650
2129+218036315+218185736+218395340+218607741+218879380+219173966+219368266
2116+219424314+219399550+219375267+219403203+219511345+219683357+219810331
2102+219896239+220113415+220439517+220696867+220858083+220982652+221132662
2089+221285380+221344956+221387197+221588410+221919019+222195629+222379685
2075+222567874+222821483+223099161+223234366+223181863+223176643+223382149
2062+223672191+223934548+224149942+224307559+224501129+224692578+224782923
2048+224917860+225112356+225176226+225169385+225343606+225721178+226101654
2035+226406965+226697453+226943491+227122398+227352935+227631398+227809307
2021+227830953+227797424+227969935+228438617+228911273+229189789+229436841
2008+229801461+230168736+230432072+230626568+230770093+230945134+231165517
1994+231214207+231276242+231765716+232477835+233071531+233475310+233786839
1981+234101289+234346115+234626662+235032062+235360106+235430978+235259197
1967+235256614+235788186+236452469+236824643+237050246+237262914+237457196
1954+237718217+238041023+238211467+238039366+237507009+236872568+236941230
1940+237900847+238731691+239016193+239140477+239344433+239625371+239910230
1927+239904030+239424925+239140851+239272243+239352949+240020831+241344230
1913+242067341+242014535+242082788+242725318+243579554+244281998+244831244
1900+245207124+245288934+245366825+245785908+245945022+245857386+246659065
1886+247974358+248846178+249424001+249967617+250524577+251054760+251393885
1873+250937460+249351455+248441972+250185862+252907042+254591409+255350989
1859+255858813+256452563+257155542+257882947+258414929+258345697+257438922
1846+256251386+256904107+259675884+261789294+262716218+263626574+264299890
1832+263609917+262657569+263526984+265229612+267115566+269522421+271407573
1819+272506581+273442895+274057472+273949436+273995205+275277646+277075803
1805+278060256+277825318+277402564+278335707+280017812+280329108+279259015
1792+279999034+283498269+286317045+287392928+287917321+288393362+289218469
1778+290386995+290274951+288202625+286826882+289097285+293086992+296235077
1765+297321382+297041708+297832271+299455262+300803283+301932596+301570221
1751+299850490+299686797+301963917+304490102+305872080+306370676+307315880
1738+308136479+306861646+306429076+310406650+314998338+318649882+321147491
1724+322457885+322766206+320807279+317494451+318394046+324368282+330107455
1711+333445225+334153336+333594701+334074269+334405074+333493613+334852217
1697+339153969+345812941+352862152+356564115+358078928+358127779+356543199
1684+359450537+368656575+376248600+380398525+383251062+386988692+390020671
1670+392908412+399382846+406227709+410213906+414559664+421306432+427043788
1657+428630043+426982894+431927265+443612062+449515676+455067212+466783401
1643+478278245+485782296+490014209+492554006+499963704+513900963+525276762
1630+533051115+540654970+548854445+557759359+568497420+577846305+584848090
1616+594444794+605901691+614259621+620137509+625837523+631907893+637298552
1603+641897473+646274195+649934433+652303945+654019829+655535747+656534362
1589+656806589+656577905+656332615+656165360+655842037+654398095+651076431
1576+649175690+650763014+651174988+650723605+653878014+658906726+662215777
1562+662012106+658265283+661224002+674943658+687228566+696939434+705981280
1549+715739895+724249902+730087241+735346632+744707383+763886325+782425748
1535+793999588+804812974+817407949+826852363+832555370+836706756+839528365
1522+843067811+849925002+857726293+865009213+871746040+876221105+876626737
1508+873878886+877393604+890459417+900633712+905079417+906016033+908448258
1495+914885279+920365802+921546068+922477554+929383775+938680388+944823662
1481+947757368+949969459+952003748+952477152+952150907+954482793+959510364
1468+962440435+961678414+961986059+964219387+962153671+953582307+949686400
1454+955389906+960179457+960750634+957600430+954259381+953447547+951583721
1441+946258767+939346774+932962558+928706344+925476751+920857306+915860592
1427+913540537+914071949+915127504+913062073+910165852+914976853+924410649
1414+931689435+937373415+942303498+946016756+947525191+947014944+947676341
1400+950639906+954532036+958122720+961773765+966407392+970839912+974034870
1387+975466270+974503856+973342331+974713869+977530204+979484464+981163932
1373+984120656+987494700+988702047+986589653+981818274+977072621+976970429
1360+980467759+982161479+981057536+979602477+979832088+980394215+978678046
1346+975319894+972041130+968485650+964385360+961308343+960329823+960443774
1333+959800977+957991667+956650131+956752679+957843225+958947952+959898037
1319+962195004+964985470+965491513+965307011+967626853+971896893+975648704
1306+978456132+981164431+983142564+984635607+987160474+989923504+990333269
1292+988825190+989628330+994156344+1000429531+1007775162+1015102622+1020380328
1279+1024205541+1028009517+1031119101+1033573061+1036110043+1038488036
1267+1041293040+1043729042+1043581669+1040934727+1037844598+1037465903
1256+1040390488+1043922522+1047120759+1050224927+1052304825+1053436347
1244+1054725077+1055626917+1055090873+1053939468+1053060717+1052570495
1233+1052649099+1053163550+1053495139+1052263135+1049506804+1047911784
1221+1048292545+1047814509+1045500867+1044847951+1046834564+1047484559
1209+1045717651+1044226390+1043706024+1042334628+1038580964+1034643012
1198+1034005560+1035555470+1036565132+1037100179+1037587693+1037071246
1186+1034869345+1032918149+1032367567+1030833121+1028518196+1027505042
1175+1027160056+1027057721+1027046319+1026167925+1024359969+1023262154
1163+1024802800+1027577446+1029426878+1031189082+1032448950+1031401661
1151+1029424170+1028590956+1028521047+1029154580+1031003298+1032873182
1140+1033927312+1034555572+1035106439+1036440706+1038354845+1037928831
1128+1034777344+1032943662+1031902216+1028933378+1027865137+1030050362
1117+1031876918+1033935508+1037004971+1039264310+1040005807+1038381996
1105+1035592670+1034099913+1033376445+1034246217+1037816805+1040590596
1094+1041812979+1044845884+1046976878+1042981345+1037290167+1037007750
1082+1041214864+1046839196+1051800208+1052650738+1049447513+1046578158
1070+1047379303+1049758864+1049703919+1048629123+1048024238+1045872364
1059+1044086927+1044990834+1046759167+1049285317+1052384925+1054183830
1047+1054920909+1054165729+1051746617+1049186190+1046804562+1045701189
1036+1047176130+1049048295+1050016339+1049833833+1044762862+1037384520
1024+1036808355+1043281934+1047587464+1042942221+1034257263+1030502529
1013+1031514472+1032565894+1032268939+1032217201+1035752514+1041214365
1001+1041634321+1037495905+1035861262+1037850014+1038823830+1037372406
989+1036610171+1039023083+1042874735+1044892562+1046960416+1050177964
978+1051570881+1051093344+1049640566+1049303703+1051909169+1054547844
966+1055795099+1057555023+1059506718+1058994119+1056794142+1055839282
955+1055878620+1058556205+1066323289+1073613406+1073741823+1069588085
943+1066783723+1066720868+1067583014+1066906652+1065372348+1064640614
932+1064352852+1064128942+1063603160+1063409109+1064962583+1065835134
920+1062746216+1057890603+1055239600+1055183159+1055729750+1057008646
908+1059736828+1061670991+1062819474+1064822265+1064830175+1060782478
897+1056551561+1055987938+1059708607+1066804389+1071866452+1070164607
885+1065817959+1063123200+1060879253+1056253965+1049778532+1045179112
874+1043253073+1042632652+1042721946+1041570754+1038163787+1034321471
862+1030408105+1026663064+1025521921+1027972603+1031910198+1033070653
851+1030357508+1027557920+1026487185+1026231848+1025486574+1024174969
839+1025246915+1028799758+1029958646+1027226901+1023810384+1022945103
827+1025739560+1027402708+1023068816+1017260268+1015421597+1016093113
816+1016411804+1016961531+1018890492+1019784280+1017022818+1012556732
804+1010268745+1012427246+1016801616+1018043026+1015338789+1011906381
793+1010106691+1009937939+1009110712+1006018302+1001280702+997295075+994257609
779+990287375+987149927+986436294+986710730+986326477+983556249+978475943
766+972849615+968366854+966720167+968106813+970789671+973799701+975181073
752+970076894+960645592+953990219+949733862+946364450+945461969+944381899
739+940301562+935737062+933766482+934335807+935002406+933683745+929462379
725+922682651+915976609+909895692+903982528+901908047+903869433+905626436
712+906298308+906626334+907593167+908838853+907793489+906398932+907746954
698+908965703+907374245+905287791+905011859+905599070+904912019+902846944
685+901789607+901724187+901262185+903574331+909662589+913292397+909319526
671+899379902+890820438+894988144+907919554+917205121+918871405+911772488
658+903093231+901345421+904136315+905970710+908240667+913439770+920186360
644+922419546+916616912+908819612+906217638+910437295+916497332+916995464
631+915370299+917501435+916966531+912117119+910344723+910330613+908122299
617+904416452+901120442+900186961+903625854+909896191+912504721+911813679
604+914997805+923736068+930627395
##END=
