##TITLE=Sample description
##JCAMP-DX=4.24
##DATA TYPE=INFRARED SPECTRUM
##DATE=12/9/2023
##SAMPLING PROCEDURE=Instrument type and / or accessory
##ORIGIN=Default
##XUNITS=1/CM
##YUNITS=ABSORBANCE
##RESOLUTION=4
##FIRSTX=4397.6552
##LASTX=599.8556
##DELTAX=-1.9287962
##MAXY=1.7122949
##MINY=0.13363215
##XFACTOR=1
##YFACTOR=1.5946989e-009
##NPOINTS=1970
##FIRSTY=0.13587855
##XYDATA=(X++(Y..Y))
4398+85206396+84408047+84100764+84060088+83797732+83940810+84608265+84628617
4382+83986503+83968291+85036481+86290648+86724172+86582953+86831106+87672662
4367+88559183+88806785+88269148+87655665+87536163+87753331+87785213+87423668
4351+87126915+87479238+88369374+88840069+88711614+88797543+89123319+89305119
4336+89243504+88923447+88465208+87920965+87763320+88671649+90038918+90527133
4321+90133416+89897634+90021931+90091152+90042105+89952372+90201769+90934138
4305+91451666+91415401+91318296+91607891+91723731+91152371+90962105+91702660
4290+92392905+92509885+92536535+93076638+93865128+94119281+93771434+93271745
4274+92794836+92413575+92332318+92781670+93834339+94696536+94517222+93869828
4259+93645942+93878780+94375498+94893680+95025919+95102457+95420206+95300059
4243+94903389+94926366+95229333+95398939+94889541+94071027+94054862+94644555
4228+94831644+94487984+94565064+95249413+95745851+96266789+96917733+97085312
4212+97021229+97165616+97744862+98914361+99923617+99768588+98667011+97884978
4197+98291235+99396624+100071629+100062322+99926850+99841024+99656289+99524387
4182+99637779+99846004+99858470+99764374+99986877+100228910+100039840+100117126
4166+100651015+100931939+101032557+101160815+101167805+101021858+100660761
4153+100243291+100159960+100489333+100714117+100589288+100845468+101745967
4139+102387772+102230771+101886905+101971423+102217970+102220922+101940027
4126+101618736+101856910+102981212+104076201+103950204+103213331+103104892
4112+103495992+103756396+103658422+103438526+103570466+104112288+104775417
4099+105522868+106151927+106206320+106215767+106772708+107089271+106580246
4085+105909885+105792017+106293221+106986083+107006687+106219028+105836954
4072+106433141+107368279+108244997+108808404+108966340+109392659+110167871
4058+110490797+110383993+110155948+109589793+108950455+108800957+109194796
4045+110015225+111087432+111812859+111409938+110019112+109136871+109660220
4031+110577614+111012314+111491596+112177908+112214304+111459209+110924535
4018+111068837+111154421+110929217+111034423+111402163+111698234+112154678
4004+112547368+112377733+111867569+111781023+112269163+112601190+112699706
3991+113038059+113397418+113462042+113199938+112746894+112572251+113007064
3977+113753272+114076908+113845901+113772680+113902882+113806179+113820896
3964+114257111+114890684+115459371+115703721+115426984+114978070+115234475
3950+116652959+118238696+118340145+117700714+117897577+117832859+116887489
3937+115959742+115583116+116726461+118802898+119373341+118449809+118027816
3923+118280773+117914191+117572951+118428598+119284525+118700653+117498646
3910+116510031+115253014+114801792+117403204+121933218+125108120+124750051
3896+120959498+117110656+117654151+120326663+119727626+119808360+122664083
3883+123224603+123638765+124189128+121660330+119954148+120552250+122353632
3869+125270886+124979020+123640812+125381428+126586435+124504308+119591378
3856+116252197+124818665+134569163+131893100+125612575+121743064+121340059
3842+122984056+125338323+129152171+131601739+130272725+128326304+127332792
3829+126517354+126084279+124935383+125314168+130960130+133290570+131546665
3815+132324858+131682389+127998528+125268419+127074192+130021423+130549248
3802+134082863+137392620+135406308+133407727+132468291+130991564+130234779
3788+130642194+132097280+133582641+133403700+133606973+135627055+136178773
3775+134613622+133614159+135666824+139375297+141247358+141668192+140717814
3761+139776994+141872811+143692899+142207445+141434307+147007020+153974726
3748+153272838+152516902+158321323+159527657+154907948+153342527+158508450
3734+164583459+166777249+165596873+163515681+164394744+168520557+172269630
3721+174637241+176347713+177673597+179274069+184356856+194055316+200924320
3707+202575456+203085649+207054610+215385810+222270437+226332485+230564821
3694+235693377+242574584+253090511+263692796+269404747+272553326+276537312
3680+281745462+288379235+301433023+316851507+324214986+331262109+341452503
3667+348581854+355327458+364364406+373467548+381912411+393119228+404997929
3653+411908141+420252909+437805025+453968483+461766467+467512468+474958923
3640+484065691+493853537+503316767+511985255+519814149+530610196+545565302
3626+554748990+559805764+567358108+579084050+591373671+598929267+604982766
3613+614042364+624093455+633182955+640764826+645053508+647000313+650820066
3599+658955786+667248189+672435781+678463303+685421133+690174258+695263400
3586+701408061+705341514+706921728+707717030+710167001+715010054+720162587
3572+725878612+732902972+738539907+742176290+747027491+752929802+755893254
3559+755333874+756625240+760647425+762050399+761075240+763113393+767316108
3545+768968310+768978626+770957724+773733395+774386741+775169559+779924927
3532+785571879+785783058+784229830+787752737+791230717+790067927+789296621
3518+791039124+792750082+795063478+799765247+804014683+805056971+805159159
3505+805993483+805853993+804851922+805185622+805756664+803204879+798173820
3491+795180467+796480953+799662984+801192889+803794908+810703550+814727305
3478+811729392+809185232+810366935+810837059+810734797+812766222+813323285
3464+811758994+813080112+815952739+814738069+809586583+807214880+811916425
3451+817290826+815728179+811981236+812255507+815339835+818557299+819550698
3437+818739922+817367673+814891464+813812771+816985309+821765345+823894399
3424+823332776+823346157+826000354+829270519+829619319+825691995+821003084
3410+820871218+823692714+824613677+823681351+822460477+820696221+819140601
3397+820438994+823219375+822149279+817758259+817621834+824704278+830550971
3383+829035943+826181855+825034763+823071737+822274042+824312495+825300512
3370+822375184+819352153+821728716+826371280+824892956+819299153+819552119
3356+825323909+825859369+820383078+817200673+816129755+814277214+816431011
3343+824105577+828323318+826008203+824923455+826383241+824600819+820001836
3329+820296065+827495348+830418359+821967478+812475656+809697218+809396111
3316+808228387+808058099+809348792+807958751+803839835+803465544+804703013
3302+801870081+800309303+804105509+807101479+803385184+797601807+799276434
3289+805323392+802387225+792715546+790939852+798208207+804368865+807893118
3275+814575481+820088998+816719261+810393995+810070687+813369259+810925792
3262+803578347+801214941+803520413+802219703+798233100+798963217+800957939
3248+795961641+791171139+795753452+802480891+802202435+799280097+798958059
3235+796175735+789109961+785322651+785255597+783564300+782919626+786587256
3221+789166101+784813356+777696227+774695323+775887118+777412388+775804141
3208+773341014+773859803+774968173+773986361+771335229+769142261+769380799
3194+771141393+773185751+774356017+771427774+764833545+761083388+761433010
3181+761355117+760199129+759177697+758673485+758545283+758342402+757685842
3167+754975730+750937323+748511722+748247468+747693545+744294280+741239105
3154+742697770+744130570+740506447+735770440+734950320+736336847+735426051
3140+733064514+731785258+729242069+724128259+719847426+718204121+717119298
3127+715409686+713339762+711206597+710093219+710085818+709939974+708174895
3113+704531560+701372030+700899214+702497518+702989097+700536809+697646840
3100+695393247+690872530+685898359+685463817+687077520+685439223+681477887
3086+679284097+679595968+678316039+673557980+669818064+669728958+669943949
3073+668333759+666646349+665881621+665205251+663205596+659886765+656699800
3059+654246466+653107447+653091824+652502468+651533363+650768710+648591665
3046+645306773+643366621+642313643+639859188+636475546+634119541+632527516
3032+630342323+627991550+626937713+627000954+626440826+624626597+622436208
3019+620542291+618823821+616836238+614425177+612081319+610713480+610780571
3005+611526648+611186296+609244013+607370131+606853098+607640925+609101159
2992+610983602+613967312+617511524+619845439+620788155+620838950+620072839
2978+619545603+619346834+617556675+613586667+608363268+603126114+598885461
2965+595477862+593072295+591672723+589139552+584253328+579520760+577372682
2951+577078564+577263728+577282604+576412324+574617381+572736247+571615692
2938+571588631+571776711+570838929+569213414+567999381+566623468+564578400
2924+562600199+560143874+555390749+549280213+544420003+540572068+536962858
2911+534888599+534398029+533583104+531799823+529946011+528247164+526063166
2897+523711422+522449022+522039224+521412976+520831469+520237067+518800679
2884+516841951+515185563+513755828+511824012+509194708+506981556+506084402
2870+505292651+503433233+501692523+500797724+499429586+497023234+494635720
2857+492630085+490040138+486434105+482329840+478621470+476134235+474272948
2843+472135746+469935826+467767153+465813882+464577945+463679969+462297553
2830+460572916+459154618+457606174+455188909+452357322+450066913+448525197
2816+447003590+445227447+443699299+442337104+440684230+438641554+436296911
2803+433836774+431822953+430800475+430129002+428614795+426290523+424190585
2789+422542907+420419534+417957902+416431623+415355397+413389231+411106671
2776+409333893+407698698+406212785+404973933+403578286+402343022+401751161
2762+401409276+400616927+399097525+397477991+396454130+395715080+394849621
2749+394123279+393734150+393211848+392168139+391189915+390711643+390100832
2735+388967046+387689434+386583569+385662868+384858595+384132552+383323794
2722+382259230+381156242+380187624+379119733+378118635+377487043+376694656
2708+375425117+374116520+372847617+371428385+369933764+368567047+367532757
2695+366746276+365834657+364711038+363583419+362457632+361295851+360160943
2681+358995387+357819478+356824883+356190338+355807637+355204451+354282666
2668+353527544+353130566+352853791+352605123+352345804+351806794+350986636
2654+350411819+350344803+350418883+350375153+350382628+350392084+350231514
2641+350230953+350520997+350572203+350219553+350079951+350482050+350762002
2627+350290943+349354655+348558419+348033462+347488771+346953948+346545009
2614+345979461+345385096+345224713+345215182+344644775+343549786+342697970
2600+342339602+341823018+340893309+340222322+339964871+339339259+338007377
2587+336470034+335270540+334487721+333919894+333434034+332861945+332204077
2573+331860249+331880171+331661629+330895593+330138228+329906193+329885748
2560+329721813+329535004+329476996+329624185+329976237+330456827+330869391
2546+330919402+330742535+330769483+330904376+330787462+330617472+330786378
2533+331116414+331239234+331276312+331396702+331346879+331033550+330700561
2519+330494540+330313338+329889074+329292280+328845890+328411684+327776392
2506+327162852+326679011+326148336+325571762+325132025+324856596+324527493
2492+324126404+323996818+324072843+323828511+323301312+323049580+323162869
2479+323221700+322959763+322499319+321998060+321463348+321086030+320972143
2465+320855976+320649432+320528070+320535695+320427975+319997732+319461301
2451+319139300+319020666+318875906+318684986+318467677+318032911+317598108
2438+317562039+317641054+317509600+317398778+317316698+317033607+316742143
2424+316600448+316500353+316520947+316645561+316606540+316363666+316211094
2411+316468396+316970141+317140841+316924990+316833865+317006135+317139458
2397+317179600+317198775+317047810+316779370+316625789+316421413+315716077
2384+314399033+312727919+310745213+308139083+304809115+301385237+298540849
2370+295987102+293182127+290444300+288656103+288077754+288287830+289013144
2357+290266293+292773880+297238325+301855567+303376670+300923709+296949030
2343+294892431+294853914+295152442+295482665+296100764+296677749+297022120
2330+297649264+298684319+299660955+300394025+301357672+303014527+304802499
2316+305924380+306646723+307464097+308076197+308331013+308847391+309899378
2303+310870669+311342699+311605047+311899650+312202495+312493623+312760549
2289+312935303+312952590+312991443+313145678+312935360+312163679+311569744
2276+311533489+311489160+311178279+310899822+310799017+310816304+310804773
2262+310647623+310409589+310200877+310112575+310294917+310573580+310559096
2249+310500377+310734524+310879097+310634504+310282415+310122311+310145635
2235+310273799+310516449+310826358+311029071+311124625+311325805+311476396
2222+311382842+311340756+311417191+311373591+311282485+311433058+311841866
2208+312093430+312055119+312121388+312304029+312310551+312335276+312605398
2195+312898039+313075728+313256837+313424210+313406232+313231047+313191614
2181+313363024+313453457+313375957+313309407+313160928+312870361+312849430
2168+313229253+313560785+313696350+313853930+314008633+314032666+313952418
2154+313873703+313964640+314307572+314698719+315034549+315516335+316012325
2141+316223204+316255759+316269888+316398090+316773838+317219182+317478876
2127+317641353+317909979+318167169+318289577+318423536+318614830+318781792
2114+318931149+319066976+319063463+318888166+318801340+318961761+319186395
2100+319375783+319674946+320069420+320296596+320323732+320423901+320608841
2087+320622559+320468604+320401139+320507438+320578342+320488488+320387534
2073+320441132+320654815+320922320+321232248+321516722+321492427+321164409
2060+320941345+320952296+320875412+320639976+320594825+320867488+321120865
2046+321067641+320885392+320807835+320825253+320947848+321091151+321002942
2033+320795762+320864760+321116829+321115857+320813442+320627903+320850295
2019+321212737+321405938+321508163+321627769+321753579+321896283+322050238
2006+322039473+321745019+321591924+321988791+322435704+322474501+322723879
1992+323462182+323799507+323436130+323032760+322963352+323071632+323058774
1979+323195312+323880240+324533623+324547153+324513963+325169663+325940670
1965+326000959+325777932+325734388+325672455+325737341+326132712+326170650
1952+325430590+324964054+325397512+325776288+325606373+325484487+325458436
1938+324956279+324020515+323577564+323977196+324116723+323632021+323682106
1925+324564347+324957326+324278153+324002948+324539043+324321884+323672912
1911+324149091+325209806+325340138+325006140+325415266+326105203+326118210
1898+326011425+326519150+326878976+326861671+327529518+328516638+328532897
1884+327976955+328007529+328687263+329219545+329341131+329394019+329906604
1871+331420138+333352739+333755025+332659438+332131380+332768279+333338686
1857+333183460+333237208+334155928+334876626+334753507+335257084+337597802
1844+339876214+339725585+339311302+340210063+340386107+339269290+339898341
1830+343250922+345375976+344898862+344898190+345769180+346063110+346112934
1817+346897397+348260377+349432362+350478238+351538242+352012366+351939967
1803+352704134+355342297+358009314+358504257+358447594+360165541+362501736
1790+362789462+362725100+364464949+366817030+368488368+370152530+371695928
1776+372614910+374257879+378198845+381894246+383019996+383286716+384354308
1763+387023717+389813069+391562599+394167384+397226520+400053697+404511658
1749+409791384+412803201+414495246+417180877+421190579+425331847+428655573
1736+433776896+442836756+449051573+451496685+455398293+460704145+466539776
1722+473183491+481337750+491904901+502136933+509100817+514798565+519370525
1709+523343410+531263653+543778432+553591732+560295250+568514283+577689674
1695+586797376+593796544+600327419+608165321+614734881+624783168+644275100
1682+656512094+657177699+659240073+671107786+687661868+696102881+698370902
1668+702526971+709506479+717140229+724307742+727866456+729576292+736515134
1655+754254957+771542670+761843107+749664271+755446826+771968241+771866053
1641+760252802+757304599+769018320+779069971+771685524+762034925+761411256
1628+770457698+781503421+787733226+787764847+790977752+809273217+830667288
1614+825465941+810695252+814597907+841913874+863422542+854645961+835913861
1601+825179635+820283806+820359606+820604274+810629992+794852972+789556389
1587+798704346+802129625+784380010+763492244+759235108+765063338+757878407
1574+741422850+732766322+729742694+731318273+736834406+737843653+730029747
1560+723959092+737829300+749611495+741455592+735319004+745114400+759895331
1547+763476994+766498380+792448751+835012633+843213687+836019413+850824413
1533+871179112+872668501+877534578+902277381+913108786+886409984+869180429
1520+888911160+895534692+861221276+834405036+837586993+848775421+841524184
1506+825196081+826475561+830125998+829573869+835439326+846669615+845888142
1493+842252208+859965941+892151499+893793684+876205387+875088570+891709407
1479+904547046+903154613+905098951+924004255+944338023+950486646+950156385
1466+946833967+942155745+944227537+952113356+949916277+933415493+930709492
1452+941073538+944539483+933795764+927243921+935919735+945007590+938955997
1439+919929368+904074455+906431731+912743242+902475179+882940899+877810269
1425+894947504+921518851+932668930+919573467+904320468+907834779+924225301
1412+932016482+919376267+910022290+922969442+943624277+950299613+942829199
1398+933725870+935564207+946182640+954444170+952608747+940730943+936183914
1385+948694207+951260718+933584436+925316627+937563190+953183377+955026798
1371+948227072+950206096+956642744+950647515+941437737+943323469+946496679
1358+947387217+956637885+968081147+962862233+943156544+933182188+945942307
1344+958976996+946721164+931559439+937552874+945970041+936444803+922261826
1331+918615277+921768677+923021845+924430574+928358944+927691694+922268105
1317+925583273+938339804+940536584+927438056+921975595+935152390+948273943
1304+944861970+937780349+938658104+941797152+942095718+943926580+948531095
1290+948718352+944868100+947870797+958281565+961618635+955312880+956164471
1277+968659515+979171947+981385771+980244884+978008484+974701166+972639166
1263+974176172+975687613+971562641+967602800+973410697+983064435+982946325
1250+976462358+974985752+977214751+977343103+977574689+981888488+986661797
1236+986707621+986421016+991417239+997197029+998180859+997013733+997155092
1223+996816085+994232231+992879343+995153119+997076451+997772257+1002257465
1209+1008771184+1010533647+1009662320+1011655248+1014833915+1015656054
1198+1015497278+1017808506+1020110689+1018752343+1019920441+1026597870
1186+1029633384+1026429525+1026183287+1031955377+1036246750+1034484138
1175+1031826577+1032919398+1034354889+1033441102+1034427624+1037621466
1163+1038396436+1038581450+1042585097+1046647052+1045560211+1043929015
1151+1047110523+1051967032+1052452855+1048859007+1047996875+1051684838
1140+1054855357+1054654868+1052868335+1052500174+1053698173+1054279008
1128+1054599850+1055498162+1054177642+1049656103+1045787387+1045157290
1117+1045663221+1044759526+1044886084+1044997392+1039055238+1031891986
1105+1031936763+1037239177+1042872300+1046688016+1047854769+1048412504
1094+1049955790+1048815127+1043564966+1040729641+1042649609+1042325927
1082+1039942786+1044502898+1054612184+1058640499+1053557861+1048707706
1070+1049467276+1051373564+1053233057+1056092378+1051866115+1041027309
1059+1038816475+1048572402+1058959099+1059602128+1052026312+1048629065
1047+1051612177+1054213897+1057051764+1057260700+1052404639+1049296763
1036+1049648105+1049854947+1044531379+1034033150+1032963203+1042864600
1024+1042664037+1031954256+1028076868+1028278029+1024606811+1020756484
1013+1022773706+1028536975+1028552823+1026752086+1030494096+1030519138
1001+1024332316+1023049622+1029890611+1035518950+1032614329+1029290715
989+1032764284+1036726219+1035620914+1034207774+1038282437+1043653025
978+1042447476+1037627073+1036778546+1042448822+1052410545+1058575165
966+1056930065+1054278784+1052821539+1048937199+1046384218+1052325251
955+1063976851+1067553655+1059422047+1054854759+1061592813+1067550067
943+1061888912+1054892883+1058011524+1061735293+1059397154+1061891229
932+1065172159+1057303010+1053114872+1065040444+1072256770+1060868078
920+1049021147+1049068018+1058459372+1062792457+1060172871+1068168951
908+1073741823+1060646957+1050762529+1052945630+1056875495+1055788804
897+1052250647+1053260118+1050145514+1042768019+1053032120+1067746146
885+1051211499+1025491369+1024945444+1044048546+1054769465+1042810628
874+1024196788+1014958679+1014742567+1019953931+1026280841+1023649892
862+1017662213+1023039231+1029292434+1019526266+998510597+985023649+992820586
849+1009958045+1015265392+1008415208+1001291351+1004618479+1018205895
837+1028045994+1019352614+1000356634+993400524+1001476217+1010441252+1009744474
824+1001563155+997130872+1000404626+1003967002+1004589475+1007466512+1011976464
810+1009336844+998617793+989360323+988834581+995645595+1003034602+1005385973
797+1000723972+993739307+990243236+987636657+981958084+975237372+969535476
783+964606382+961681278+962288127+965737028+968502234+969817521+973365022
770+971475927+956867453+945119346+947778028+954535817+953107204+943988550
756+930902879+921497920+924962445+935021347+937253187+929660252+920618221
743+916384110+914549585+909815746+904607223+905887824+910474847+906506335
729+895106803+888088274+886039655+881505558+875330248+874188837+876164048
716+872162046+865555483+867398754+873432332+874646777+877215456+888497475
702+898146280+892330758+879348397+871619934+866616609+862586649+864419903
689+870838386+874623678+874013166+869444383+857285954+845984425+849392585
675+866205764+891240703+910440535+906844071+892357968+883447728+883936316
662+896122105+909297555+909943350+893772603+881318898+886808943+891951683
648+891136347+897350006+902518984+894732513+887580997+887132252+886523011
635+891357019+905536035+922529070+913638340+871917452+847435091+863033974
621+883541917+864033577+834661516+844318469+872949125+874715625+859460533
608+859262362+871520212+870154541+878032436+923521048
##END=
