##TITLE=Sample description
##JCAMP-DX=4.24
##DATA TYPE=INFRARED SPECTRUM
##DATE=12/9/2023
##SAMPLING PROCEDURE=Instrument type and / or accessory
##ORIGIN=Default
##XUNITS=1/CM
##YUNITS=ABSORBANCE
##RESOLUTION=4
##FIRSTX=4397.6552
##LASTX=599.8556
##DELTAX=-1.9287962
##MAXY=1.9764296
##MINY=0.3404423
##XFACTOR=1
##YFACTOR=1.8406935e-009
##NPOINTS=1970
##FIRSTY=0.35388431
##XYDATA=(X++(Y..Y))
4398+192255969+192734440+192357550+191658528+191687882+192184098+191865851
4384+191055112+190826352+191686829+192976282+193321583+193154640+193740116
4371+194732807+194870267+193900988+193106213+193581235+194307021+193748664
4357+192772180+192652061+192929264+193170312+193470668+193731810+193918263
4344+194138491+194353925+194556489+194808661+195085022+195190132+194373257
4330+192749076+192039643+192544732+192609884+192069839+192440560+193682282
4317+193980970+193034569+192352547+192328730+192433469+192728384+192909122
4303+192721422+192922237+193544838+193519775+193098895+193451466+193870970
4290+193643424+193848643+194543649+195055587+195462883+195602690+195368393
4276+194921235+194421117+193991057+193545000+193537811+194486982+195294272
4263+194932747+194559063+194773284+194625381+194082648+193553403+193241941
4249+193589298+194130978+193995671+193779233+194162534+194236429+193616272
4236+193420379+193962221+194134686+193690750+193623315+194014323+194240914
4222+194213001+194035096+193657154+193215533+193269546+193962043+194817274
4209+195135472+194620523+194202153+194440546+194758323+194940260+195001428
4195+195052446+195540793+195785064+194761804+193661493+193675239+194155734
4182+194739914+195345856+195934958+196656324+196531120+195301541+194666295
4168+195160795+195701244+196044295+196444499+196252201+195278372+194744901
4155+195029989+195329859+195513366+195722114+195965786+196076612+195699495
4141+195510192+196053766+196259973+195564334+194805131+194416924+194244055
4128+194112780+193893281+194043191+194780974+195326556+195157184+194560601
4114+194194106+194487322+194861507+194396669+193381829+192948854+193510902
4101+194359657+194663591+194544848+194466144+194599168+195096776+195469456
4087+194991358+194262593+194229548+194523929+194708310+195032515+195438451
4074+195583682+194998142+194163797+194475389+195451986+195527241+194804062
4060+194270041+193927281+193271991+192784032+192855757+192929587+193006348
4047+193746139+195029099+195979629+196395830+196220257+195153849+194365971
4033+194923486+195759628+195971792+195819534+195319400+194705477+194630626
4020+194712746+194250401+194043321+194901143+195679743+195404402+195190893
4006+195664734+196010067+196155850+196214816+195620792+194607376+194039030
3993+193824259+193542442+193792266+195056914+196497978+196861316+195921585
3979+194720712+194143866+194121701+194336569+194714106+195030264+194832623
3966+194318241+194304463+194941280+195277660+194762922+193992320+193600551
3952+193702278+194142700+194804742+195062581+194684558+195055911+196090779
3939+195975192+194621171+193284862+193090378+194013837+194592449+194109234
3925+193701241+193819321+193113256+191935196+192314855+194185865+195453541
3912+195406296+194566754+192450598+189515738+188703931+190385136+192285144
3898+193887905+194193426+192442762+190992988+191677957+191994438+192083164
3885+193189337+192848763+192790217+194921996+194964497+192662115+190812768
3871+190156652+191421737+192306014+191972613+193357025+195128947+194224690
3858+190542268+185315032+184953281+191948359+196158570+195808573+193422403
3844+191262792+189837288+188331980+188452747+190873370+192291248+192628762
3831+193470652+193978817+193444342+191202724+187624781+187679943+190448685
3817+191384498+193418469+195795539+195219001+192470902+190786992+190920534
3804+189966847+190344044+193178052+193878498+193684225+194436013+194921899
3790+195001202+194659689+194116439+194186205+193985811+193506288+194547309
3777+196007623+195873045+194252587+193048622+193795262+194972657+195677816
3763+195380115+193552917+192451440+193016338+192410720+189250193+186886480
3750+188805108+189651515+188428671+190936838+194076885+192812803+189238584
3736+187636228+190113163+194027745+195787994+195246055+194650638+194978065
3723+195758138+197420125+199580530+200686962+199921622+198840108+200880588
3709+205050045+208104458+209620113+211413731+216039235+221957690+226038989
3696+227458146+226036689+222715501+221285884+223545442+224952536+223345275
3682+220143881+216762819+213002940+210405837+211331822+211092052+209608099
3669+211586940+214185986+214745249+214660993+214251770+212750768+211642232
3655+211919030+210294541+206651058+207133058+212785222+216970401+218142729
3642+217966654+217700251+217537954+217205605+216083954+213546352+211929748
3628+215501781+219499746+219541162+217336200+215811366+216923918+218286099
3615+217714628+216881983+217098163+218066163+219479281+220160024+219516552
3601+218878051+219089730+219324205+219498386+219890366+219531691+218347122
3588+218510860+220314176+221431342+221699899+221906106+222114562+222199516
3574+222151801+221934990+221173002+220442246+221408772+223074516+223908229
3561+224447027+224924138+224771102+223891423+223231826+223446516+223599389
3547+223462690+224085648+225142244+225584043+225493714+225579169+226164726
3534+226548513+226227854+225834175+225603763+225173023+224836772+225089543
3520+225736091+226300438+226467608+225935821+225060092+224834894+225300056
3507+225462045+225173201+225281566+225752573+225914352+225825707+225710995
3493+225491027+225116792+224987606+225368624+225625929+225500013+225658764
3480+226124055+226140100+225743490+225764441+226379562+226853257+226783863
3466+226438432+226059648+226070091+226577382+226875973+226837665+226940056
3453+227191175+227278557+227180732+227252458+227550271+227782464+228023205
3439+228464890+228709064+228524521+228523048+229058348+229766551+230235323
3426+230389152+230270376+230192353+230834173+231804634+232161172+232231877
3412+232497763+232673870+232822032+233360603+234072530+234421571+234384073
3399+234421069+234820383+235310074+235844371+236565931+237054618+237163161
3385+237353549+237684554+237862718+238042403+238383673+238698730+239181378
3372+239992829+240706423+241160738+241538518+241853461+242174299+242587990
3358+242955780+243206770+243631261+244436236+245238377+245594656+245700528
3345+246024911+246641441+247316468+247812555+248132793+248545707+249047088
3331+249466284+249743147+249917894+250225245+250603381+251023630+251519247
3318+251379779+250533275+250152807+250513571+250544932+250149067+250421315
3304+251055299+251025233+250897843+251531989+252607075+253395875+254039039
3291+255441860+257488670+259135486+260083895+260810539+261667032+262516208
3277+263316504+264271843+265413441+266769275+268059457+268775787+268947361
3264+268813463+268393619+267830389+267583868+267954896+268512556+268679921
3250+268672117+268794811+268778814+268629049+268477843+268135084+267856391
3237+267968869+268146693+268059975+267939839+268123637+268356833+268204073
3223+267875076+267762226+267780699+267725472+267367947+266636138+266141574
3210+266169082+266255913+266070075+265437274+264691670+264537583+264982198
3196+265331062+264871113+263751648+262944844+262712538+262280340+261391578
3183+260584822+260124032+259975886+259999946+259865578+259339700+258537025
3169+257882171+257491163+257034922+256649953+256846040+257488848+258065564
3156+258322270+257971253+256989863+256036386+255575563+255453598+255545756
3142+255882978+256298192+256424949+256047704+255358250+254817720+254580524
3129+254230220+253635791+253185718+253032230+252984369+252555766+251438795
3115+250065198+248979264+248185526+247377556+246421051+245425171+244648659
3102+244136155+243636458+243109318+242367439+241172686+239997055+239352936
3088+239064367+238684936+238060165+237431184+237115738+237013833+236779423
3075+236341413+235809804+235408952+235356736+235546363+235687029+235567929
3061+235211391+235107673+235625164+236078069+235836664+235452974+235508914
3047+235831677+235982058+235765781+235339898+234976576+234794478+234693350
3034+234482934+234122575+233848578+233764985+233609828+233211567+232775338
3020+232533739+232404503+232310969+232351819+232442131+232185312+231466408
3007+230914058+230859430+230736591+230285871+229937947+229843570+229870658
2993+230231599+230931253+231531430+231974751+232403759+232687146+232852212
2980+233049966+233238751+233433591+233588214+233468191+233034375+232483919
2966+232117133+232097412+232242207+232248570+231949331+231480186+231116751
2953+230957433+231009293+231262242+231538862+231592518+231480834+231497316
2939+231599674+231411731+230948755+230608295+230494441+230450192+230345065
2926+230207119+230156231+229949928+229290460+228517867+228123038+228058679
2912+228107494+228317748+228654469+228865969+229007801+229277896+229315135
2899+228854571+228418309+228428623+228808330+229309937+229560863+229525907
2885+229643160+229995197+230172713+230143635+230236392+230390334+230342069
2872+230162740+230048433+230056253+230226839+230492126+230720999+230957741
2858+231107118+230871379+230325117+229859794+229430187+228788690+228364896
2845+228550896+228909004+229071495+229240398+229588355+229912106+230069740
2831+230244180+230436365+230475206+230470430+230557990+230682692+230781277
2818+230833039+230767127+230493340+230192175+230171888+230483140+230953224
2804+231296760+231497575+231815368+232201616+232545525+232922172+233184512
2791+233154349+232929976+232740123+232800919+233011400+233091982+233164209
2777+233454445+233720250+233645513+233437315+233373265+233300552+233167528
2764+233127974+233134078+233152908+233252044+233326279+233246264+233191328
2750+233434660+233877835+234196891+234345928+234473884+234591882+234637265
2737+234535781+234346170+234292045+234437859+234700976+234944502+235040157
2723+235067374+235187769+235407624+235596085+235618088+235508849+235579279
2710+235901654+236103456+236136389+236244203+236518395+236877847+237019079
2696+236960776+237099386+237471256+237815020+237981947+237986561+237981040
2683+238081860+238164288+238159317+238216600+238342516+238443304+238516114
2669+238519660+238365216+238157730+238140374+238277364+238346467+238332640
2656+238387867+238437087+238259943+238073975+238211630+238465664+238410744
2642+238072259+237848211+237840811+237884640+237904085+237847612+237716369
2629+237578715+237439117+237236716+237023969+236947807+236934175+236761273
2615+236478614+236406063+236653993+236906990+236842227+236526684+236197541
2602+235921407+235659990+235460519+235468437+235667907+235845958+235937889
2588+235962159+235894903+235787201+235649644+235500138+235411769+235286857
2575+235076457+234968853+234958021+234889437+234901629+235061804+235025505
2561+234643304+234242630+234040018+233901166+233702440+233511761+233379514
2548+233258812+233138417+232938995+232595587+232303295+232182900+232066925
2534+231894752+231785318+231758652+231787326+231818461+231740259+231604629
2521+231487958+231295190+231032429+230842479+230744217+230656041+230623174
2507+230717971+230822613+230799686+230697911+230659927+230715332+230789146
2494+230844923+230862555+230841831+230868319+231018991+231264006+231597084
2480+231983316+232158549+232029168+231891951+231887498+231835510+231650012
2467+231530847+231611785+231753277+231879743+232027112+232175355+232300931
2453+232339724+232324197+232413910+232535455+232570913+232665856+232897417
2440+233215161+233574063+233779508+233799358+233918021+234096654+234068304
2426+233947488+233940072+234089692+234423627+234771212+234921236+234983684
2413+235052624+235061319+235115283+235292734+235468194+235612421+235792739
2399+236014196+236269882+236513278+236663254+236731385+236718918+236559454
2386+236185544+235337728+233688872+231235349+228120819+224414451+220403857
2372+216533687+212848933+209149446+205542424+202481163+200542394+200138093
2359+201301290+203834116+207850781+213684751+219696157+222470550+220640195
2345+216417048+213626594+213094289+213601174+214650193+215834017+216728494
2332+217613484+219164953+221122568+222689401+223863397+225337732+227497344
2318+229920768+231995184+233625955+235126746+236667026+238133865+239428984
2305+240620337+241749889+242774929+243725621+244513158+244997393+245330374
2291+245737653+246302583+246985609+247633889+248056906+248211448+248244817
2278+248234843+248242340+248386389+248640342+248868746+248931421+248903896
2264+249079324+249441739+249703771+249859413+250067676+250281394+250389338
2251+250428132+250527770+250756319+251073902+251358812+251505727+251567123
2237+251670534+251855708+252032900+252174068+252342598+252484316+252582724
2224+252646921+252613179+252557887+252633855+252866468+253108828+253237837
2210+253289421+253343854+253472102+253626092+253675118+253637183+253687779
2197+253924133+254188124+254284459+254308940+254457280+254614201+254633825
2183+254708853+254964214+255237353+255399083+255447219+255412441+255404653
2170+255539992+255755459+255935663+256105068+256293286+256441836+256519601
2156+256518840+256499621+256613168+256853488+257056780+257157810+257280844
2143+257515660+257674945+257663271+257713107+257909339+258075765+258141888
2129+258178414+258226193+258286504+258368430+258494491+258617396+258653518
2116+258707708+258932080+259243656+259465293+259553468+259651179+259831253
2102+259912483+259816504+259701646+259697242+259816779+260014226+260234372
2089+260391132+260421133+260388509+260402401+260464347+260534032+260642332
2075+260748398+260785718+260835731+260964465+261105049+261200381+261284104
2062+261402329+261615562+261857323+261874680+261667032+261533717+261582257
2048+261638213+261657318+261758478+261916468+262022210+262033803+262060502
2035+262196294+262379477+262574641+262721249+262735189+262642286+262596498
2021+262705430+262884889+263063765+263245167+263489697+263784127+263997425
2008+264188217+264415714+264556850+264594218+264645300+264834101+265076882
1994+265100229+265068253+265426474+266011367+266407573+266547558+266604291
1981+266790032+267111922+267400863+267579124+267712876+267751135+267611829
1967+267583754+267934998+268416626+268771982+269063611+269317628+269483309
1954+269623878+269817941+270039496+270183108+270115139+269913985+270127088
1940+270923287+271669166+272048775+272233934+272413360+272680217+273010866
1927+273141267+272951381+272938072+273171220+273335524+273934293+274967105
1913+275511699+275454059+275544728+276142201+276823835+277284269+277701927
1900+278147110+278340590+278351276+278558032+278694230+278730270+279340729
1886+280282872+280963145+281455443+281911441+282395514+282847140+283119373
1873+282917603+282081606+281690436+282998427+284972638+286229693+286802232
1859+287257939+287818173+288361310+288855518+289309282+289515359+289233185
1846+288717476+289304554+291208400+292699800+293449564+294121159+294540242
1832+294104580+293648193+294500769+295821939+297116945+298773945+300184035
1819+301078254+301833944+302379024+302424488+302530408+303471321+304799453
1805+305688814+305915550+305978306+306765989+308010674+308357740+307818878
1792+308621003+311333514+313564479+314577926+315088682+315537070+316315978
1778+317269649+317274959+316106242+315718796+317911323+321053701+323377633
1765+324251710+324370712+325293783+326658636+327766023+328688770+328640715
1751+327763789+327872040+329596491+331662050+333004172+333624247+334568010
1738+335463135+334864366+334895582+337949752+341279037+343865519+345644209
1724+346655422+346918555+345510117+343239291+343993361+348099578+351902346
1711+354102063+354542809+354028686+354156043+354235604+353520586+354253641
1697+356793720+360926134+365462864+367798194+368471667+367830479+365882497
1684+366867482+372103882+376216639+377884876+378468199+379586498+380402515
1670+381273872+384939213+389146395+391146220+392828801+395829639+398084371
1657+397394869+394051888+394585763+400465392+402927464+404684912+410462830
1643+416288122+419132977+419231774+417690570+419218465+425737501+430938022
1630+433338666+435033715+437053681+439857865+444349584+448377664+450768853
1616+455029789+461672426+467160981+471373896+475563236+480217738+485041920
1603+490095008+495476704+500822748+506158042+511814982+517572046+523221571
1589+529068171+535043552+541018026+547370686+554102113+559734054+563969182
1576+570285348+578199999+583788355+589054190+596612061+604775663+612097990
1562+616726555+618524447+625995082+640286388+652419394+662425252+671414520
1549+680176728+687709795+693461614+697776076+703213404+715570426+728578060
1535+737101422+745067819+754800376+763023041+769082550+775095170+781232006
1522+788615664+798143698+807512803+817256174+827025516+833883879+837127158
1508+839251522+847066568+860189674+869878775+875434749+879751025+887226388
1495+895973895+900000809+900332203+903535134+911822498+919574335+924858174
1481+929040714+932435604+935443144+938250307+940525505+942782310+946395516
1468+950349895+952237874+953003246+954635085+954749522+951056851+947327848
1454+947194112+946755859+945609938+946769848+948380445+946147797+942169067
1441+938762779+933876457+926329077+921338097+920207525+918514290+915999792
1427+913729128+913373578+916439081+918995093+919339827+921285898+924968077
1414+928806530+932370128+935664440+939448427+943435706+948335694+954570257
1400+959262678+961378040+962461659+963992857+966779813+969268536+971071026
1387+973158022+974379457+974172085+975188738+979142081+983391328+985730511
1373+987747109+990089726+991226256+992026341+993103483+991485179+988952483
1360+991309153+995121830+994208733+990251763+986482348+983752707+983193217
1346+983467489+982840516+982166719+980964908+977116805+971595155+967207380
1333+964991700+965027190+965759598+965866587+966747820+968127019+968627897
1319+969730880+972319597+974260875+974409507+975177016+978780702+983130202
1306+985052116+985911136+988232769+990377145+990952113+991517626+993439410
1292+997704653+1002584175+1005675649+1009816352+1015773017+1019954132
1281+1023045411+1027861077+1033514844+1036820360+1036981426+1037199225
1269+1039780040+1043611952+1046730950+1048073492+1048019415+1047620473
1258+1047985609+1050211392+1052899067+1053297426+1053191343+1056086131
1246+1059148720+1058332379+1057711883+1062033923+1067533424+1069621261
1234+1070692186+1072522590+1072771734+1071672378+1071330752+1072053057
1223+1073481669+1073216528+1069861663+1067357203+1067656668+1067745977
1211+1066780680+1068205407+1072095995+1073348192+1071280366+1069411299
1200+1069027188+1069527031+1069376068+1067615608+1064938555+1062645547
1188+1060357462+1058079544+1057129661+1057293577+1058871857+1061121215
1177+1062298287+1063000450+1062304245+1059905220+1058598880+1057516233
1165+1053682637+1049988347+1049692703+1049582152+1046536596+1042619002
1153+1040192777+1038982999+1038942263+1038794991+1037066525+1036240470
1142+1037075268+1038113747+1038337439+1035869376+1032584584+1031854573
1130+1032391396+1031401554+1028385853+1025550907+1025354610+1027113968
1119+1028624636+1029392210+1030504324+1031148783+1027861336+1022065414
1107+1018217311+1015121304+1010442418+1007071945+1008993664+1015272656
1096+1022147728+1026753690+1028210539+1028251146+1027058790+1025059224
1084+1025892274+1030932539+1035253284+1033666260+1030658525+1030163993
1072+1029463061+1030922759+1034627476+1032694811+1025932686+1022433269
1061+1023191193+1026415302+1033938395+1044523236+1051074492+1050866148
1049+1049327762+1049228933+1048677215+1049061585+1050672377+1050169620
1038+1048777016+1047743070+1044928913+1042439284+1041700141+1040596640
1026+1039661718+1039092319+1036782732+1032542423+1028466872+1026039287
1015+1026850511+1030981629+1031903210+1025466715+1018447803+1019172504
1003+1026593595+1030319360+1028048696+1029111396+1033915599+1035973645
991+1037104411+1041153798+1047818584+1052701021+1049027973+1043504380
980+1046731922+1053239592+1057297592+1060433364+1061037605+1061268486
968+1063837515+1065208488+1065349607+1066569941+1066225336+1062440507
957+1058347664+1057360672+1059461721+1063691603+1068005677+1068878168
945+1067497998+1066788711+1067133834+1068547098+1069073170+1068040649
934+1066577842+1064594144+1063139108+1063969761+1068084235+1072799582
922+1073741823+1072751204+1072905989+1073496565+1072796409+1068757902
910+1063724956+1062048041+1062887503+1064758642+1065909226+1063832269
899+1064007389+1070058154+1071007260+1062854214+1057217739+1057018204
887+1057548032+1059492548+1061831149+1060825959+1060023931+1061779080
876+1059421244+1054845591+1056480863+1060693324+1059644289+1052312830
864+1044382829+1044474728+1052460361+1058189123+1056146167+1050586436
853+1045784176+1042887122+1042553785+1045050279+1050885642+1055081264
841+1046888131+1032083252+1027156453+1032366527+1037426350+1037551602
829+1033880108+1030973340+1031978530+1033938460+1033490817+1033841963
818+1037974635+1040807574+1038749268+1038475385+1043285610+1045476486
806+1041258197+1035660062+1031123072+1026855951+1021603004+1014897417
795+1010481600+1012589320+1016212889+1013829212+1011465095+1014935498
783+1016858125+1012286811+1005116677+1001008097+1002164704+1001862777+996355764
770+992319719+991644756+992226265+994200573+995416827+994907787+992874740
756+988438975+983397286+978587902+973387931+969904964+970660686+974803721
743+978434802+978084951+973030115+966704688+963847398+964180670+963594822
729+959725800+953881630+948614629+943752204+937961010+933707684+932945161
716+931666346+926422725+920959880+922625720+933770245+946183611+947748161
702+940258680+934891556+934945892+938288064+941029687+940332187+938527105
689+935989940+932911290+933711893+940640071+950554223+956289657+955523767
675+952684481+948081498+939411707+930702928+931829938+941045619+950357408
662+956449816+955665015+951728316+949517947+949775510+953022286+958499055
648+966623864+975040236+970655700+952359823+938886412+937369074+939028308
635+933913631+929566074+953704114+1002694920+1008742383+963094849+936852198
621+947630163+969527200+973141054+965265066+977988842+1004098729+995983699
608+956538283+926567341+927853863+954846084+965177117
##END=
