##TITLE=Sample description
##JCAMP-DX=4.24
##DATA TYPE=INFRARED SPECTRUM
##DATE=12/9/2023
##SAMPLING PROCEDURE=Instrument type and / or accessory
##ORIGIN=Default
##XUNITS=1/CM
##YUNITS=ABSORBANCE
##RESOLUTION=4
##FIRSTX=4397.6552
##LASTX=599.8556
##DELTAX=-1.9287962
##MAXY=1.7635961
##MINY=0.18184568
##XFACTOR=1
##YFACTOR=1.6424768e-009
##NPOINTS=1970
##FIRSTY=0.1858286
##XYDATA=(X++(Y..Y))
4398+113139250+113108304+112670689+111901652+111135708+111396366+112229146
4384+112474917+112358319+112318446+112554264+112653724+111912865+110988545
4371+111136524+112373869+113428605+113879338+114295161+114313134+113737591
4357+113251140+113217209+113712561+114275538+114167613+113900595+113993015
4344+113937601+114179870+114940452+115066549+114578129+114244492+113897401
4330+113541755+113599918+113538562+112967020+112762801+113143841+113772075
4317+114642969+115438561+115684749+115124512+114598986+114943328+115505978
4303+116018259+116620274+116588720+115619065+114692694+114628571+114976406
4290+115154896+115323678+115866886+116795997+117576375+117755618+117395554
4276+116673193+115785825+115188291+115060361+115297223+115935047+116329477
4263+115895836+115347148+115343301+115871577+116525704+116738741+116856383
4249+117471907+118134462+118191954+117823570+117623561+117550210+117265864
4236+116860991+116439126+116248525+116638101+117254279+117380231+117051085
4222+116790826+116778569+117205787+118018100+118413292+118089137+117819714
4209+118008846+118282505+118574046+118678306+118238949+118038449+118573801
4195+118815044+118238404+117650261+117653336+118008520+118325127+118550648
4182+118511192+118243612+118589696+119331580+119417395+119332297+119616942
4168+119936771+120292734+120499430+120320922+119873745+119020978+118310929
4155+118719712+119336778+118918215+118389387+118531306+118620741+118615833
4141+119100987+119454139+118810671+117673749+117159264+117737337+118694355
4128+119171915+119380217+119538484+119500326+119408532+119341206+119342340
4114+119566482+120066814+120404188+120061008+119568187+119491952+119474198
4101+119444957+119745788+120058304+119914353+119921638+120480015+120662034
4087+120343512+120417207+120433937+119880812+119916412+120899712+121729172
4074+121727194+120873194+120141507+120460972+120863958+120448498+120068275
4060+120541617+121363247+121648918+121453916+121456166+121648237+121446332
4047+121018642+121060248+121599854+122342337+122964085+122865741+122098209
4033+121714339+122094634+122279067+121836861+121567212+121867190+122119765
4020+122119992+122377266+122579008+122300441+122064596+122046614+122119819
4006+122243702+122161643+122195437+122695915+122968621+122514876+121849853
3993+121594620+121995764+122836020+123409539+123170772+122453810+122068624
3979+122081652+122078104+122135524+122412267+122735543+122847433+122718777
3966+122379988+122102908+122707146+123632492+123480575+122844774+122606715
3952+122475193+122647269+123170391+122819871+121876190+122263444+123636520
3939+124369486+123763035+121974434+120966240+122054190+123127705+122613084
3925+122157415+122616314+121974063+120375882+120909048+123647081+125238647
3912+124961304+123757745+120733951+116686838+115468074+117451167+120292462
3898+123022684+123271085+120397175+118843894+120931257+121440172+120165140
3885+120633701+120404460+120654722+122986494+122053219+118886335+117037975
3871+116313891+118015297+119080221+118246660+120265063+123787240+123680666
3858+118537965+110714305+110856587+121154827+126713225+126132892+122785795
3844+119232346+116300219+113991055+115271612+119755078+122320210+123299400
3831+124571673+125047428+124441085+121944414+117757977+117943988+120988658
3817+122353832+126041661+129204163+127571344+123130645+120902552+121303269
3804+119567099+120088678+124686838+126627319+127752048+129584277+130042658
3790+129698072+129200280+128836831+129012554+128293115+127540580+129631644
3777+131877419+131072110+128433093+127133838+128670126+130619271+132020472
3763+131726364+129169325+128763055+130842270+129579360+124146914+121683021
3750+126379888+128220981+127126272+132656345+138467681+136976019+132295755
3736+131018918+135765202+142776767+146922587+147268190+147181522+149119462
3723+152382577+156627395+160984837+163456314+162918686+162087856+167396337
3709+177641912+186581211+192446009+197586996+206028222+215992789+223777592
3696+229204885+231777773+231880727+235214334+244623853+252281353+254927728
3682+254842538+253079123+249890003+250185526+256853139+261061776+263775468
3669+271125287+278326065+282484460+285529874+288189911+290023619+292886715
3655+296985449+297093664+294459156+298785571+310267947+319298586+324375449
3642+327775992+330948093+333958052+336653199+338888596+339697234+341488955
3628+349484655+357604573+360796197+361090868+362011061+366371787+370720429
3615+372957894+375907649+379624854+383340026+388054321+392109345+394310557
3601+396444088+399112237+401439845+404463303+408140191+409442475+408483780
3588+409728981+414105312+418208419+420985545+422434366+423040873+424115912
3574+425729561+426464423+425514255+424329984+426060775+429819096+432134728
3561+432552819+432578730+432827204+432452661+432040376+432731291+433456029
3547+434433159+436907195+439384425+439962698+438943943+438214778+438868424
3534+439732695+439190675+437329786+435662393+435230149+435947556+436868039
3520+437156940+436957529+436358861+435134127+433693870+433172825+434139868
3507+435176259+434810752+434070591+433787569+432969060+431722734+430770171
3493+430476698+430735514+430298117+428794970+426933828+425393411+425247528
3480+426379760+427014935+426183434+424648678+423244711+421979732+420524886
3466+418736976+416913792+415312445+414374326+414680137+415882626+416550171
3453+415541142+413482838+411830033+410968847+410260767+409665619+409456592
3439+409016981+408120086+407139435+406010506+404849242+403929594+403121536
3426+402504252+402433777+402633624+402605935+402352053+401693907+400811855
3412+400920361+402056367+402390847+401646041+401494243+401930914+401883084
3399+401776030+402045117+402183852+401951163+401394555+400831996+400843536
3385+401190064+401019395+400554526+400435751+400419094+400598110+401336129
3372+401900721+401442929+400240912+399310014+399460942+400387014+401012971
3358+401243119+401707879+401789203+400754372+399644132+399336107+399356392
3345+399485148+399827249+400018857+399618765+398964974+398728729+398425240
3331+397446295+396126483+394614263+393084407+392165993+391912729+391526246
3318+390256476+388254059+386751166+386775697+387798408+388491174+388218822
3304+387398498+386566597+386234440+387062747+388375810+388695157+388282473
3291+388702669+390134689+391206680+391462884+391551394+391673400+391762853
3277+391575164+390625867+389534678+389503470+390123367+390096948+389514211
3264+389251657+389385347+389674175+389311244+387679959+386451415+386838007
3250+387404050+386930654+385960309+385067442+383657378+381857746+380873212
3237+380824330+381325234+381990094+381704677+380234118+378882080+377909268
3223+376516659+375458240+375484441+375649050+375533831+375305933+374566680
3210+373135821+371703439+371377196+371983231+372261789+372181698+372238600
3196+371908946+371064816+370677281+371052260+371119722+370448258+370013728
3183+370079085+369779769+368684625+367537151+367402626+367705498+367066803
3169+365775950+364809198+364376809+364265763+364000668+363455201+363023864
3156+362512981+361538100+360537707+359946152+359642300+359338812+358976461
3142+358648259+358017003+356736383+354929058+353288374+352785293+353114184
3129+353153159+352782390+352112232+350752501+348961614+347578622+346894166
3115+346411262+345272461+343486982+341938364+340816693+339627232+338111057
3102+336339332+334619101+333451196+332868460+332315481+331428565+330351312
3088+329685109+329350956+328420820+326927798+325768131+325194067+324663225
3075+323904158+322964441+321925473+321183789+320736230+320422617+320244000
3061+319688589+318587022+317763287+317751819+317868853+317614427+317124301
3047+316109066+314768896+313758959+313129264+312952462+313148860+313017710
3034+312188023+311025127+310090636+309696061+309604938+309318432+309045172
3020+309755104+311333805+312129198+311665673+311267758+311457589+311629528
3007+311807347+312357423+313185658+314555550+316907145+320361868+325150302
2993+331081928+337141475+342390023+346721283+350395884+353506510+356275725
2980+358679323+359861199+358988908+356207137+352170730+347731292+343904710
2966+340909267+338197789+335610748+333659135+332586563+331962348+331526910
2953+331207163+330995305+331110633+331571365+332265582+332912080+333262273
2939+333339606+332789421+331364297+329376213+327172498+325228180+323606439
2926+321675076+319199733+316491158+313981885+311989738+310178312+308086150
2912+305936288+304287040+303327092+302432683+301022383+299479590+298285139
2899+297507510+297086987+296666156+295942344+295141979+294737842+294905299
2885+295181771+294993682+294252379+293062338+291446439+289474160+287550037
2872+286033100+284520500+282661226+280875257+279397331+278024227+276754984
2858+275608908+274290874+272476671+270165485+267638448+265252487+263429085
2845+262291954+261261550+259890243+258524760+257447506+256480065+255600480
2831+254891021+254205186+253494910+252904933+252404665+251831817+251123138
2818+250336291+249660798+249208903+248860180+248630195+248650009+248605337
2804+248241680+247900812+247558603+246858125+246061244+245472828+244971851
2791+244422193+243688746+242766993+241979420+241498240+241021396+240284647
2777+239471018+238885687+238487156+237987322+237300816+236575952+235977429
2764+235609798+235367657+234944068+234307078+233778286+233434570+233139210
2750+232918896+232679168+232231247+231695850+231172447+230526294+229832113
2737+229345198+229164567+229127135+228985787+228754351+228527270+228326516
2723+228203204+228013193+227649354+227345466+227191490+227109784+227197205
2710+227361887+227361633+227193703+226902771+226568127+226317131+226069528
2696+225677093+225275550+225049339+224787220+224305405+223765599+223297882
2683+222986137+222870591+222706562+222174486+221359878+220664099+220232581
2669+219844193+219336448+218844671+218471561+218026870+217425027+216819772
2656+216255053+215815334+215664351+215616231+215342409+214849398+214413380
2642+214231189+214197820+214078537+213813732+213534703+213299365+213096580
2629+213063592+213206319+213274961+213165530+213014039+212990487+213110279
2615+213212452+213223992+213283670+213484133+213712340+213828774+213799380
2602+213690330+213612616+213600804+213658395+213801249+213920042+213869691
2588+213698169+213543938+213352058+213028573+212711929+212521083+212380261
2575+212149025+211748062+211232225+210677177+210139531+209626016+209051735
2561+208506558+208168540+207872127+207424587+207071309+207020667+207007984
2548+206771285+206423305+206086993+205773415+205621344+205641866+205638527
2534+205595415+205630434+205728979+205761694+205672349+205563027+205542360
2521+205629836+205879453+206280343+206570205+206585157+206517331+206584431
2507+206736901+206873259+207094316+207378064+207563340+207713850+207879603
2494+207985223+208063264+208143082+208161463+208104724+208054300+208062973
2480+208100370+208117535+208013856+207738872+207436218+207248637+207204800
2467+207237787+207152706+206883529+206684245+206658225+206538924+206299631
2453+206156015+206099041+206023432+205901680+205847518+205953665+206094359
2440+206133262+206048127+205907432+205816854+205766393+205664202+205567509
2426+205530892+205438173+205357574+205422605+205461198+205375592+205354017
2413+205428465+205488325+205592639+205756504+205902606+206024157+206148540
2399+206322838+206522321+206645941+206653508+206598765+206514174+206274174
2386+205578450+204036165+201359978+197645840+193299321+188501995+183330326
2372+178156443+173182297+168354579+163791466+159951530+157448063+156664247
2359+157803682+161055638+166435083+173666181+180749363+183879676+181373034
2345+175878188+172096189+171185214+171751602+172967318+174152532+174853373
2332+175515039+176957220+178994566+180842572+182431254+184463628+187267844
2318+190178860+192439713+194087401+195634331+197268919+198877940+200468999
2305+201991742+203243040+204233598+205111204+205850204+206422761+206928255
2291+207475011+208081100+208642299+209079261+209382278+209517148+209486519
2278+209387358+209292715+209221606+209269236+209446419+209570529+209626198
2264+209772099+209972871+210102225+210193185+210290948+210368572+210449570
2251+210562521+210672678+210740811+210811739+210942490+211057818+211092819
2237+211136639+211266591+211399429+211464859+211543916+211719430+211968866
2224+212169474+212245174+212280520+212344190+212356619+212256550+212189542
2210+212291388+212457830+212568332+212680303+212858393+213016452+213120676
2197+213305861+213588248+213789491+213871741+214001567+214217417+214405832
2183+214566032+214751852+214915409+215048283+215212220+215343770+215322758
2170+215223053+215264205+215480273+215697429+215824225+215915710+216075856
2156+216299853+216439767+216476111+216570518+216772614+216961846+217089585
2143+217254684+217475596+217623076+217703857+217834844+217993828+218137190
2129+218266108+218381926+218517884+218691076+218917777+219165180+219316544
2116+219364228+219442232+219611450+219808429+219968666+220064724+220130081
2102+220255516+220434859+220554614+220616941+220750432+221011734+221296280
2089+221473083+221628184+221893859+222210648+222504902+222751307+222903687
2075+222974687+223120263+223402323+223643249+223787826+223958786+224188661
2062+224397471+224543192+224688096+224882589+225132950+225422051+225703730
2048+225930974+226114145+226297788+226484552+226726948+227040163+227357133
2035+227682958+228000509+228295071+228585333+228834006+229059491+229296661
2021+229477873+229616390+229933886+230527873+231097908+231412338+231709930
2008+232218509+232718361+232982548+233176588+233510869+233982941+234399562
1994+234489016+234522964+235056892+235925227+236700951+237270968+237706043
1981+238103485+238458560+238780756+239095404+239431209+239692983+239714884
1967+239789622+240251514+240825306+241236992+241506242+241654321+241773024
1954+241923045+242047209+242127899+242068275+241670288+241131915+241256407
1940+242152158+242867243+243020965+242966367+243047003+243303497+243521669
1927+243406577+242967166+242815403+242968889+243000697+243568319+244727587
1913+245375100+245392900+245585380+246315633+247148513+247716244+248136259
1900+248523340+248780161+249043695+249485193+249658730+249781025+250796187
1886+252174408+253121545+253899973+254674481+255359337+255949712+256376223
1873+256105993+254848907+254229917+255988161+258552848+260102191+260812540
1859+261406109+262203081+263078401+263870982+264516499+264772631+264246995
1846+263310491+264115011+266901680+268978764+270005484+271084951+271898435
1832+271424621+270741689+271759337+273572814+275600906+278078353+280013055
1819+281169310+282145026+282948602+283322602+283943714+285528930+287341844
1805+288419061+288573219+288570497+289608721+291232259+291661418+290945717
1792+291964018+295378024+298045792+299161258+299785074+300344677+301255053
1778+302446255+302426986+300668724+299596424+301761981+305370789+308270646
1765+309451070+309417938+310133494+311357538+312426591+313561617+313370335
1751+311807818+311552449+313456595+315632331+316826183+317193759+318016406
1738+318770320+317630540+317441907+321276218+325427082+328615477+330741351
1724+331834826+332085079+330427447+327897380+329354730+334951876+339951007
1711+342825461+343504474+343158272+343788003+344140229+343342441+344904341
1697+349267861+355900745+362952337+366903283+369050750+369909359+369245407
1684+373070682+382687578+390490290+394918079+398083067+402241879+405707452
1670+408779212+415254672+422287067+426627544+431157017+437831198+443656097
1657+445645995+444416398+449484370+461271232+467616522+473650702+485294003
1643+496583446+504314341+509039450+512298173+520619716+535016736+546783894
1630+555589937+564419642+573582556+583853171+596444100+607147031+614730954
1616+624650758+636893671+646558505+653608682+659675414+665764354+671410563
1603+675996829+680027938+683550268+685581464+686332003+686828806+687083413
1589+686605481+684966430+682448592+680392865+679055888+676341071+671163359
1576+667434469+667525411+666841789+665534061+667448477+671180198+674008818
1562+674021955+670514721+673518983+687487460+700239442+710586954+720114469
1549+729970331+738719872+745060082+750378306+759566006+779577047+799214160
1535+811437984+822853351+836049008+845756011+851964707+858288005+863460854
1522+866626459+871853234+878584281+884712705+890142628+892485986+889924529
1508+884486113+886384126+898760148+908363726+912359126+913011031+915305397
1495+921290260+925360707+925891186+929028703+938141792+947052749+952329966
1481+955633181+957990473+959105577+958916509+958272733+960126182+964856154
1468+967763233+967066765+967170625+969436178+968340236+961334622+957102760
1454+960850375+964582169+964776535+961719726+958118285+955989979+953663024
1441+949763864+944375455+937401341+931517001+927771200+923969948+921765580
1427+922260641+922650825+922219924+922899263+927642808+936284278+941848691
1414+941826337+939933477+940905527+946218453+953572518+960634888+965288798
1400+966096674+966260703+969018341+973619195+978588460+981214730+981168643
1387+980980445+981312930+981855893+983105268+984960677+986726451+987442587
1373+987743427+989871298+993150997+995344986+994876707+991000046+987956011
1360+989615166+991819317+991159720+989691737+989255755+988292197+985388747
1346+982434202+981146651+978428351+971880493+966292057+965309192+965506027
1333+964413495+963355366+962833378+962926425+964951596+968078371+970492493
1319+972966420+975738211+976753518+976311222+976979457+979030974+981589528
1306+984899710+988897651+992110504+993449224+994097789+994924899+995395211
1292+995768049+997019383+1000406064+1006525851+1014048517+1020904182+1026206439
1279+1031552389+1037551404+1040506312+1039911455+1040943963+1044437480
1267+1046570794+1046492554+1046175674+1047105773+1049514960+1052611034
1256+1054668648+1054681858+1054668721+1056196508+1056684166+1054765251
1244+1054175039+1057313789+1060720574+1060655325+1059595745+1060670204
1233+1061370156+1059876916+1058435497+1057879832+1056549242+1053855401
1221+1051452891+1051266509+1053989019+1056999667+1056244991+1052449691
1209+1049135807+1047754775+1047466418+1046346089+1044735852+1045046563
1198+1046578560+1046375193+1044014272+1041218675+1039536947+1038859277
1186+1038006402+1036356899+1034111451+1032553688+1032798642+1035044671
1175+1038199026+1039546165+1038018522+1035974190+1035912135+1036926862
1163+1036734310+1036131542+1037193662+1037856817+1036111220+1036668844
1151+1040268689+1040400057+1037959371+1038025853+1039315219+1039673033
1140+1040515094+1042986989+1045824972+1046301453+1043656240+1041795242
1128+1043867154+1046885424+1047246432+1047471717+1049598934+1049259555
1117+1044972677+1041574457+1041097758+1039711500+1035859298+1034527982
1105+1037474833+1040224851+1040734355+1040564811+1040088402+1039380902
1094+1039450578+1039728628+1040039049+1041940763+1045671903+1049937878
1082+1053230568+1054573642+1052870649+1049207661+1047063605+1046735911
1070+1047762976+1051304975+1055511653+1057253621+1056543436+1054886530
1059+1053641002+1054175184+1056564338+1058968662+1058908422+1055612175
1047+1052186229+1053051951+1057263564+1058479190+1055919329+1053983648
1036+1051045941+1046133651+1044097665+1043657038+1040688921+1039887939
1024+1045071820+1049083696+1045132496+1038926413+1037537179+1038272984
1013+1038260065+1038433384+1036617748+1034785274+1038307532+1042955490
1001+1043458462+1041795242+1038579921+1035871419+1036851815+1038710563
989+1039419805+1040944036+1043284926+1045096497+1047515627+1051585711
978+1054984802+1057117318+1059527666+1060636237+1060018662+1060479757
966+1062189645+1063931323+1067546844+1072550802+1073741823+1071460738
955+1070677611+1069835332+1066206673+1063756407+1065725838+1069137558
943+1069787430+1068982819+1070181606+1071923792+1072213165+1071851213
932+1070700691+1069711657+1070985491+1072298155+1070168615+1067264512
920+1067506055+1069639369+1071114464+1071250550+1071139504+1071092618
908+1069658385+1069066721+1071078900+1070831624+1067055412+1065336016
897+1066746588+1067512514+1065719088+1061276238+1056680755+1055107969
885+1056037125+1058308629+1060157288+1058921776+1055905104+1053468192
874+1051075190+1047362485+1043083011+1040137684+1037954218+1035914313
862+1035636843+1035837452+1033675179+1031971097+1032153052+1030343441
851+1028485491+1029957611+1032043168+1032961437+1032431102+1030405205
839+1028097702+1025731337+1024194913+1024427456+1025061651+1025289984
827+1025682709+1025522527+1023206024+1020169465+1020008630+1021632802
816+1020426612+1017223194+1017095164+1021011381+1024496696+1022421736
804+1016550096+1014004389+1015459524+1016673989+1017616862+1017761367
793+1014444653+1009826525+1006176383+1001152901+994967358+990927031+988385461
779+985502842+984615273+987012920+988861216+987320074+983171387+977125703
766+970923176+968020453+969123653+970833396+970428986+968356566+966660540
752+966531277+965297943+960288905+954266446+951621087+951814220+950849065
739+947825933+942507490+935073734+930468017+930179661+928776999+923540644
725+917457001+912412399+906913816+900790255+896472241+896935876+902834006
712+909153821+910956320+909923376+909113612+909490805+910217611+909028114
698+906712845+906630468+908503441+909894344+909337954+906111092+902752863
685+903057985+905586346+905719021+902981922+900725877+900914510+901356734
671+898079357+894193987+900156786+909698744+912538614+912133986+911734294
658+910173701+906908518+905041569+905918032+907908220+909795637+910005680
644+910324447+912089713+910231909+904903668+901795619+901935333+902680066
631+899694095+891222241+884697391+888180964+895464627+894676855+885562968
617+876529425+873509269+873188687+870998254+867670653+868196778+877097936
604+887370402+890463500+893017482
##END=
