##TITLE=Sample description
##JCAMP-DX=4.24
##DATA TYPE=INFRARED SPECTRUM
##DATE=12/9/2023
##SAMPLING PROCEDURE=Instrument type and / or accessory
##ORIGIN=Default
##XUNITS=1/CM
##YUNITS=ABSORBANCE
##RESOLUTION=4
##FIRSTX=4397.6552
##LASTX=599.8556
##DELTAX=-1.9287962
##MAXY=1.6899602
##MINY=0.13931356
##XFACTOR=1
##YFACTOR=1.5738981e-009
##NPOINTS=1970
##FIRSTY=0.20650388
##XYDATA=(X++(Y..Y))
4398+131205368+131394116+130851504+130190424+130451618+131278752+131544955
4384+131327246+131021904+130594864+130286189+130347540+130771607+131189330
4371+131284338+131225345+131180023+130864324+130097877+129547104+129494795
4357+129542001+130118839+131573093+132715652+132481971+131871514+131820796
4344+131668679+131281394+131061280+131189463+132046893+133010040+132677876
4330+131303737+130570892+130912950+131102322+130360520+129534030+129961088
4317+131322266+132157902+132053918+131157878+130059827+130341925+131853213
4303+132480295+131974447+131794599+131919496+131304476+130387749+130280367
4290+131010978+131777945+131782726+131660356+132253772+132629601+132143331
4276+131556771+131477299+131515283+131202481+131091557+131446870+131436304
4263+130931696+130856125+131508343+132209103+132330308+131919023+131106242
4249+130170579+130158054+130988322+131178859+130567464+130504883+131641752
4236+132883401+133221993+132853502+132216914+132000076+132241662+132080835
4222+131382546+130795011+130882236+131717106+132621250+132669867+132315747
4209+132415925+132134990+131416071+131692660+132551653+132559663+131853686
4195+131151469+130795673+130989666+131466231+131713688+131549196+131292357
4182+131192795+130854411+130407480+130396270+130451940+130368804+130519369
4168+130962967+131464612+131660536+131570840+131300140+130635452+130030344
4155+130172265+130713598+130867495+130647807+130614850+130934545+131347412
4141+131543923+131416441+130873043+129948837+129138290+128859278+128962721
4128+128970646+128874028+129094426+129727113+130407243+130572293+130389804
4114+130498966+130548113+129657564+128389709+128416825+129494085+129790765
4101+129238316+129200142+129744572+129793766+129570594+129855372+129985770
4087+129546082+129289546+129378163+129504945+129696249+129656882+129218481
4074+128775498+128494185+128497963+128849204+128960383+128412346+127945315
4060+128223921+128515487+128359043+128462250+128885645+128797709+128068613
4047+127612555+128150480+129272494+129934721+129380928+127789297+126545983
4033+126688879+127439192+127878559+128009516+127900656+127792857+127769387
4020+127673025+127832943+128354414+128589808+128156501+127668556+127937391
4006+128711402+128995745+128591096+128037720+127494711+127053394+126866388
3993+126759536+126848437+127435613+128167465+128489413+128255988+127603986
3979+126939715+126534404+126296178+126121140+126087653+126252665+126328614
3966+126119947+126052622+126764222+127676660+127702602+127184038+126367612
3952+124505925+122434284+122548369+123563172+122889499+123036703+125292396
3939+126647732+125576474+122477475+120238076+121767210+123940412+122742835
3925+120590245+120584924+120006847+118038034+119120985+123933576+127211182
3912+127026600+124840456+118951068+109379615+103205098+104656152+111077226
3898+119098773+122625285+118452869+113950752+116008144+116333482+112548977
3885+112241722+112369763+112711130+117393626+118003372+112853921+107778924
3871+104826958+107530747+110905435+109865950+111545687+117103205+118455606
3858+110862490+95178286+88514982+104635872+119768754+123675127+119267506
3844+111722571+104654713+99100329+99554872+106440005+111644615+114287811
3831+117174165+118567722+117790312+113308076+103758304+100736410+106655536
3817+110702600+117331716+125145562+125667666+118815188+112425622+110725152
3804+106786967+105675319+112788566+117753615+121449352+126590396+129206003
3790+129172563+127621095+125627476+125395357+124567626+122448817+124944554
3777+130581742+132121111+128054506+123675231+124491127+127790263+131109707
3763+132176364+128423973+126064409+128227717+126222671+116077997+108445799
3750+114588428+120101817+119758775+128107989+139921824+141343869+134627205
3736+130547298+138844828+155686711+169204889+174205092+175371245+178982672
3723+185907332+194948719+203891130+208943860+207209627+202925768+209681259
3709+229422600+249932166+264043419+273642489+286745662+302914866+314463615
3696+318109713+311836354+296867632+284918191+285831160+290080083+288795206
3682+282361199+273030290+261065947+252572834+257104557+261515416+260988937
3669+268186759+278440917+282566572+282133596+279398024+273710505+268283594
3655+266404620+259501470+244607847+238843867+251414767+265074884+271259645
3642+273053486+273804311+273239810+271118937+267799228+260769306+252543484
3628+257426383+269869392+274215246+269727926+263157812+262889687+266327553
3615+267504461+268637477+269985220+271067906+275367179+280274390+281127541
3601+280105070+280253466+280403302+281053125+283522637+283329742+277912886
3588+275911362+282294849+288145874+289827921+290345538+291180549+292281167
3574+293358040+292093764+285828300+278459606+279463710+287092633+292659647
3561+295301224+297027201+297128543+295223418+294007276+294585657+293850340
3547+292128056+293506796+297313522+299828232+300009955+299134308+298806177
3534+299046581+298642065+297423612+296326308+295892348+296216578+297253364
3520+298397552+299073128+299340533+298872489+297452716+296477697+296750725
3507+296532609+295191380+295062468+296691458+297676664+297385173+297306175
3493+297734531+297307557+295910772+295121395+295080778+294922138+295275055
3480+296392431+296853071+296198987+295453635+295088542+294742726+294554357
3466+294762077+294526143+293663694+293467694+294266047+294857247+294558182
3453+294166863+293816465+292670667+291686256+291970078+292559346+292919951
3439+293331701+293373207+292895657+292563190+292538480+292486313+292312126
3426+291948567+291349642+290773326+290977259+292187891+293168591+293103833
3412+292490592+291647950+290842004+290652404+291038174+291507866+291747095
3399+291619831+291507165+291841090+292217525+292212053+292073086+292105144
3385+292375636+292628404+292367853+291675898+291296907+291497357+291783470
3372+291847415+291767375+291669044+292039022+293154636+294177221+294353358
3358+294130981+294378655+295502715+296999953+297747577+297333934+296799276
3345+297147251+297862761+298330616+298794930+299199219+299186361+298813146
3331+298605254+298821212+298932931+298753973+298672039+298885744+299505630
3318+299959549+299511709+298843404+298721782+298967279+299436971+299837548
3304+299617292+298828710+298515463+299320670+300193817+300039191+299205770
3291+298799077+299217775+299697465+299668967+299372704+299061540+298497342
3277+297603536+297081375+297418007+298022632+298031589+297576894+297459097
3264+297727146+297666894+296826713+295632952+295080911+295672963+296712325
3250+296702194+295387455+294410277+294550645+295010793+295363105+295604455
3237+295727516+295787105+295619698+295268731+295332429+296123681+296876343
3223+296783787+296246231+295773320+295185264+294758745+294873512+295051069
3210+294994433+294777055+294172260+293272263+292595437+292333012+292145760
3196+291653725+290851434+289976677+289307407+288676727+287552857+286066091
3183+284692596+283532767+282749639+282344706+281964484+281418729+280596802
3169+279518055+278393314+277572958+277426607+277517894+277266395+277056989
3156+276966042+276317639+275043479+273847332+273261321+273064601+272702747
3142+271989357+270977395+269678391+268262955+267039200+266161357+265611702
3129+265328732+264974413+264074984+262877190+261781439+260462478+258846648
3115+257300765+256052301+255242227+254523441+253281509+251320563+248904696
3102+246631847+244816230+243286670+242048790+241143112+240359491+239639077
3088+238702553+237064209+235209813+234097663+233824388+233821472+233492319
3075+232624133+231571081+230902606+230729385+230506838+229949665+229288594
3061+228466837+227658336+227461805+227651197+227576024+227173685+226551583
3047+225830562+225214122+224685049+224137723+223521301+222746031+221794737
3034+220664808+219428329+218427217+217830431+217355040+216684066+215825385
3020+214845064+213688360+212668198+212200041+212067190+211635899+210660047
3007+209653879+208956925+208161583+207183951+206523240+206105810+205463560
2993+204932158+205026930+205421505+205612865+205589177+205540513+205462291
2980+205214844+204830627+204627716+204804288+204972926+204674202+204065108
2966+203473965+202885341+202305408+201745376+201035262+200408880+200191427
2953+200001562+199455580+198870117+198616346+198536495+198365017+198173524
2939+197993505+197586357+196920912+196246169+195686516+195142295+194521026
2926+193859955+193099908+192146021+191074961+190047264+189201440+188520051
2912+187896529+187354145+187160606+187404513+187525245+187090565+186402984
2899+185883644+185600560+185401474+185290854+185401607+185556933+185456330
2885+185135811+184853769+184850001+185027501+185031269+184949070+184991258
2872+184949847+184833489+184786283+184449594+183779282+183450375+183537193
2858+183418393+183012078+182496790+181642067+180469457+179465448+178894244
2845+178669860+178684573+178773436+178640586+178385981+178410218+178644922
2831+178817385+178824505+178634886+178337639+178052340+177860127+177763727
2818+177608779+177178795+176559590+176109497+175918136+175883465+176005788
2804+176240227+176463058+176598616+176585001+176498353+176606285+176885165
2791+176974729+176684488+176279612+176186090+176277624+176146175+175897004
2777+175753058+175522614+175158279+174963529+174925033+174725606+174330785
2764+174057169+174066788+174116399+173968135+173730780+173743126+174060843
2750+174297156+174196931+173856208+173452544+173150677+173017372+172883404
2737+172602574+172311140+172208435+172321706+172414073+172291940+172106127
2723+171918175+171668985+171570919+171657643+171615891+171501502+171575710
2710+171677468+171613808+171413150+171104428+170888792+170947605+171065080
2696+171045539+171016018+171030012+170958341+170859101+170909072+170959648
2683+170745148+170372746+170076806+169905801+169840057+169720651+169353437
2669+168879277+168522724+168246003+168007152+167861199+167703164+167353769
2656+166919240+166651816+166498251+166245842+165927747+165729986+165661895
2642+165529177+165227612+164883500+164620090+164363308+164071363+163810585
2629+163473914+163022268+162596374+162202405+161920988+161824683+161650629
2615+161218789+160766329+160548951+160445242+160222108+159845673+159455661
2602+159238492+159147375+159029029+158937116+158894891+158782386+158611637
2588+158480197+158378334+158325542+158355498+158306342+158063458+157809232
2575+157763863+157850464+157738698+157422865+157324269+157458653+157402056
2561+157087454+156772777+156504624+156187191+155929756+155796053+155629867
2548+155443666+155368625+155369667+155335413+155192186+154928615+154628717
2534+154440395+154403992+154342632+154066564+153710750+153589601+153648774
2521+153582860+153440391+153448940+153496809+153387542+153184650+153042275
2507+152993166+152909339+152757298+152706087+152808594+152925624+152976474
2494+153025356+153137264+153325813+153572380+153790657+153963016+154224513
2480+154578453+154769000+154701826+154615954+154697651+154883293+154988082
2467+154958921+154953903+155080884+155253584+155322537+155295847+155312776
2453+155345117+155337060+155422989+155615410+155772195+155872836+155989790
2440+156186813+156458336+156652736+156623519+156463704+156365884+156402411
2426+156520454+156623055+156696098+156759162+156807097+156821062+156777217
2413+156789090+156967309+157169132+157266772+157381662+157557856+157669754
2399+157767101+157998661+158276329+158391153+158373600+158313348+157992100
2386+157056940+155191608+152128369+147782137+142408993+136562417+130643244
2372+124661120+118701292+113171865+108205083+103823763+100799730+100003583
2359+101603791+105591805+111901085+120335290+128797189+132748912+129973964
2345+123530489+119029924+117841807+118251606+119260339+120278844+120937709
2332+121550968+123124165+125689215+128091477+129944595+132106161+135147643
2318+138546379+141433614+143557261+145493827+147675275+149894641+151958415
2305+153808267+155300704+156447846+157469219+158428437+159229403+159901778
2291+160536624+161156454+161736084+162218481+162521996+162575621+162460418
2278+162373543+162388653+162457370+162542636+162588137+162530063+162466932
2264+162548998+162699951+162794892+162895894+163083505+163276968+163372856
2251+163450775+163586466+163653459+163610419+163632062+163765424+163860839
2237+163890852+163920164+163920164+163925617+163991285+164041805+164083860
2224+164191242+164290237+164261833+164105143+163951010+163926962+164031636
2210+164205539+164392431+164541263+164606930+164552662+164438273+164414869
2197+164548477+164742962+164861365+164864508+164857881+164965396+165107430
2183+165173836+165225283+165266392+165281465+165324164+165346829+165341925
2170+165435485+165619858+165715084+165669355+165603972+165603763+165679164
2156+165770489+165803607+165772837+165712793+165716523+165848749+166020739
2143+166119657+166143326+166144519+166177183+166287689+166450628+166568633
2129+166604005+166607129+166590049+166563975+166620497+166747989+166817103
2116+166812104+166833747+166947303+167089659+167177178+167273578+167430817
2102+167588681+167754782+167978352+168256929+168565802+168901981+169387483
2089+170158550+171157484+172260961+173407592+174489747+175431952+176302751
2075+177149256+177967055+178718524+179208287+179342084+179511139+180100180
2062+180878480+181608665+182389313+183205995+183995467+184810577+185765828
2048+186853399+187929496+188934357+189889135+190978921+192275179+193459150
2035+194290885+194782580+194983503+194935085+194674251+194201075+193565491
2021+192736387+191564724+190546551+190379636+190560734+190324231+189876069
2008+189607395+189506262+189418155+189253853+189115133+189134901+188925628
1994+187930991+187034005+187610056+189114697+190479350+191500401+192277754
1981+193029090+193860807+194776502+195739194+196766911+197650983+197974873
1967+198578267+200624743+203233392+205232662+206826092+208242702+209458314
1954+210633272+211739873+212558411+212890140+212372542+211107565+211097056
1940+213373673+215598577+216426620+216624665+216809115+217150292+217563291
1927+217431842+216251241+215330169+215313638+215158823+216237608+218944777
1913+220398823+219913017+219379097+219918206+220749259+220941131+220650758
1900+220116459+219000939+217627633+216758709+215310135+213341464+213575069
1886+215371334+216256903+216384641+216365308+216255899+216137553+215785962
1873+213720171+208764485+204791601+207054376+212289946+215321383+216072794
1859+216254479+216668046+217182974+217494745+217279582+215928923+212731461
1846+208196046+207281563+212134960+216328460+217310428+217553918+217047302
1832+213229082+208413026+207959183+209890135+211977967+215246929+217624357
1819+218009559+217933761+217472723+215517042+213608945+214288781+216214488
1805+216450062+213979850+210882405+210714278+212527641+211537795+207093364
1792+206356930+212645514+217953814+218690115+217855388+217192404+217350514
1778+218369218+216823733+210606517+205135032+207756916+214820012+220555134
1765+222145022+220053044+219525278+221068244+222168483+223141420+220840566
1751+214632173+211908190+215624878+220222553+222038568+221537141+221896250
1738+222384062+217783396+213682944+220147323+229360795+236130828+239845775
1724+240495485+238859754+232125394+221308155+219128753+229536250+240575506
1711+246143712+245283706+240732688+238017131+234933186+227871870+225969226
1697+232642311+244214521+257101092+263202821+263176255+258959162+249427028
1684+247209072+261159261+274004382+278205305+277627700+279059346+280769909
1670+281827241+290569297+302012710+306521540+309400699+317289187+323869053
1657+320884008+307814086+304535694+320746045+328312689+330823934+344469207
1643+360498251+368124693+366944528+359480551+358714162+373047734+385343030
1630+388496903+388226430+388204806+389101622+394343308+399426088+398601301
1616+400289994+409836065+416931938+418446199+418638696+419923195+421143881
1603+421894744+423060480+424449578+425446600+426830737+429518497+433015668
1589+436900787+441198696+445849371+451232050+456911104+459424583+457735436
1576+461532770+473046489+479301974+481933685+491076850+503534496+512369317
1562+512511257+502203038+504622371+532047925+556791172+574759311+589342641
1549+602424738+611146325+613093827+611224793+613350098+634806205+662280158
1535+677711261+689517608+706162165+719766158+727501403+734010621+739128091
1522+745650640+759032635+774987112+792271684+809781663+821028205+822260063
1508+817364743+828738076+861682037+885628976+894785888+897883409+906342893
1495+919836910+926169196+923504689+923311397+934566573+949674942+959688413
1481+963864341+964369461+961681625+956548022+953244105+958720892+969059218
1468+972434484+968618176+968575458+971356532+965059011+951301565+950342906
1454+962174929+969089969+968654608+964873065+962545380+961042897+957449421
1441+951487813+941784125+931610536+929933318+932076422+930625595+927567383
1427+923938384+919052759+915627277+913534163+912775537+919559166+931947283
1414+942138064+948061195+951292552+952576066+952452835+954321149+957621657
1400+957954692+957582423+959659859+963394517+969593044+975210786+975771272
1387+974010284+975577147+979695890+983092514+985160634+986253507+986499364
1373+988164690+992152476+996086486+998233074+996371350+990854571+987346228
1360+987876418+988892414+988698289+988881053+989547880+987781893+984220531
1346+982037739+980326892+975785284+969039677+964979255+965547240+967583321
1333+968007927+967472663+968300062+970313951+971488246+971321312+972158785
1319+975027719+978121680+981064462+984032011+986426500+988684125+990971668
1306+993405467+996825268+1000267110+1001892066+1002663872+1005219615+1009774552
1292+1013335914+1014343806+1015631864+1019570873+1024991232+1030874448
1281+1037071384+1042334580+1045766348+1047495449+1048390562+1050020744
1269+1052802651+1055739222+1057561864+1057742583+1057278515+1057601173
1258+1059053364+1060924404+1062998659+1065150776+1067044009+1068708275
1246+1069703442+1070400338+1071472155+1072390747+1072798236+1073009858
1234+1073565573+1073741823+1072536625+1071034673+1070466688+1069931348
1223+1068063185+1065534936+1063911798+1063776296+1063927779+1063734184
1211+1064263238+1064017533+1061135496+1057896111+1056904504+1056999711
1200+1055676129+1053411006+1052475827+1053392071+1054131004+1052203461
1188+1047329045+1042303905+1039652197+1038405039+1037105392+1035386062
1177+1033669761+1032775557+1032019355+1031163628+1030762275+1030135666
1165+1028327566+1025450074+1022318166+1019635480+1018566996+1019237535
1153+1020016384+1020283448+1019232687+1015213544+1010286792+1008240183
1142+1008257679+1007998568+1008245182+1009088032+1009331920+1009633598
1130+1009654351+1008728185+1008886787+1010241195+1010976114+1011531148
1119+1011978704+1011399433+1010809483+1010951726+1011128582+1012067094
1107+1013903066+1014944132+1015098493+1015161056+1014521646+1013035675
1096+1012937439+1015861891+1020864385+1026509621+1031069103+1032266196
1084+1030544821+1029737569+1032049803+1037678755+1045290162+1049568341
1072+1048802822+1048848267+1051962149+1054477294+1055607205+1056807631
1061+1056656451+1054064882+1051642747+1053346475+1059045184+1063974815
1049+1063353205+1057362209+1052588303+1052982688+1054767005+1053783730
1038+1051870956+1052130976+1052020924+1049419054+1047026761+1046495057
1026+1046166717+1043589691+1039841096+1037660046+1037461528+1039222592
1015+1042219907+1044447311+1043789497+1040850427+1038619236+1037082291
1003+1036145597+1037616874+1040148607+1042368967+1044542518+1045380446
991+1044703317+1044675369+1046628892+1048441384+1047877944+1046568374
980+1046837559+1049348842+1052827267+1055734223+1058700712+1062608515
968+1066334993+1067291532+1065345734+1063236790+1062761891+1064300730
957+1066261221+1066593196+1066628264+1068070759+1068116810+1065343992
945+1064332238+1066716881+1068712819+1067935561+1064978691+1062207010
934+1060509190+1057569892+1054713986+1056891628+1061863219+1063485904
922+1062185802+1061002948+1061661217+1063310411+1061769754+1057698198
910+1056677128+1058895519+1059947643+1059513493+1061299400+1065567657
899+1067973962+1066309241+1061681288+1056238737+1053467055+1052972842
887+1050521244+1046951096+1045794373+1044497755+1039193053+1033600154
876+1031534231+1030541716+1028525555+1025485445+1022489796+1021039726
864+1019958063+1018494284+1017307871+1016377311+1016859406+1019176109
853+1021056995+1020967772+1019728718+1018225932+1016531218+1014600342
841+1013339020+1014495288+1016781998+1017426557+1016767228+1015902488
829+1014422501+1012272656+1012332416+1016111005+1019606471+1019084689
818+1014980488+1010324511+1007386880+1006344223+1007309093+1009659880
806+1011339976+1010802742+1008078096+1004939599+1003352740+1003048790
795+1002924801+1002271682+999978762+996632203+992999947+987879903+982966102
781+981132629+979183726+974083299+969961829+969355746+968959240+966506808
768+963609698+961442660+959470581+958000213+956671026+953803835+947721798
754+939621025+934384717+933041519+932308418+930232951+927146942+925679907
741+926379833+925165698+919537807+912979736+909749137+908742306+907407893
727+905382871+901474765+895343496+889567152+886862425+886536283+884678346
714+880879913+878933358+880062057+882053527+883685830+886128946+888872149
700+889415972+887493427+884774007+883016200+882154187+880171958+877625380
687+877141013+879289646+883711809+887567730+887023982+885754101+889130200
673+893784889+890881417+880472424+881454563+895700238+905122093+908842512
660+908742230+905857163+902486064+899349990+899406872+902562033+904322945
646+906258669+909933037+908546439+901575198+898550615+899604709+898887968
633+898492522+900519968+903458660+902538704+893821169+886128567+885897783
619+889752567+898384893+909456320+912666621+905320763+896035015+893052772
606+896121360+895311760+880713736+867724082
##END=
