##TITLE=Sample description
##JCAMP-DX=4.24
##DATA TYPE=INFRARED SPECTRUM
##DATE=12/9/2023
##SAMPLING PROCEDURE=Instrument type and / or accessory
##ORIGIN=Default
##XUNITS=1/CM
##YUNITS=ABSORBANCE
##RESOLUTION=4
##FIRSTX=4397.6552
##LASTX=599.8556
##DELTAX=-1.9287962
##MAXY=1.8392826
##MINY=0.21452424
##XFACTOR=1
##YFACTOR=1.7129654e-009
##NPOINTS=1970
##FIRSTY=0.2333193
##XYDATA=(X++(Y..Y))
4398+136207825+136665708+136792767+136192881+134984070+134348622+134432733
4384+134832402+135515016+136216751+136591601+136199292+135242023+134788733
4371+135452766+136552212+136846501+136010636+134869547+134435404+134976371
4357+136043770+136837636+136730977+135850504+135142262+135515999+136324558
4344+136508186+136343035+136297808+136095173+135708796+135680507+135432428
4330+134362593+133967561+135266424+136821352+136952351+135886561+135471408
4317+136947862+138668472+138263218+136511866+135368620+134953728+134746943
4303+134997815+135871912+136684646+136653999+136072355+136085221+136633226
4290+136955856+137215253+137440428+137660914+138023786+137912334+137141476
4276+136427215+135936485+135387984+135136216+135461535+135789410+135550221
4263+135109275+135277811+136214367+137344138+137899215+137518632+136941042
4249+137417793+138523146+138530662+137534125+136818838+136413340+136025267
4236+135925455+136211079+136653399+136868353+136691379+136414480+136463403
4222+136960415+137543851+138072605+138495639+138374174+138175714+138891550
4209+140049593+140407593+139609169+138003891+136477278+136113197+136730742
4195+137418706+138097875+138760221+138851587+138265741+137604761+137549122
4182+138151783+138667689+138811797+139001367+139322762+139384864+138745232
4168+138234851+138858328+139486043+139068837+138198254+137487229+137447465
4155+138372661+139346710+139463147+139081885+138705895+138598184+138830474
4141+138948659+138674509+138097614+137696910+138047960+138683017+138736898
4128+138254771+137935325+138033163+138055468+137959439+138153558+138311820
4114+138057729+137861836+137959100+137982587+137909576+137866185+138035695
4101+138692055+139516228+139935592+139508573+138555036+138104443+137960561
4087+137566416+137482192+137726539+137836121+138050413+138295570+138364388
4074+138591868+138612676+138278937+138458747+138771042+138296248+137703287
4060+137726853+137987954+138398793+139106469+139541847+139473499+139139586
4047+138592938+138203395+138324860+138632049+138493786+137881017+137469665
4033+137706819+138284305+138629152+138568120+138286340+138160987+138208893
4020+138065028+137975115+138364023+138982803+139249281+138976453+138676257
4006+138752357+138698397+138350487+138511924+138954723+138995512+138950016
3993+138875553+138796826+139053926+139497386+139710156+139482667+139120935
3979+139150660+139599818+139895968+139794676+139572085+139249594+138866114
3966+138520588+138411215+138914707+139645427+139901474+139636301+139208326
3952+138944423+138955479+139086330+138670168+137899894+138173992+139182133
3939+139487461+138828256+137663854+137186016+138158717+139157750+138812345
3925+138072500+137942041+137348035+136403015+137231529+139670984+140943341
3912+140247661+138711167+136124671+132699145+131342189+132951356+135646085
3898+138233415+138555323+135990097+134587220+136591810+137000856+135531518
3885+135840378+135609427+135486005+137711507+137522947+134604287+132427891
3871+131896040+133877708+135000877+133929163+135236969+138244837+138355680
3858+134095010+126802680+125235591+133625540+139705720+140430524+137719858
3844+134333556+132025047+130303941+130753560+133772624+135747724+136553221
3831+137464020+137787894+137627362+135847615+131554342+130618664+133606446
3817+135547690+139097604+142503263+141577067+137384406+134635743+134656377
3804+133009883+132921362+136982206+139120152+140276803+142315407+143261436
3790+143222726+142895502+142387896+142199161+141528048+140650705+142083394
3777+144515804+144647759+142238507+140200365+141168185+143114570+144529783
3763+144716804+143080923+142963137+145092020+144784630+140704292+138847202
3750+144747050+150156403+153306396+161160380+168840835+170781835+169677631
3736+169415424+172484604+178952656+184866283+186557690+185784432+185839149
3723+186913412+188476160+189963488+190575726+190131536+191408747+200104972
3709+214054498+226776501+236543839+245504376+257227921+269314981+277002291
3696+279827549+278157942+272382090+266679014+265588694+265355403+261519925
3682+254507539+246352812+237500821+229743432+227324384+225429767+221889778
3669+222568130+225248340+225987515+225842954+225192492+223266680+221537450
3655+221186443+218526572+213262902+213414057+221525080+228885758+231964071
3642+232678733+233615098+235222194+236789361+237345404+235543954+233322183
3628+236147389+240070989+239614515+235383509+230460268+228802526+228455695
3615+226657863+226188080+228255304+231381514+234999777+237742550+238675001
3601+238831479+238959303+238799797+238961060+239488240+238503734+235606465
3588+234070249+235262053+235933828+235336847+234722468+234298112+233981258
3574+234055930+233943626+232298828+229842183+230006352+232471608+234000413
3561+234265090+234308185+234359910+234120095+233725036+233307656+232541775
3547+232173144+232982434+234009286+234366625+234203797+234050415+234097512
3534+233942721+233147820+232040310+231640467+232077524+232403721+232320210
3520+232308640+232387976+232285136+231853193+231013631+230371868+230384290
3507+230288270+229957776+230259459+230816493+230830134+230739733+230963699
3493+231172511+230984315+230588300+230392293+230099101+229627874+229684644
3480+230139377+230101171+229497231+228952897+228934107+229221298+229148156
3466+228652937+228364842+228651841+228990390+228848265+228727401+228881304
3453+228814130+228412026+228069283+228270805+228653998+228637783+228811468
3439+229322189+229283252+228766285+228695754+229165972+229598453+229836529
3426+229837051+229463984+229211102+229477711+229804986+229935611+230042801
3412+230121805+230072899+230015364+230236563+230571911+230743074+230941795
3399+231203096+231471914+231832159+232195275+232459151+232566167+232413916
3385+232056821+231971570+232473800+233210383+233839742+234193340+234237131
3372+234276747+234337501+234149689+234104193+234970913+236313489+236871202
3358+236738107+237035283+237938870+238713085+239043997+239243831+239613332
3345+240239071+240978438+241713681+242253787+242308818+242228212+242293646
3331+242214015+242153957+242437250+243006794+243753224+244453254+244946924
3318+245333162+245468728+245075722+244396118+243881552+243745586+244149709
3304+244823902+244950456+244550944+244801459+246225527+247852561+248725354
3291+249230368+250074750+251159660+252087778+252826327+253383744+253595548
3277+253828509+254616051+255961653+257531378+258391383+257819821+256839317
3264+256635360+256721358+256845633+257317765+257487761+257186548+257134841
3250+257275644+256973752+256265006+255663694+255254073+255090670+255225923
3237+255326136+255213936+254725850+253813599+253127505+253019428+253031850
3223+252860357+252484872+251927628+251351352+251125803+251339608+251316660
3210+250563479+249504458+248801157+248341848+247497675+246300391+245429686
3196+245216421+245100288+244649330+244210602+243959357+243533225+242470933
3183+240757726+238931918+237732512+237451672+237700638+237881770+237538784
3169+236952207+236507095+236013285+235550844+235233363+234866820+234501026
3156+234260775+234100417+234131629+234143373+233327455+231959008+231643842
3142+232498836+232645363+231263885+229441366+228660540+229114195+229125191
3129+227843665+226730187+227026807+227414698+226327265+224784263+224241321
3115+224483659+223954914+222028250+220260465+220073540+220536573+219225314
3102+216270857+214326882+214367350+214507909+212802288+210540815+210011165
3088+211236669+211860634+210138484+208022181+207583870+207959252+207378712
3075+205902780+205158560+205755053+206970014+207292435+206144666+204905539
3061+204721015+205240783+205171156+204268943+203473381+203286578+203450711
3047+203218534+202604329+202178615+201986349+201924534+201710381+201055517
3034+200248037+199773904+199762021+199886765+199680615+199205404+199826724
3020+203955378+210863636+214605199+212036841+206956861+203033575+200570841
3007+198747260+197324532+196445876+195902551+195319767+194568935+193872873
2993+193709052+194387821+195355503+195812881+195887067+196078254+196645536
2980+197202414+196787435+195742019+195354181+195757782+196373291+196482829
2966+195632915+194416041+193922405+194664955+195317941+194407359+193003908
2953+192512047+193041749+193915724+193933766+193168059+192578994+192563719
2939+193268063+193651569+192581395+191031452+190421197+191096538+192046074
2926+191832773+190739669+189770717+189302534+189347456+189178556+188349258
2912+187521075+187397165+187947972+188322500+188061877+187774460+187717360
2899+187715011+187838085+187818999+187471194+187178906+187207144+187480050
2885+187640443+187490680+187402524+187699979+188211361+188513479+188450776
2872+188272394+188162594+188191597+188341934+188271680+187850490+187537342
2858+187532697+187513559+187263566+186787136+186224204+185675051+185165217
2845+184855688+184835367+185047449+185342573+185541572+185635418+185778882
2831+186165259+186678485+186908871+186754411+186528688+186456086+186396306
2818+186213278+186008885+185872049+185876573+186101669+186337726+186371009
2804+186464297+186798723+187124816+187296831+187379611+187364927+187258120
2791+187182786+187094021+186963292+187018113+187206274+187246376+187124903
2777+186998053+186967728+187049186+187134211+187010702+186708410+186500833
2764+186488028+186554280+186605326+186713020+186881399+186959116+186993199
2750+187188823+187482781+187582212+187495517+187476031+187521127+187525233
2737+187514115+187489323+187513124+187632927+187622871+187474448+187540891
2723+187758872+187748154+187617147+187714541+187908043+187968745+187984247
2710+188007369+188071220+188176687+188252490+188344387+188454099+188562315
2696+188703222+188852220+188930737+188856256+188795276+188966786+189151415
2683+189071140+188882336+188876107+188972423+188842686+188486094+188205811
2669+188156783+188221643+188201949+188051334+187861520+187783020+187821940
2656+187736567+187487183+187334585+187400732+187549451+187592842+187452613
2642+187243575+187154062+187082469+186808484+186435921+186180430+186076320
2629+186049353+186022125+185909838+185692866+185486229+185364286+185256940
2615+185035462+184685534+184392290+184304255+184341226+184330474+184236698
2602+184133354+183979694+183745794+183587732+183523429+183397676+183271226
2588+183193405+182997572+182735609+182636475+182670644+182636475+182486329
2575+182301979+182097308+181883050+181725998+181624567+181492237+181310688
2561+181192868+181140117+181005056+180755254+180486576+180327331+180302782
2548+180271535+180119354+179901774+179715649+179563242+179496729+179550263
2534+179610199+179640855+179602857+179414070+179200839+179081210+178963965
2521+178855905+178911109+179037558+178977291+178747428+178551717+178501471
2507+178599457+178776987+178907351+178889483+178755240+178643161+178713589
2494+178972942+179223840+179403649+179594158+179739241+179830894+179995341
2480+180197106+180314387+180372375+180404665+180383509+180300955+180139623
2467+179993740+180069491+180376359+180690359+180779959+180602412+180407884
2453+180445325+180635764+180808736+180952531+181157080+181523728+181964943
2440+182223096+182270889+182330407+182447688+182473228+182442869+182513157
2426+182674681+182893288+183134965+183293531+183384906+183519254+183753536
2413+183995665+184146472+184354188+184611958+184671529+184629547+184748167
2399+185050964+185672615+187196009+190746193+198134952+211374531+231585854
2386+258304689+289490534+322552676+356125905+390588906+427144584+466690054
2372+508612973+550953550+591092642+626366569+653197342+668145013+672660374
2359+668116133+649490715+616933604+578836177+543740616+524178520+529624086
2345+554154624+569791155+563127931+549278636+538128863+533143615+535391587
2332+540377183+540554121+535200486+529544507+525138894+518262022+505998771
2318+488603606+470558937+461690366+464800518+467315898+456337983+432708388
2305+406520752+387278189+375226743+364655456+352993831+339704581+323817622
2291+306954456+291898743+278874012+267163586+257281594+249648409+243726727
2278+238803120+234473102+230547380+227061273+224110644+221556170+219286677
2264+217370329+215724383+214088807+212395346+210807771+209401692+208140975
2251+207042981+206085773+205121537+204154707+203387017+202849955+202395378
2237+201965524+201560235+201128397+200757122+200583837+200528998+200476004
2224+200378383+200268201+200253465+200286643+200285373+200342560+200481032
2210+200594711+200671645+200783202+200930529+201059536+201207071+201418649
2197+201654637+201876341+202011907+202080681+202262178+202542479+202722775
2183+202846980+203053791+203202632+203193602+203193463+203264830+203343748
2170+203480914+203668988+203800343+203880827+203938293+203930464+203837018
2156+203723966+203680557+203701139+203690074+203598404+203525488+203568531
2143+203782493+204101765+204300416+204417401+204651510+204980316+205297431
2129+205567102+205825602+206108843+206443896+206823852+207182270+207471287
2116+207695775+207897367+208112598+208310919+208469712+208717269+209079445
2102+209432365+209778935+210163033+210664585+211312194+211999001+212710095
2089+213498402+214348560+215240438+216244517+217470734+218968379+220579842
2075+222148714+223828621+225739488+227828128+230055553+232469503+235130523
2062+238015805+241162701+244481908+247816286+251208148+254664939+258144174
2048+261558392+264709777+267543160+270223840+272764361+275035472+277066630
2035+278780063+280004279+280773118+281236360+281493173+281520957+281242797
2021+280553450+279371702+277863131+276426780+275157068+273713966+271997888
2008+270260533+268594439+266918743+265247883+263708047+262382348+261092541
1994+259585362+258158858+257309570+256856333+256397284+255846269+255317124
1981+254914654+254564604+254227029+253961308+253799089+253669873+253449474
1967+253391121+253795017+254382951+254946997+255571049+256155555+256704465
1954+257389445+258164321+258906976+259573984+260022872+260319422+261199191
1940+262853836+264374673+265418279+266260590+267054222+267905092+268768907
1927+269321227+269372795+269397031+269639125+269829843+270461063+271596601
1913+272229404+272236833+272421079+273090001+273827471+274342646+274715661
1900+275048330+275214934+275308135+275591724+275570498+275302672+275936450
1886+277218724+278132489+278711340+279278744+279789291+280075333+280098733
1873+279474786+277808293+276478470+277394949+279332817+280361497+280383227
1859+280060910+279813509+279598016+279233474+278622714+277619262+275935510
1846+273709860+272797000+273978765+274900463+274680499+274162941+273335958
1832+271301269+268909989+268253628+268598424+269007000+269813610+270322017
1819+270207642+269846945+269161617+267929154+266821435+266805725+267323266
1805+267277456+266356280+265096136+264725488+265196523+264731751+263038030
1792+263024303+265708706+267845765+268371866+268309459+268176972+268506075
1778+269216525+268703351+266270473+264403849+266291263+270015602+272630691
1765+273173320+272584569+273044209+274262823+275182556+275936032+275419239
1751+273554599+272993285+274863162+277214148+278464827+278646411+279280588
1738+280062702+278906860+278391720+281952030+285997520+288951454+290785265
1724+291630134+291603236+289431642+285850663+286070575+291076265+295952845
1711+298650140+298787133+297476987+297102650+296669020+294783171+294953116
1697+298252176+303732434+309612536+312408269+312855609+311632419+308441714
1684+309042018+316099621+321845896+323921384+324325089+325611747+326678668
1670+327698474+332470595+338116831+340694845+342959763+347442833+351106835
1657+350714404+346567048+347465520+355741546+359585932+362377351+370354896
1643+378382895+382673090+383521281+381998705+384074540+392491909+399026979
1630+401665781+403248729+404877851+406783742+410507733+413641616+414077786
1616+416284315+422099731+426659491+429119963+431596303+435251397+439486022
1603+443878030+448487827+453110081+457687275+462619250+468130268+473874281
1589+479610605+485558628+492118820+499461579+506938198+512352552+515571477
1576+522063434+531604197+537863646+543183390+551860582+561547767+569666167
1562+573791741+573708404+581372679+599530993+615100402+627853340+639376023
1549+650339950+659076086+664734571+668636683+675497028+692364821+709158430
1535+719501801+729566734+742001286+751969903+758964491+765085556+770180064
1522+777007421+787950122+799647900+811630729+823185146+831288967+835144313
1508+837978253+850040834+868730138+879405813+882530231+884325644+891434224
1495+901787757+908215863+911039851+915700729+924164759+931425538+935401836
1481+938775116+942620581+945197377+946084192+947208526+951401465+957539580
1468+960267530+958769625+958438504+959910800+957702704+951509611+951011748
1454+956427007+958912776+958121372+956631052+955471086+952088063+946741770
1441+941828828+934998339+926996402+925292503+925954883+922289593+918244399
1427+917774233+919653226+922528921+923835031+923203619+925812010+933677546
1414+942176373+947574303+949714338+949486631+948224017+949179520+953827385
1400+960326893+965234197+965752660+966288452+970801446+974480515+973980076
1387+971507112+971142240+973521532+976503843+979191082+980944252+982265602
1373+984509468+986084274+986612062+987858879+989039374+989368058+989244741
1360+988582082+989800714+993184503+994286428+992230044+989742535+986963364
1346+983196470+980087083+977820948+974104716+970049779+968055680+966636135
1333+964582882+963754246+965055901+966423530+967314869+968886821+970391825
1319+971463547+973505944+975999090+977558097+979529022+982938700+986128465
1306+987682740+988001125+988769773+991661753+995918995+997937034+996397025
1292+995211658+997567499+1002693254+1008625375+1014018852+1019234102+1025487601
1279+1031613329+1034694530+1035194621+1036469552+1039982087+1044503015
1267+1046889754+1046280751+1047176405+1051402540+1054306141+1053977248
1256+1052965097+1052443780+1053810574+1057965585+1061246447+1061218888
1244+1061518136+1063925196+1065398327+1065626729+1066207268+1065534797
1233+1063936748+1064375597+1066492527+1067566546+1065600284+1061145747
1221+1057294715+1057099161+1060425744+1062747554+1062120249+1061496353
1209+1061644237+1060924443+1058937442+1057360062+1056607978+1055320519
1198+1054841933+1056152009+1057268688+1057593614+1056990457+1053045615
1186+1046960390+1044745057+1047060464+1047925497+1044920291+1042704957
1175+1044560985+1047078349+1046570812+1044575113+1043926164+1044290062
1163+1043006153+1039364037+1035988043+1034431610+1033741324+1033888024
1151+1034104596+1031462035+1026817998+1025050005+1026338924+1025485444
1140+1021681735+1019886391+1021792039+1023306995+1021988846+1019369251
1128+1016554797+1014572389+1013506234+1011896285+1009636900+1007445645
1117+1005916284+1006639557+1011148515+1017016055+1019155950+1016423198
1105+1013083183+1011392506+1008569840+1007042149+1011868726+1019432093
1094+1023713205+1024254425+1024132012+1024027136+1022094278+1020362055
1082+1021512973+1025199002+1031408449+1038729842+1043686836+1046482082
1070+1048853441+1047849085+1043063497+1040689563+1041845213+1042652067
1059+1044542752+1047966139+1046362244+1039283171+1036092849+1040854079
1047+1047407243+1049879441+1050128582+1050053005+1047675313+1044231396
1036+1041094103+1038080824+1039019973+1042924104+1040670425+1032420461
1024+1028965201+1032255666+1035460394+1036146296+1034685553+1031112820
1013+1027691800+1027345299+1029927384+1031740891+1031187423+1030922207
1001+1032658397+1034064093+1035238603+1039364803+1042625761+1040362340
989+1035991592+1034490137+1037740239+1042740937+1044786534+1044581863
978+1045717471+1047944009+1049138213+1050151130+1053660672+1058782252
966+1059371977+1054630859+1051238719+1052198606+1056625376+1061118536
955+1061840974+1061241367+1062431326+1064191317+1065967383+1066092093
943+1063112148+1060521991+1059470242+1059062291+1060551498+1062113011
932+1061159665+1058871886+1058797353+1062928216+1068084035+1069178235
920+1064999284+1060259210+1060085786+1062952573+1063847670+1062827724
908+1062675665+1062795225+1062876509+1063112635+1063634509+1065966966
897+1069257083+1072214201+1073741823+1071755379+1067509132+1062907686
885+1058714538+1058048261+1061823646+1063759288+1059249495+1053248894
874+1050530408+1048775707+1046251801+1043655380+1040198728+1038342283
862+1040232967+1041928237+1041235376+1040673765+1040479812+1037794312
851+1034469051+1034239466+1034840535+1033800755+1033141855+1034383870
839+1034291381+1031127296+1029517555+1030177778+1028615569+1026519795
827+1028063145+1028432054+1024236052+1021822520+1022871555+1023657392
816+1023499835+1023311727+1022766401+1019259573+1014805663+1017043266
804+1025684478+1031567537+1028763104+1019628273+1009837882+997003522+982138109
791+980380694+992713571+1000404222+997735425+994272370+994043620+994897727
777+994539605+994036661+993628084+990842581+986892589+983485556+979672731
764+977830204+978999494+977840573+971503633+964821097+962358989+962733187
750+963459105+963039602+960056596+956649076+954683162+951645734+947049229
737+942947456+939502774+937771594+937713137+935341708+929632630+925122211
723+924990612+925662874+922516186+916572582+911255309+909145269+910405308
710+914262603+918825425+921975175+925973673+930310112+931002347+928890288
696+926306533+924734372+926485734+932500670+940258477+944017508+938402588
683+928538499+926605154+934057312+943954596+950635810+950843404+947804097
669+943290894+937653914+937580563+938637184+937951212+941358384+946232006
656+945147618+943102925+944809817+945245465+940451665+933213574+928321997
642+926770088+929081528+936375085+941803706+940342753+939549540+942111652
629+941051412+937458429+936882343+933987998+927024796+922587031+917958444
615+909063915+897662740+889847658+892218321+900597727+908287891+916926737
602+928340578+935842843
##END=
