##TITLE=Sample description
##JCAMP-DX=4.24
##DATA TYPE=INFRARED SPECTRUM
##DATE=12/9/2023
##SAMPLING PROCEDURE=Instrument type and / or accessory
##ORIGIN=Default
##XUNITS=1/CM
##YUNITS=ABSORBANCE
##RESOLUTION=4
##FIRSTX=4397.6552
##LASTX=599.8556
##DELTAX=-1.9287962
##MAXY=1.6925559
##MINY=0.1568484
##XFACTOR=1
##YFACTOR=1.5763155e-009
##NPOINTS=1970
##FIRSTY=0.20589636
##XYDATA=(X++(Y..Y))
4398+130618750+129662298+129448061+129776218+129960923+130178913+130412623
4384+130033098+129374326+129288142+129996325+131653095+133209312+133011486
4371+132041563+131958338+132177349+131778510+131134883+130707278+130572193
4357+131032902+131679025+131528238+131023836+131551427+132848693+132832443
4344+131083401+129937290+130544627+131376099+131786650+132645091+133084124
4330+131663683+129396759+128223603+128466889+129317390+130329114+131216407
4317+131778907+132180667+132282354+131886361+131504463+131571883+131662151
4303+131677938+131907121+131979513+131623838+130989332+130486821+130626558
4290+131333115+131923683+131883611+131852841+132121263+131764104+131125448
4276+130927754+130486424+130093050+130694554+131135989+130351651+129789027
4263+130459785+131350207+131666623+131619574+131571382+131328086+130558552
4249+130032918+130268557+130595268+131224470+132546636+133391616+132834995
4236+131441373+130255020+129848535+130318706+131364008+132114268+132288622
4222+132219727+131761873+131237355+131199381+131468919+131995347+132808876
4209+133447031+133600040+133335928+132628529+131740102+131294632+131425416
4195+131503773+131300398+131761325+132812204+133017073+132204782+131417664
4182+131514758+132169654+132292847+131741104+131014241+130346744+130285790
4168+131499066+132821458+132535557+131360180+130544571+130439092+131428224
4155+132670444+132735435+132147240+131962440+131919202+131622959+131136206
4141+130873011+131126923+131084006+130355526+129993688+130176909+129907286
4128+129132864+128855083+129603546+130754970+131264221+130695954+129839327
4114+129823777+130413436+130562560+129863348+128955239+128860613+129156979
4101+128814510+128522077+129100582+129847117+130333812+130838715+131069334
4087+130673843+129996061+129680155+129821461+129929179+129890336+129791050
4074+129341108+128515951+128191925+128965836+129682650+129323119+128761279
4060+128859309+129385197+129830640+129790341+129443070+129083765+128320412
4047+127559537+127909380+128926502+129486573+129482158+129202647+128720404
4033+128389525+128640865+128956922+128868847+128926766+129168654+128873176
4020+128136653+127797851+128050619+128362413+128444277+128445421+128611352
4006+129010238+129288955+129214142+129023274+128648569+127723048+126489156
3993+126067564+127184493+128712879+129263441+129066824+128635212+128137825
3979+127954396+127947760+127649692+127237496+127084147+126998596+126708469
3966+126461042+126719397+127647480+128333968+127978066+127360293+126803143
3952+125554995+124269753+124539102+125023482+124084783+124069866+125678368
3939+126404909+125418453+123080886+121557188+123304207+125444629+124464705
3925+122699630+122655286+122131599+120812137+121742668+125062107+127410045
3912+127518596+125983809+121562122+114735845+110797876+112237044+116567035
3898+121593828+123451714+119975116+116758396+119039547+120005244+117590113
3885+117511292+117500573+117777248+121392249+121708334+117761811+113990170
3871+111639803+113370922+115328747+114103523+115879375+120735566+121265038
3858+114331666+102430904+99503176+112743299+123309624+125742205+122515426
3844+116954549+111755245+107942247+108625720+113488510+116596794+118006090
3831+120089944+121308163+120991511+117784678+110659567+108699540+113320641
3817+116227837+121175233+126714481+126652819+121767426+117889050+116798288
3804+113128959+112179030+117887887+121318467+123746369+127459362+129059158
3790+128852049+128041781+126989219+127061592+126657961+125383524+127571297
3777+131798598+132927617+130165868+127011538+127640399+130584718+133821546
3763+135091219+132430561+130967061+133029447+131914702+125086260+120628840
3750+125924509+129729434+129621158+137082347+146405119+147170909+142305662
3736+140444004+148297197+162258614+173402433+178132434+180498371+185264540
3723+192073878+199474964+206583645+211200946+211010975+209494821+217233782
3709+234746364+252315116+265138799+275380881+288777236+304106592+315694104
3696+320459403+315950644+303293734+291998967+290853112+292934678+291040738
3682+285788714+278523697+268714626+261928393+266310215+270816309+271533502
3669+277250810+283699037+285340218+284380647+281899514+276966629+272560171
3655+271270137+266159286+254867526+249919723+258443278+268493233+273596729
3642+275245303+275895548+275636702+273998394+271540781+267217851+262307559
3628+266272252+275375984+278326825+274230790+268964549+269690041+272999706
3615+273479888+273876732+275354847+277025371+280664176+284181450+284310278
3601+282991581+282655238+282434412+282890924+285206816+285813784+282236349
3588+280802154+286076809+291740574+294065352+294355413+294184424+294247836
3574+294583631+293853525+290087652+285414766+286352557+291789390+295542162
3561+297223558+298623873+299338116+298894725+298761435+299198890+298144541
3547+296662191+297996599+301155826+303024810+302999343+302414117+302442741
3534+302741140+302004720+300079168+298243856+297330927+297740891+299518955
3520+301400304+302254189+302079891+301162292+300169143+300151125+300720243
3507+299969946+298058120+297498588+298633931+299304803+299021983+299054351
3493+299268465+298691255+297993007+298084911+298550876+298582279+298168344
3480+297903694+297636415+297287102+297352650+297496168+297259423+296972349
3466+296641092+296085189+296033235+296765117+297550977+297932866+297492519
3453+296375137+295258095+294543701+294765188+295530497+295954414+296100825
3439+296039058+295764576+295591356+295561806+295397472+295023789+294576560
3426+294157634+293806203+293682650+294129369+294646211+294466714+294212802
3412+294360026+294224959+293690213+293398375+293753643+294657441+295414412
3399+295447423+295035643+294577392+294127591+293597061+293035090+293037548
3385+293729916+294290602+294396553+294287028+294069303+294066656+294734314
3372+295851129+296499087+296217401+295519777+295187801+295380022+295771912
3358+296388655+297158539+297681809+297965158+298212075+298534786+298993794
3345+299399013+299614867+299936577+300538346+301465852+302550054+302964801
3331+302929674+303291181+303509625+303259230+302918727+302466280+302172891
3318+302372221+302502901+302046824+301362378+300844136+300616901+300637963
3304+300644183+300486599+300439957+300951279+301836794+302628571+303316799
3291+303938931+304084698+303258568+301937640+301259244+301133498+300593892
3277+300080926+300417137+301162746+301806563+301649621+300388192+299399845
3264+299324201+299074354+298165281+297338338+297415249+298185549+298542916
3250+298099809+297337714+296780696+296873224+297173796+297140729+297283358
3237+297703797+298016300+298288172+298822219+299504510+299387121+298514992
3223+298147434+298316759+298254860+297699732+297025401+296847927+296831327
3210+296505288+296398032+296718854+296818849+296148355+294797215+293335908
3196+292172451+291264702+290642439+290463925+290392705+289871855+288941324
3183+287935470+286921032+285965942+284984855+283789371+282697871+282051332
3169+281937648+282135446+281959542+281201096+280208949+279354573+278798311
3156+278194557+277529414+277059308+276380477+275305634+274411213+273990680
3142+273497055+272530073+271510001+270502238+269280020+268369832+267834121
3129+267117118+266221186+265076503+263928700+263567589+263372060+262001069
3115+259824725+258059763+256887855+255754724+254311680+252674090+251064312
3102+249655659+248611161+247411082+245524515+243793434+242902568+242171101
3088+241261273+240415971+239292142+237781149+236420367+235489249+235031811
3075+234823142+234323977+233496164+232843877+232417691+231784991+230842209
3061+229864866+229375570+229556560+229701799+229338949+228729333+228115596
3047+227641653+227455331+227305177+226784422+226104664+225374369+224193878
3034+222668025+221238159+220176096+219568353+219088813+218350256+217465535
3020+216777667+216343994+215996855+215510981+214785262+213847641+212637429
3007+211398706+210523740+209795356+208940866+208079361+207172690+206460584
2993+206481116+206934300+207236272+207325888+207216250+206938516+206569484
2980+206315440+206390460+206657814+206883272+206879699+206561033+206000120
2966+205355301+204762361+204132157+203399121+202670056+202090350+201768811
2953+201494537+200993557+200453044+200174195+200086942+199935881+199561177
2939+199053126+198675926+198400839+197987377+197518992+197073937+196347273
2926+195399537+194678412+193959027+192756679+191409321+190495616+189888175
2912+189323651+189027654+189047903+189066166+188923499+188570499+187975971
2899+187321075+186952969+187021467+187260556+187337883+187226449+187012127
2885+186740840+186610160+186779901+187054742+187142675+186952988+186559926
2872+186147711+185917829+185901608+185881170+185611018+185196289+184870608
2858+184501746+183967302+183419227+182807267+181940148+181043856+180654140
2845+180687926+180593753+180465777+180489636+180290874+179791710+179399668
2831+179372802+179612156+179771329+179610058+179305553+179064648+178794836
2818+178451668+178060874+177655882+177389927+177281045+177299365+177505690
2804+177721146+177704906+177583111+177646372+177885083+177958459+177839405
2791+177880167+177947606+177702524+177363949+177214646+177212151+177285545
2777+177356160+177213682+176801070+176338962+175940436+175553896+175236024
2764+175156070+175285824+175359483+175260527+175066340+174814376+174531896
2750+174379341+174397643+174348845+174196082+174119852+174113178+174058652
2737+173885584+173668747+173646665+173833535+173865638+173602802+173326392
2723+173186920+173085166+172936014+172689721+172349843+172133422+172164164
2710+172161649+172015447+171930576+171919667+171965515+172100638+172150268
2696+172024068+171832604+171625069+171436857+171328920+171306705+171256585
2683+171069280+170903755+170876851+170832440+170731991+170577035+170202255
2669+169724833+169511040+169478162+169305339+169029647+168707200+168255887
2656+167833331+167573313+167294218+166934468+166680159+166545282+166372119
2642+166100492+165792092+165593519+165508119+165287085+164847664+164391398
2629+164058874+163801143+163499549+163086806+162554460+162048433+161821727
2615+161806451+161721259+161575832+161381097+160954249+160412772+159991331
2602+159700438+159581820+159586206+159532645+159442878+159385988+159326793
2588+159207872+158949479+158693374+158702601+158868390+158929514+158868825
2575+158772838+158685396+158587140+158428100+158236361+158094753+157987186
2561+157807925+157510255+157132554+156759778+156540909+156542904+156583401
2548+156497434+156311122+156059100+155806928+155680511+155675141+155598297
2534+155381933+155191206+155055562+154881804+154698649+154565549+154461507
2521+154328548+154215715+154186600+154090631+153852969+153683843+153636596
2507+153545033+153415213+153383913+153526769+153778431+153945100+153939494
2494+153902920+153972117+154091406+154241693+154502931+154804023+155062019
2480+155283062+155401066+155378407+155263702+155159916+155205688+155385629
2467+155577897+155733950+155859024+156004329+156136682+156134480+156061152
2453+156059157+156127768+156188004+156181141+156227924+156452749+156673924
2440+156782777+156930719+157089334+157126107+157110273+157163116+157294080
2426+157376861+157319424+157244725+157283559+157403444+157521655+157637220
2413+157765736+157839168+157922006+158152068+158361417+158342256+158277284
2399+158446278+158781043+158957987+158845230+158692524+158703073+158644445
2386+158091690+156708750+154301720+150899973+146758090+142250833+137651361
2372+133008111+128364899+123836042+119623100+116206756+114079474+113603196
2359+115067377+118367219+123161247+129610438+136408781+139733523+137526863
2345+132205339+128508095+127585127+127870981+128689435+129665380+130348408
2332+130952002+132210387+134100953+135932654+137488559+139316091+141813445
2318+144519289+146759385+148417223+149904886+151526150+153216847+154836920
2305+156227669+157355147+158388444+159371147+160190585+160854007+161440595
2291+161907619+162292173+162742351+163146190+163277495+163158442+162973992
2278+162871425+162841118+162801056+162808618+162953176+163138098+163249570
2264+163350360+163495239+163594251+163587388+163593797+163736162+163914581
2251+163990225+163986992+163928080+163853948+163921406+164147715+164341429
2237+164363190+164263043+164228407+164360638+164534973+164614720+164634723
2224+164648846+164612716+164531815+164515669+164600011+164654158+164582825
2210+164519886+164586493+164710991+164811270+164844696+164857987+164952443
2197+165083672+165199965+165336865+165443516+165454595+165439262+165455465
2183+165462857+165476337+165531865+165600968+165667140+165735675+165836654
2170+165993539+166152389+166247091+166264542+166214289+166129853+166087711
2156+166122763+166180125+166250551+166353590+166421804+166475461+166607786
2143+166737559+166741624+166674053+166678193+166761986+166830767+166886862
2129+166954282+167007068+167033689+167050610+167101430+167161306+167144007
2116+167086721+167120525+167264346+167440307+167575165+167594374+167539773
2102+167600349+167815389+168001673+168126077+168355221+168746034+169300688
2089+170012417+170747891+171468317+172289418+173189529+174010347+174692430
2075+175308814+175935426+176565101+177052411+177229147+177308894+177734986
2062+178491825+179317596+180124064+180863830+181599475+182437195+183383021
2048+184440962+185562466+186561684+187415380+188423767+189563969+190488072
2035+191164522+191606173+191739217+191665047+191431706+190991718+190422959
2021+189733294+188901038+188312636+188245897+188268622+187989338+187576499
2008+187318372+187241801+187158538+186975354+186864147+186993712+187013205
1994+186406936+185790817+186177016+187208620+188188497+188988007+189608872
1981+190154962+190727124+191392929+192165687+193011196+193710446+194045580
1967+194745964+196519585+198536776+200025346+201237316+202295994+203187484
1954+204119301+205082313+205808429+206055818+205576921+204622360+204766086
1940+206589184+208277840+208936290+209159593+209392254+209750831+210190422
1927+210290588+209703887+209356521+209609828+209667889+210593694+212750564
1913+214041960+213883336+213629859+214150766+214901063+215174241+215025751
1900+214652256+213904946+213015952+212481754+211592514+210436223+210767102
1886+211945590+212379395+212394804+212415242+212456779+212534276+212354553
1873+210823821+207212129+204421707+206199828+210044881+212225952+212762078
1859+212930609+213324976+213862029+214232290+214081474+213068436+210851784
1846+207888218+207662950+211370422+214379608+215115801+215385103+215162349
1832+212598709+209337501+209163884+210583560+212154372+214638795+216413531
1819+216762523+216889422+216750347+215402818+214019953+214571583+216105547
1805+216497588+214983495+212974415+213018618+214455782+213839114+210805463
1792+210555560+215255179+219155514+219857865+219379460+218953859+219304307
1778+220382969+219421791+215006712+211291015+213481293+218794687+223078632
1765+224267953+222906717+222846273+224162815+225058445+225843946+224253244
1751+219979111+218338950+221244246+224664456+226113398+226042538+226755570
1738+227489722+224483598+221996794+226998403+233723116+238728658+241544508
1724+242226875+241320185+236720410+229347589+228446854+236461053+244677512
1711+249000460+248813553+246062475+244637657+242945599+238661370+238165760
1697+243594974+252660780+262393167+266937338+267331799+264888082+258812102
1684+258497180+269635610+279474420+283090026+283505512+285695033+288144385
1670+290218067+297949220+307254097+311432582+314808721+322021973+328019322
1657+326793890+318630595+318782791+332310753+338371287+341494875+353235661
1643+365992056+372209928+371946261+367288614+367972871+379659320+389444512
1630+392523594+393099632+393840382+395312390+399793452+403815884+403714509
1616+405900571+413473950+418867922+420420850+421071870+422133800+422731618
1603+422913950+423858321+425548583+427014920+428554007+431119216+434392883
1589+437924659+441890373+446513950+452117027+457955298+461055367+461040922
1576+465609521+475809593+482035821+486322791+495701799+507027251+515470964
1562+517527101+512675740+518650817+542039899+562669074+578996267+593023923
1549+605906915+615567363+620028422+621175431+626147187+647041958+670519975
1535+684049714+695782219+711138989+723741714+732302419+740096586+746575857
1522+754338110+767498496+782553219+798994682+815603882+826946085+830552730
1508+829565971+841225044+868640339+888053195+896129369+899218737+906318135
1495+918205823+924944488+925551532+928513396+938017753+949195320+957774402
1481+962645501+964072323+961257021+955078890+952476851+959034772+968574976
1468+973683690+974028617+974040717+975104462+971758951+961748963+956998335
1454+962424902+967051202+965945788+960472711+957948642+959230566+958740288
1441+955126534+947800865+937042792+930444185+929222080+927373118+925236855
1427+922705073+918533129+916680763+917158564+917814613+922397429+930297472
1414+936924817+941657295+944841497+946384706+948662691+953190527+956998411
1400+958762673+961655264+966698789+972088602+977705215+981238730+980398987
1387+978222341+978362323+978826662+978397943+979773642+982303458+983383992
1373+984208610+985805287+987689188+989038796+988122823+986124198+987235134
1360+991110853+992755325+990666101+988592759+988860774+988997807+987232260
1346+984893170+982716751+978525900+971459173+965701896+963840380+963757571
1333+964146436+965080635+966000843+966973611+968784231+970608766+972160370
1319+974245056+976909940+980478999+983407587+984209820+985681110+989195189
1306+991967536+992859536+994438970+997747349+1000128411+1000364815+1000887537
1292+1003586679+1007590583+1012572171+1019694786+1027735492+1034442848
1281+1038840231+1040343359+1041093108+1043330935+1045049671+1045799798
1269+1048468765+1052312268+1054211672+1055029560+1056626917+1057920562
1258+1059198403+1061834700+1065084469+1067869672+1069185022+1068478380
1246+1067343471+1067839573+1069713643+1071719149+1073452178+1073741823
1234+1071863291+1069613137+1068722498+1068690735+1068299980+1066971395
1223+1064697872+1062599498+1061056516+1059770054+1060415289+1063239137
1211+1065292287+1064734702+1061665148+1057637875+1055613992+1055365260
1200+1054353697+1053159800+1052295933+1050762252+1048989142+1047189866
1188+1045475365+1044395285+1043225589+1041969756+1041355452+1039746600
1177+1035966017+1032029646+1029589294+1027502036+1024699666+1022211670
1165+1020736146+1019773134+1018855194+1018726404+1019463675+1018908888
1153+1017917894+1018674525+1018252158+1014444350+1011055506+1010695076
1142+1010859410+1010231947+1009888835+1009177277+1007836441+1007376412
1130+1007755219+1007322113+1006233487+1005861865+1005717345+1004501744
1119+1002955964+1003481862+1007171165+1010984040+1009797631+1005104402
1107+1003574125+1006090631+1009083804+1011551683+1013925636+1015327124
1096+1016523138+1020806099+1027084358+1030402266+1030944121+1031661502
1084+1032548738+1033927084+1036135871+1037519662+1038641866+1040930438
1072+1042271349+1042162978+1043311121+1045555226+1047222233+1048310557
1061+1049175861+1049454767+1049226530+1051194602+1055192230+1057913983
1049+1060433666+1062371261+1062147637+1063280428+1063436367+1057500767
1038+1052211686+1052223635+1049744261+1043126444+1040002894+1039666134
1026+1037245672+1036558238+1040525011+1043401267+1042508964+1041487720
1015+1040608198+1038274251+1036395266+1036209908+1036285155+1036103428
1003+1036137989+1036941129+1038618573+1040116710+1041122148+1042541407
991+1044713365+1046282211+1046535707+1047301942+1049764906+1054012097
980+1057748666+1056733699+1053258794+1052879836+1055226790+1056332659
968+1054336227+1052190133+1052650918+1054457833+1057174973+1060786836
957+1062764210+1062941249+1064116465+1064546319+1061645183+1059590142
945+1059732771+1058990433+1059404103+1062444239+1064785371+1064912194
934+1064803067+1065223468+1064444679+1062882790+1061734269+1059288019
922+1054712765+1051592013+1053520457+1057931528+1059984679+1059023633
910+1057714105+1059508844+1063769345+1064375104+1059244005+1054565977
899+1054479234+1055133242+1051956073+1048224646+1048790399+1050391008
887+1049294366+1047335898+1044178089+1038183198+1031218413+1026697988
876+1026725365+1028610552+1027517086+1024264367+1021996214+1020620969
864+1019629521+1019164728+1019388352+1019121017+1016442294+1013004445
853+1010733872+1009946235+1011861823+1014133455+1013326457+1012315272
841+1013682804+1015174512+1016543859+1019572197+1021471526+1018443717
829+1013376899+1011420171+1011833085+1010105880+1006324465+1004692698
818+1005816490+1007805510+1009142338+1006454994+1000681004+999180750+1003771204
804+1009313705+1012139443+1010931556+1006480480+1002281689+999894728+997459670
791+994522158+992288792+989942065+986845966+984656690+983821258+981889939
777+977770555+973149927+968548432+964737220+963142737+962764611+962548171
764+961511500+958673208+955215772+952119900+949831631+947342047+941972274
750+935991601+933664989+932551483+928424158+923457090+921508151+921036325
737+918765752+915090364+911721787+909281133+906780054+901725412+893885340
723+886390800+881456856+879439703+879638220+879505649+878494539+878438122
710+878614178+878945190+881103913+883268082+882993259+881995535+881827571
696+880850115+878114219+875585688+876776333+881491190+883861135+882430002
683+883218925+888555120+894101629+896972213+897384824+895063582+890349178
669+886283866+889775107+897059182+900466100+902660746+904348172+902774108
656+899805211+898221542+897445173+897817023+900598974+904453594+907186616
642+906826564+904790126+904827031+905256054+907302247+913400290+913070640
629+902190432+895081883+900522214+909933174+909914722+900532499+889691012
615+880972325+877414459+878980961+877134494+868971502+864122258+867317048
602+874315864+879883926
##END=
