##TITLE=Sample description
##JCAMP-DX=4.24
##DATA TYPE=INFRARED SPECTRUM
##DATE=12/9/2023
##SAMPLING PROCEDURE=Instrument type and / or accessory
##ORIGIN=Default
##XUNITS=1/CM
##YUNITS=ABSORBANCE
##RESOLUTION=4
##FIRSTX=4397.6552
##LASTX=599.8556
##DELTAX=-1.9287962
##MAXY=1.9802896
##MINY=0.33861825
##XFACTOR=1
##YFACTOR=1.8442884e-009
##NPOINTS=1970
##FIRSTY=0.34896281
##XYDATA=(X++(Y..Y))
4398+189212715+188213087+187897917+188260612+188329176+188072227+188098518
4384+187967192+187239250+186961133+188291864+189725400+188909050+186801561
4371+185983078+187101234+188546194+188995842+189066781+189131515+189074408
4357+189157596+189331922+189890224+190772099+190891855+190226078+189934969
4344+190056406+189824553+189644894+190039051+190777351+191780275+192186244
4330+190991332+189181673+188018207+187785821+188688008+189766412+190108148
4317+190274992+189925661+188850667+188085930+188160570+189361849+190784752
4303+190393569+188488570+187415063+188125149+189577995+190397140+190561205
4290+191017930+191335071+190954715+190958044+191543833+191825230+191648658
4276+191036965+190183563+190078447+190773359+190938119+190435453+189890240
4263+189549215+189761209+190160326+190167517+189711955+189223299+189486243
4249+190611363+192102426+193027381+192923574+192451013+191984851+191655073
4236+191492123+191304740+191021032+190540957+190393779+190993772+191563692
4222+191308182+190779484+190962358+191173366+190734820+190596141+191324228
4209+192297015+192434644+191658014+190732412+189800766+189262356+189798181
4195+190959579+191853945+192418953+192479647+191471585+189962472+189210937
4182+189914172+191376552+192127295+192092908+191807859+190912539+189872998
4168+190503759+192493835+193255081+192642533+192210418+191972053+191584473
4155+191083423+190700190+190824827+191188895+191226869+191032037+190974930
4141+191065196+191292427+191529952+191366743+191047711+191268705+191894537
4128+192205166+192084844+191832712+191641354+191823436+192187650+192202597
4114+191962923+191775605+191538080+191048713+190830935+191271452+191932899
4101+192689912+193312221+193470775+193311865+192884453+192560654+192519852
4087+192164251+191804966+192274053+192788935+192467770+192232524+192791812
4074+193193030+192489294+191609956+191925272+192739327+192773552+192225575
4060+191864562+192058925+192562302+192646540+192074454+191387896+191067216
4047+191431138+192523310+193617178+193832161+193059344+192068507+191600600
4033+191536335+191538064+191738568+192107564+192341874+192372269+192030016
4020+191372399+191165868+191849630+192749297+192978209+192531519+191980326
4006+191780760+191883500+192095299+192476577+192650127+192117809+191418162
3993+191681687+192737533+193153391+192780500+192792361+193474072+193837994
3979+193466994+193079705+192580012+191788451+191788645+192592180+193023067
3966+193095476+193453372+193755937+193098288+191773165+191149854+191413977
3952+191471714+191156075+191383194+191657206+191090242+191068524+192164849
3939+192778852+192467576+191946667+191882611+192492397+192877973+192230245
3925+191578446+191840953+191868488+191392824+191764083+193033231+193453873
3912+192513533+191319106+189987858+188525300+188151602+188812596+190159663
3898+192270159+192959060+190966786+189335477+190412249+190833714+190161619
3885+190590259+190280583+190074876+191618682+191363512+189337303+187746909
3871+186994033+188469923+189586608+188931980+190345155+193093311+193077524
3858+189563823+184253537+183603741+189908549+193981230+194066906+191777706
3844+188953715+186856437+185498996+186329323+189129479+190573874+190718660
3831+191061414+191365935+191275880+189682400+186356664+185735955+187694796
3817+188846966+191655121+194326084+193776250+191185744+189440237+188983367
3804+187423740+187522247+190346707+191461970+192150968+193678939+194380121
3790+194131365+193304836+192483008+192407270+191888477+190971375+191966042
3777+193661794+193536705+191788403+190606984+191518446+192752108+193353362
3763+193006875+191299812+190378040+190730214+189393893+185880241+184376703
3750+187180366+187934421+186384393+188916791+192436470+191492850+187693584
3736+185320581+187197301+191160648+193473926+193100728+191932398+192345348
3723+194305158+196618161+198578828+199313848+197642577+195310021+197240567
3709+202037942+205288247+207001305+209357373+214514889+220428239+224096906
3696+225117589+223880695+221825432+221811826+224074752+225034498+223692925
3682+220937643+217054106+211940947+208673772+210395540+211101102+209942047
3669+211831080+214472940+215118534+214880185+214398607+213078542+212177777
3655+212839789+211538678+207589809+207597065+213446553+217839575+219009828
3642+219205872+219436077+219273191+218951315+218609224+217243444+215912535
3628+218674135+222372568+222813150+221185138+219911934+220418236+221125882
3615+221073203+221429030+222013881+222669010+224104113+225185571+225046424
3601+224664500+224396385+223636787+223439742+224774706+225509806+224275951
3588+223851609+225967744+227920654+228532669+228550752+228429024+228327932
3574+228553725+228666290+227595627+226216952+227120141+229377152+230540327
3561+230779678+230951273+230990912+230762436+230892082+231490201+231618909
3547+231536335+232201498+233210999+233753417+233521709+233145829+233403909
3534+233552299+232868342+231991654+231727208+232001205+232287223+232597384
3520+232914622+233006052+233128797+233151000+232576910+231739295+231218467
3507+231016217+231135877+231800410+232631771+233053931+233287077+233521467
3493+233302202+232592035+232131901+232323856+232589579+232475204+232402536
3480+232670246+232864238+232703744+232597125+232661843+232409129+232033992
3466+232086364+232463585+232769771+232704342+232273569+231768156+231636119
3453+232026284+232270579+232061559+232070431+232351780+232464022+232755729
3439+233368197+233760802+233874757+234146636+234548501+234610617+234445437
3426+234477610+234572239+234692253+235067100+235510009+235816954+236177596
3412+236598706+236739049+236598173+236519170+236659659+237153049+237968251
3399+238563574+238791339+239123217+239574723+239870324+240152012+240593984
3385+240870776+240910415+241281221+241993941+242483550+242500356+242344177
3372+242607508+243251874+243623117+243608832+243907778+244790817+245430836
3358+245435442+245627608+246411541+247058930+247162058+247164498+247439771
3345+247968259+248555438+249270501+250050573+250394523+250410052+250411053
3331+250492852+250987842+251567345+251664107+251498232+251381400+251405833
3318+251438378+251259883+251092586+251077138+250911441+250674595+250637008
3304+250592522+250461939+250714153+251908612+253672799+254729468+254904118
3291+255302071+256299033+257401029+258541872+260021624+261531415+262510536
3277+263116395+263801628+264593739+265296731+265806507+266259903+266703556
3264+266862643+266877332+267158552+267492596+267263441+266616861+266430545
3250+266549186+266282688+266142409+266873729+267931497+268103302+267512552
3237+267108361+266747476+266200777+265872808+265920284+266400521+266970102
3223+266833330+266048589+265144656+264400943+264351382+264925004+265028681
3210+264364148+263983404+264205820+264179917+263759113+263538798+263549415
3196+263072588+262148278+261904775+262298075+262240822+261560744+260798043
3183+260187547+259386581+258331156+257741036+257863135+257908559+257460544
3169+257126548+257364639+257879715+258294733+258551778+258547156+258108675
3156+257416332+256806740+256486028+256461369+256437130+256333985+256406831
3142+256443642+255999828+255226171+254567310+254111846+253660340+253232104
3129+253071949+253103767+253093829+253073953+252856482+252065066+250796371
3115+249464057+248453538+247855177+247277144+246294080+245075850+244282705
3102+244147162+244002358+243047476+241567385+240558935+240005901+239287105
3088+238643465+238503219+238553911+238294393+237679970+237078409+236772466
3075+236633723+236495529+236285119+235989841+235999456+236363573+236326762
3061+235769171+235499440+235743251+235960480+236043619+236159675+236015098
3047+235596509+235383837+235487046+235747129+236007067+235978869+235539079
3034+234887441+234325551+233967026+233658546+233416804+233394875+233455796
3020+233441414+233333196+233170844+233050086+232899707+232664009+232355787
3007+231956088+231642905+231419730+231190511+231080547+230848840+230414948
2993+230459547+231192159+232067732+232824615+233415963+233713116+233863445
2980+233972585+233961661+234094506+234387506+234308261+233848288+233490506
2966+233318620+233106336+232835992+232608550+232276752+231813838+231630511
2953+231789179+231946021+232214022+232603266+232640109+232404136+232309685
2939+232396250+232523682+232399611+231944437+231621026+231675272+231690608
2926+231435211+231137703+230783621+230246972+229589226+229071112+228985936
2912+229139627+229272101+229357858+229352929+229429977+229660779+229767818
2899+229658582+229623500+229816118+230023910+230224947+230484158+230599874
2885+230623903+230872158+231193565+231205054+231123208+231245404+231419164
2872+231531019+231514359+231413719+231328673+231102314+230934209+231255568
2858+231699948+231642631+231215138+230717465+230052075+229287161+228920815
2845+229275122+229966625+230365016+230431899+230518399+230572048+230507896
2831+230657967+230996277+231168050+231177729+231238326+231465622+231685889
2818+231658338+231566828+231683578+231827460+231816407+231819009+231939622
2804+232190268+232509882+232734350+232903974+233124822+233292959+233311348
2791+233287723+233305806+233357709+233482733+233618600+233615514+233490522
2777+233444969+233560524+233683771+233685597+233612088+233607014+233708607
2764+233816470+233847351+233832129+233817828+233807841+233907883+234120119
2750+234314288+234452692+234421360+234246937+234277300+234643016+235011948
2737+235099919+235104848+235235237+235334681+235394405+235520173+235609065
2723+235694725+235781646+235716298+235594958+235569426+235692851+235979532
2710+236296819+236528833+236696227+236789401+236836360+236969464+237076519
2696+237053896+237104765+237290564+237563106+237870261+238050696+238044022
2683+238033696+238227785+238456487+238520607+238569198+238585874+238369437
2669+238047916+237943447+238059502+238112553+237992280+237861067+237874237
2656+237991310+238107027+238251474+238415313+238392803+238111277+237762835
2642+237507050+237414813+237552005+237815433+237959735+237932151+237832126
2629+237686547+237465359+237158349+236869018+236714503+236682023+236704840
2615+236702351+236631752+236552280+236468042+236283762+236026830+235786526
2602+235600581+235525748+235543959+235599078+235660807+235615981+235437728
2588+235296820+235231375+235138734+235062171+235056935+235121379+235182816
2575+235077959+234834439+234552460+234250411+234032406+233954745+233912553
2561+233786253+233520287+233117195+232730956+232616177+232777818+232901921
2548+232822353+232671620+232503483+232312238+232142711+231948218+231643358
2534+231295352+231174707+231303206+231378734+231275880+231103833+231015474
2521+230916337+230727936+230704796+230737212+230494516+230204053+230175161
2507+230255310+230284639+230334200+230333424+230222491+230181624+230293640
2494+230432901+230429039+230329659+230389287+230598791+230767252+230897980
2480+231033524+231136507+231178925+231203374+231296322+231346900+231204828
2467+231098064+231258008+231510141+231609617+231552785+231534283+231616614
2453+231643067+231620396+231702468+231947540+232257765+232421006+232437407
2440+232559474+232845752+233059700+233131431+233203954+233250476+233252933
2426+233350890+233622737+233961500+234138347+234140754+234145667+234213794
2413+234336120+234519721+234750588+234948087+235038239+235098982+235287706
2399+235612555+235935611+236181749+236365382+236441493+236342226+236102504
2386+235620780+234477562+232278465+229028920+225031056+220618966+216153276
2372+211734868+207178120+202684862+198664440+195377260+193174835+192425595
2359+193433560+196451721+201336405+207790927+214368486+217695984+215931086
2345+211262743+207953344+207137447+207752387+209140144+210571999+211566052
2332+212340274+213695243+215854960+218042244+219679403+221179951+223411463
2318+226383408+229101524+230955475+232422315+234135858+236028624+237780319
2305+239284972+240522690+241515563+242351836+243125477+243874959+244626493
2291+245368656+246031993+246632002+247187396+247594027+247787146+247861673
2278+247945863+248082748+248219035+248289263+248355693+248475951+248648047
2264+248942598+249328222+249620300+249741947+249830048+250005246+250185422
2251+250324521+250511192+250729617+250893149+250982477+251010255+251047954
2237+251183708+251422542+251735530+252031035+252169536+252209336+252303108
2224+252359019+252303496+252358179+252632046+252893793+252950367+252917951
2210+252976367+253098693+253200480+253290196+253370540+253497616+253753773
2197+253995887+254116839+254252528+254406590+254480842+254502269+254572998
2183+254779465+254987176+255043523+255113348+255282648+255389186+255455294
2170+255615205+255806725+255959575+256123866+256271110+256332208+256374868
2156+256462581+256528623+256532906+256553751+256698603+257017667+257410935
2143+257635920+257600079+257504028+257563220+257781305+257999746+258125513
2129+258269201+258481566+258590803+258577326+258643466+258792276+258916460
2116+259056593+259210946+259348769+259477186+259492683+259387874+259347799
2102+259453157+259620212+259753752+259841416+259896632+259942492+260014304
2089+260071103+260128016+260217264+260280414+260371795+260528750+260611743
2075+260571846+260577453+260716633+260818404+260824108+260887550+261004688
2062+261083561+261194672+261389197+261553876+261601045+261621083+261711332
2048+261762719+261718184+261672518+261639052+261696611+261895305+262100770
2035+262225956+262288896+262414163+262593433+262650201+262651429+262754945
2021+262928948+263078615+263167620+263284952+263518195+263755849+263847601
2008+263867445+263990142+264222399+264455739+264648099+264825463+264915874
1994+264809384+264758192+265069629+265539653+265922902+266204752+266456691
1981+266743210+266962443+267069353+267174485+267364081+267573020+267634312
1967+267644073+267829290+268096079+268302675+268520082+268812920+269182401
1954+269546534+269747264+269780035+269781392+269757283+269697380+269980135
1940+270737067+271413816+271793526+272106305+272450658+272777689+273063223
1927+273189686+273027156+272899013+272981942+273094766+273566423+274402405
1913+274973053+275188456+275446972+275963712+276584615+277121943+277574628
1900+277950719+278131153+278255644+278585551+278763464+278800340+279394322
1886+280278847+280928934+281492407+282045182+282544891+282992761+283320923
1873+283125332+282191682+281743166+283053164+284919493+286041883+286676780
1859+287302369+287927086+288475822+288990720+289441757+289640387+289293351
1846+288601315+289135184+291188766+292766524+293482411+294139575+294661907
1832+294348514+293888331+294711451+296134306+297536703+299153080+300466925
1819+301325886+302105828+302689113+302801937+303030719+304017403+305280863
1805+306140664+306353159+306328629+306985406+308155788+308573149+308203587
1792+309105532+311713732+313726464+314647768+315250152+315774714+316614704
1778+317755742+317992798+316882495+316216734+318013449+320990275+323326288
1765+324234762+324325383+325220282+326719893+328054841+329159068+329208289
1751+328292996+328321695+330013537+332004324+333305661+333975688+334953453
1738+335894632+335458655+335581951+338426496+341542485+344157311+346157858
1724+347337355+347629675+346329987+344326110+345206498+349123404+352747375
1711+354917757+355325972+354744433+354822644+354810783+354039275+354980002
1697+357814238+361967296+366311000+368560950+369392311+368970651+367002034
1684+367834979+373096496+377121669+378525133+379008650+380366706+381580815
1670+382748515+386256204+389995164+391693082+393366146+396443223+398806999
1657+398516164+395952467+396968399+402419949+404529346+406249175+411956978
1643+417632173+420464146+420759279+419436418+420844568+427169428+432573600
1630+435470307+437828589+440475054+443494669+447694847+451334234+453381352
1616+457338850+464038541+469776530+474143859+478576310+483616963+488611044
1603+493608455+499236173+505196934+510845239+516386732+522175105+527983807
1589+533860055+540111617+546730156+553661312+560642885+566174779+570139420
1576+576425628+584897084+591477002+597788677+605842061+613814842+620668175
1562+624777796+626132653+633946298+649227328+661997080+672105339+680865723
1549+689685055+697236468+702085989+705265871+710683939+723690522+737113302
1535+745870583+753921575+763673297+772045793+778184435+783896860+790074672
1522+797713603+806099027+813972009+823699556+834973285+843527929+846916718
1508+848075530+856807538+871595969+881238583+886030707+888837116+893426797
1495+900151373+904851647+906674928+909052406+914720878+921160147+926432717
1481+930654160+933660880+935483127+936505878+937987294+942405750+948312798
1468+951516273+951877529+952111450+952412400+951081718+947947146+946713096
1454+948237431+948992844+947856848+944279965+939686988+935703280+931937593
1441+929202542+927610274+924244948+919315277+915279019+911975227+910286909
1427+908556446+906212256+906356461+908279477+910739691+916367248+923799276
1414+928687127+931616993+935507559+939988455+944576261+949588151+953373682
1400+954732352+955001048+956033430+959246148+965510961+971654515+974132634
1387+973474435+972818886+973538813+974791737+975327513+975308381+976648694
1373+980653151+985768524+988800258+988210316+985523873+982862314+981577977
1360+982086218+983472423+984242056+983862184+982859276+981659743+980584054
1346+979303853+977337272+974283496+970509277+968040660+967668674+967104716
1333+963687293+958934533+956380531+957213249+961260561+965086231+965983781
1319+966910999+968360678+968587166+970152610+974509790+978176002+978728842
1306+979800976+984706925+989309986+989775307+989056867+989351159+990363504
1292+993504540+999303061+1005320315+1009048965+1011766952+1016754537+1022822725
1279+1027071251+1030149718+1032702686+1034154885+1034825947+1036122113
1267+1039228180+1042657432+1044474120+1044945582+1044596090+1044941833
1256+1047501717+1050502555+1052155130+1053780169+1056541397+1059484837
1244+1060821919+1059684437+1058777127+1061156286+1064561558+1065393694
1233+1064626712+1065135340+1066053057+1064726576+1062256796+1060235467
1221+1058479990+1057468615+1057253180+1057143750+1057298814+1058304048
1209+1059961148+1061267138+1061154993+1060397124+1059575652+1058025269
1198+1057741642+1058874858+1058563825+1057273282+1056876928+1057248526
1186+1057217759+1057113693+1057128883+1056059981+1054611918+1054152155
1175+1054484777+1054235601+1052652188+1049863618+1046318795+1043290487
1163+1040908160+1038790587+1037292560+1037517432+1040304192+1042922896
1151+1041615806+1036811531+1032832800+1032052050+1032328631+1031264124
1140+1027748453+1023388880+1021771016+1022153667+1022331419+1024076424
1128+1025626484+1021137573+1013868366+1011925765+1016239122+1021068282
1117+1019942499+1013776064+1009186965+1009509698+1013230140+1016431094
1105+1016988717+1015755702+1013471688+1010733794+1008926349+1008685253
1094+1010107138+1014021361+1018316685+1019117537+1017579887+1014682533
1082+1010463158+1011249403+1019983415+1028596749+1030431276+1028541161
1070+1026242734+1022891498+1022372269+1027721499+1032850511+1034150167
1059+1033003700+1031574641+1032990385+1035560029+1037843914+1040393908
1047+1041165933+1040880173+1039364176+1035085529+1033492291+1037379755
1036+1038274202+1032303617+1029325466+1032200004+1029615428+1021122060
1024+1018342346+1021858146+1026800939+1029668172+1026014953+1020006813
1013+1016580922+1014015609+1015528050+1022999959+1028107317+1026685820
1001+1024225218+1024655313+1028047011+1031409299+1032436834+1033151525
989+1034447368+1036288618+1038934275+1038936473+1036010808+1035614001
978+1038099876+1039945134+1041696797+1044781469+1048471660+1050837310
966+1050722062+1050549288+1053018098+1057479539+1061111557+1063816745
955+1068926689+1073741823+1072312957+1065483281+1058140517+1056447027
943+1061139222+1065915250+1069090156+1070465244+1066128811+1058993144
932+1056836142+1060219631+1064028173+1065075745+1062885455+1060324860
920+1060383809+1061548697+1062738341+1063587090+1061158548+1056095984
908+1053646176+1055183761+1057162042+1057220926+1056327449+1056584769
897+1055761875+1048207812+1040670619+1046390413+1059612754+1064245935
885+1060432804+1055189256+1053146532+1056113694+1058032444+1055660847
874+1053341930+1053321504+1054827611+1056273348+1056147564+1052296814
862+1045237289+1041793881+1043696666+1041797953+1034126316+1030865185
851+1034956772+1039575862+1039606242+1035601979+1032630486+1034228572
839+1038914367+1042976351+1041265732+1033899246+1028199942+1027978043
827+1031556865+1035907583+1038191338+1036326172+1031282546+1025867903
816+1019466642+1012939984+1010309387+1012633217+1019055421+1026734363
804+1030315124+1027229094+1019617181+1012914840+1011951749+1011272802
793+1004774584+1002418501+1008683184+1012240095+1008874575+1003812527+998438606
779+993095000+991055056+991205013+989402029+986689343+984843051+985567438
766+988434413+988562071+986051957+983223829+979064437+972054748+962196117
752+955858975+960028450+968786506+969347297+961932268+957209048+959239167
739+962114222+960109763+954880694+950380536+947944173+945355848+941499669
725+939248750+938238732+934577562+928542727+923805869+920524700+916422383
712+913619140+915799993+921817893+929617124+938946507+946136728+946726799
698+943570574+940695714+937595529+936737278+939173512+937469616+929694559
685+922878715+919245081+918354189+922943223+931040948+935618606+933483257
671+921548486+904743768+908131717+928761394+937978955+935159489+931273835
658+932750662+938808442+943192706+942841792+943229291+944781678+938184243
644+924443771+918503242+925731535+931391539+925456375+918980522+918435826
631+923703872+941166982+967037429+977329968+959774620+935740834+931699664
617+949504898+964934981+962955925+959801380+964160371+963476705+959281181
604+953925553+937134861+921353411
##END=
