##TITLE=Sample description
##JCAMP-DX=4.24
##DATA TYPE=INFRARED SPECTRUM
##DATE=12/9/2023
##SAMPLING PROCEDURE=Instrument type and / or accessory
##ORIGIN=Default
##XUNITS=1/CM
##YUNITS=ABSORBANCE
##RESOLUTION=4
##FIRSTX=4397.6552
##LASTX=599.8556
##DELTAX=-1.9287962
##MAXY=1.8641623
##MINY=0.2951878
##XFACTOR=1
##YFACTOR=1.7361365e-009
##NPOINTS=1970
##FIRSTY=0.3137542
##XYDATA=(X++(Y..Y))
4398+180719781+180611997+180158611+178097949+176794200+178409236+180612134
4384+180989663+180142149+179559642+180038004+180607448+180033592+179041902
4371+178770972+179312299+180186111+181094461+181609129+180836320+179644974
4357+179583605+180075202+180589372+181116897+180953684+180047977+179020650
4344+178391005+178376123+178521998+178577135+179296025+180744037+181222210
4330+179985940+178915543+179165307+179364689+178665248+177908575+178351249
4317+180259598+181899507+181902597+181094204+180618399+180579072+180291973
4303+179115749+177607675+177519305+178886842+179341704+178530907+178150151
4290+178332590+178642760+179041575+179418281+179758646+179632992+179360895
4276+179851702+180505808+180771863+181079304+181404752+181390590+180686806
4263+179760672+179905002+180955074+181407223+180734063+179659874+179218539
4249+179745806+180618691+181037556+180798985+180405937+179881142+179060715
4236+178723766+179244511+179913242+179892231+179294789+179025594+179210076
4222+179680661+180687681+181753374+181900108+181065948+180116229+179950955
4209+180611979+180873364+180099818+179401973+179528297+180210607+181101036
4195+181388444+180495509+179476233+179358217+179436511+179125465+179249815
4182+180285107+180858207+179894789+179066071+179903578+181018468+180769408
4168+179936004+179814727+179896196+179431258+178797219+178363077+178195057
4155+178415742+178972311+179554029+179834416+179637764+179254432+179138906
4141+179192103+179316693+179310565+178589924+177375866+176861971+177668150
4128+178547455+178560416+178705948+179243309+179555419+179563848+179203999
4114+178633216+178206146+178087083+178220102+178501502+178952278+179094258
4101+178430367+177852185+178390130+179351883+179843034+179904161+179499905
4087+178833302+178489589+178521604+178402352+178000138+178037217+178742597
4074+179307372+179194300+178828495+178625080+178221046+177662193+177668373
4060+178378938+179117998+179150167+178734152+178489057+178317553+178028325
4047+177492697+176995041+177515047+178880044+179451188+178840769+178451687
4033+178860235+179177581+178868526+178317432+177854434+177479514+177361636
4020+177811588+178767505+179604187+179560140+178443705+177392723+177700319
4006+178574354+178858038+178921500+178822985+178362081+178271857+179029645
3993+179933893+179868233+179037164+178669333+178579281+178081333+177963094
3979+178761806+179609286+179509964+178603811+177987453+177833509+177745740
3966+178378165+179849179+180969408+180820425+179399210+177953722+177919699
3952+178951781+179986884+180452508+179749651+178347816+177862657+178335199
3939+178420823+178040186+177990148+178308953+178711287+179145841+179139764
3925+178745618+178456940+178095409+178065472+179067101+180241179+180082120
3912+178674483+177411520+176527254+175319118+174442079+175050335+176850075
3898+178427843+178331560+176754169+175800690+176511564+176889265+176919048
3885+177618455+177446058+177223124+177994868+177223124+175505248+174927942
3871+175191439+176376280+176882725+176118397+176520576+177831707+177719836
3858+175159922+170705563+170025691+175344438+178436684+178032135+175904595
3844+173859658+172764028+172054441+172719448+174969690+176266126+176599110
3831+177329690+178053850+177821390+175677525+172414341+172560887+175144988
3817+176165654+177879788+179687888+178926564+176262950+174649374+174891825
3804+174365674+174766325+177166906+178453678+179398231+180319095+180220923
3790+180123558+180368619+180339179+180237214+179826074+179617628+181046980
3777+182513737+181995121+180208083+179547746+181210296+183075027+184189333
3763+184527570+183894921+184101375+185414840+185451781+183956856+184859489
3750+190264959+193848629+195864540+201878059+207877330+210162488+211404439
3736+213840365+216776950+220185718+224028696+226685701+227903604+228542827
3723+229568214+231837630+234567040+236548670+238087506+241849874+250976169
3709+262291064+271973826+280415837+289808307+301694516+313564624+322936958
3696+329499546+332595207+331944792+329881452+328985839+327089524+322104447
3682+315138874+307660829+300009822+293751620+291626621+289908350+286621203
3669+285813239+286783643+286838711+286362804+285782203+284751237+284034904
3655+284297765+283061495+280440865+281761832+287343646+291758043+294023802
3642+295493202+297160937+298920612+300782905+302564518+303312436+303889690
3628+306219650+307571945+305884572+302290585+299576040+299792536+300547664
3615+300441956+301170854+303192412+305905240+308483590+309869461+310663830
3601+312168557+313823108+314297230+314251432+314882484+315498499+315339783
3588+314978853+314565155+313875945+313414629+313208982+312704167+312223316
3574+312418870+313089679+314065731+315363369+316310480+316422298+316382027
3561+316610265+316577684+316236735+315879891+315221785+314568623+315062897
3547+316776396+317759075+317018161+315958854+315739783+316048322+315726668
3534+314888732+314728712+315496885+316621285+317222709+316727782+315682140
3520+315047551+315167747+315546701+315285814+314512010+314126773+314017323
3507+314024910+314652839+315228342+314634025+313392862+312604777+312420243
3493+312240551+311798255+311481269+311412846+311169743+310986068+311350877
3480+311562395+310867040+309666457+308787495+308575497+308490354+308086852
3466+307656916+307412439+307611701+308412283+308940855+308089496+306043975
3453+304606229+305083269+306224869+306334765+305629624+304853486+304524450
3439+304983706+305391877+304807378+303867580+303627258+304277467+305166901
3426+305216133+304374901+303636802+303353325+303234606+302940623+302331680
3412+301789890+301633612+301633852+301404035+301250916+301774029+302468904
3399+302766526+302884147+302645438+301956399+301326651+300968983+300781326
3385+300864065+301306258+301808395+302071926+302052872+301838092+301663687
3372+301717244+301906721+301777325+301284629+301192998+301773411+302462175
3358+302533757+301793529+301248718+301660459+302316849+302371814+301844375
3345+301461301+301830436+302526307+302773255+302816239+303255308+303696471
3331+303817937+303939402+304101277+304422657+304668060+304137051+303329979
3318+302994832+302725637+302335868+302159643+302148691+302039482+301679033
3304+301083995+300455208+300251312+300843569+301952314+302784413+303154990
3291+303950698+305189731+305821676+305836576+306047339+306513839+306629812
3277+306630602+307110525+307923914+308886096+309474508+309170020+308749833
3264+308999975+309335636+308995340+308284397+307928995+307744736+307212903
3250+306592390+305997592+305473964+305452575+305944824+306606707+306837348
3237+306508140+306378263+306457878+305909016+305009799+304793028+305209300
3223+305529135+305252181+304726287+304630638+304750319+304737548+304342801
3210+303516366+303042142+302894481+302102275+301127733+300645234+300218387
3196+300110895+300505882+300668889+300221924+299343202+298362789+297422717
3183+296212247+294669103+294115297+294993229+295340014+293904122+291971174
3169+291578453+292281534+291914321+290514271+289962251+290345908+289960603
3156+288688130+288121209+289046210+289767727+288518668+286595780+286231503
3142+287447894+287566305+285631332+284188110+284753932+285412587+283315070
3129+279955895+279576614+282838081+284946550+281993314+277613163+277065073
3115+279750900+279925957+275613389+272126087+273099187+275290687+273079721
3102+267647267+265035563+267069995+269297149+266570090+261440649+260143525
3088+263999430+266896603+263514339+258572435+257437787+259194080+259461525
3075+256224588+253229003+253888242+257007060+257739889+254614925+251759517
3061+252004732+254490765+255030838+252149750+249702718+249868111+251004751
3047+250783860+249452886+248491836+248238416+248381992+248091802+247066398
3034+246028600+245655946+245867567+245666366+244613050+243689645+245688698
3020+256756559+277016082+290026279+283949435+269811181+258872426+252176683
3007+247703201+244520800+242528030+241330692+240326453+239164305+238294561
2993+238534128+240250494+241985639+241591888+239919467+239247611+240524616
2980+242600779+242518708+240163858+238530077+238962211+240606291+240982207
2966+238894561+236794160+237119642+240134899+242466799+240257463+236236577
2953+234781219+236624166+239706782+239892757+236843924+234603243+235443359
2939+238285927+239277514+236742422+233784224+233015673+234959315+237352188
2926+236415154+233199160+231196501+231473576+232984208+232624549+229851863
2912+227968216+228342158+229998958+231064272+230063965+228130622+227137747
2899+227861513+229549177+229972402+228606598+227307827+227332288+228432553
2885+229247658+228854371+228034957+227721662+228119911+228787509+228878952
2872+228348509+227740922+227531739+227917577+228142158+227533953+226678869
2858+226246186+226171497+226018789+225339363+224265036+223430654+223149614
2845+223244988+223269792+223016767+222902717+223190005+223603978+223919710
2831+224118749+224286597+224443561+224497068+224402913+224108363+223715951
2818+223435993+223217522+222969716+222740328+222534475+222437350+222550645
2804+222674926+222708571+222805610+222865124+222818862+222842637+222982075
2791+223154369+223159673+222917566+222718356+222743675+222776359+222597834
2777+222333685+222193749+222146388+222112743+221966747+221570988+221224168
2764+221342287+221747298+221959881+221948980+221878480+221652526+221430450
2750+221459718+221504144+221430210+221442055+221496350+221383210+221241008
2737+221258311+221288986+221264903+221278412+221250398+221068662+220903183
2723+220978816+221105397+221065298+221011071+221029644+221166353+221431429
2710+221475889+221232390+221037197+220848338+220588927+220549188+220759917
2696+220931850+221004771+220981494+220805801+220681537+220716950+220715886
2683+220630932+220608822+220638897+220497296+220211106+220060887+220016668
2669+219960398+219971590+219956004+219814420+219661695+219492817+219259361
2656+219034247+218894654+218818644+218690861+218568159+218547285+218447998
2642+218145398+217807092+217594699+217493523+217445081+217380863+217194339
2629+216910449+216720766+216628311+216426337+216161536+216022698+215947151
2615+215765931+215536320+215440964+215363820+215123206+214831781+214581210
2602+214338845+214125353+214033206+214074387+214063504+213900119+213737541
2588+213609604+213389709+213199099+213143447+212990533+212621724+212217828
2575+211949096+211775909+211610722+211526472+211505066+211376631+211128773
2561+210864658+210648505+210478374+210265225+209993369+209810432+209776289
2548+209769320+209713445+209614020+209491353+209409283+209341924+209192048
2534+209012974+208923008+208903679+208812013+208564481+208237368+208015876
2521+208069451+208282462+208370523+208268901+208060714+207881416+207841059
2507+207834793+207768104+207712280+207691080+207679082+207697226+207736192
2494+207797251+207931386+208052182+208086239+208178025+208378368+208585183
2480+208749821+208826072+208810966+208804271+208811206+208752482+208676334
2467+208657434+208702821+208820459+208965836+209071321+209157064+209250224
2453+209285482+209277620+209299043+209325960+209447271+209725736+209936773
2440+210002570+210161526+210436936+210653569+210802346+210841055+210733871
2426+210648522+210755929+211088519+211461980+211653448+211671833+211608508
2413+211530197+211564923+211752941+211944770+212032316+212060314+212131174
2399+212362759+212976818+214485562+217882176+224684605+236521668+254296996
2386+277420459+303890548+331487973+359044509+386590711+414839582+444657345
2372+476122348+507999469+538088316+564915302+586673373+600124699+605290395
2359+602550582+588785738+564606144+535382148+507855962+492305385+496559366
2345+515325251+525097242+517040879+505260308+496508246+492854693+495992377
2332+501074063+500172374+494931628+492572932+493339389+491131375+482276078
2318+467841901+452883616+446428384+450547476+453888782+445595839+426545721
2305+404904550+388834911+379057874+370527320+360570969+349058460+335574313
2291+321177180+308123690+296903929+286961533+278571380+271861887+266313598
2278+261549446+257423608+253709270+250271098+247342374+245008105+242903602
2264+240843867+239036231+237535366+236150765+234805921+233515956+232301521
2251+231223984+230268616+229361519+228588025+228039695+227569779+227073719
2237+226611939+226232831+225974793+225819013+225661516+225501426+225406310
2224+225306508+225207787+225244075+225400783+225566142+225641380+225668845
2210+225803838+226041156+226297924+226564201+226824573+227013398+227130658
2197+227331653+227689974+228090712+228398496+228568799+228682626+228813172
2183+229004263+229275690+229477132+229490950+229443349+229440294+229413154
2170+229368283+229405516+229467227+229450782+229350293+229142534+228876429
2156+228695861+228586566+228412658+228132905+227867692+227727979+227649342
2143+227688893+227990703+228455950+228888496+229202907+229512202+229912922
2129+230331512+230674967+230912887+231154239+231483824+231835587+232131939
2116+232379197+232635861+232902001+233140298+233338873+233504472+233677847
2102+233962441+234339747+234718667+235153719+235629111+236139607+236732569
2089+237297429+237800630+238432318+239354126+240483418+241711002+243009739
2075+244386340+245956109+247787846+249852181+252121615+254587203+257153194
2062+259845028+262871254+266171018+269609122+273146616+276732810+280386827
2048+284115687+287854503+291428767+294712979+297605053+300099016+302346099
2035+304303834+305896588+307048248+307652865+307864760+307930815+307782948
2021+307278888+306600802+305734336+304437042+302811432+301098036+299377911
2008+297650611+295959325+294321562+292747759+291249211+289737583+288235225
1994+286899101+285757964+284708837+283679982+282686455+281808025+281082286
1981+280430686+279814207+279295162+278889017+278577148+278416389+278392597
1967+278354506+278258686+278238928+278413917+278764410+279159277+279465036
1954+279752341+280227802+280823304+281367772+281938898+282689871+283611267
1940+284465219+285136044+285836979+286726498+287633784+288383916+289024307
1927+289570044+290133429+290790367+291162730+291297001+291838413+292653587
1913+293080915+293103814+293172031+293475318+293858770+294237483+294449963
1900+294401486+294432351+294785762+295169763+295243610+295271247+295675367
1886+296261651+296726983+297166293+297688342+298006838+297967184+297949332
1873+297976832+297662765+297372112+297841564+298632706+299044515+298995215
1859+298607644+298073167+297578858+297237806+297134158+297067864+296454217
1846+295347327+294961335+295332942+295155858+294475506+294054117+293732772
1832+292595395+290960928+290389647+290759709+291096607+291198057+291158713
1819+291099216+290770009+290018452+289145154+288547232+288489795+288602094
1805+288668458+288861231+288685486+288126222+287920248+287470313+286606457
1792+287005890+288524161+289488781+290007054+290231171+290074447+290260079
1778+290749959+290397646+288970097+288289504+290254483+292991995+294271781
1765+294139260+293938694+294775359+296001141+296880206+297504220+297757074
1751+297700667+297845410+298638886+299859861+300689213+300826197+301310928
1738+302091014+302123973+303115715+306025161+308279076+309630306+310653839
1724+311592882+311998992+311052431+309932357+311614923+315230814+317898015
1711+319246087+319381354+319136877+319839443+320425898+320049416+320781335
1697+323192043+326993635+330897227+333130302+334514937+334751620+333622277
1684+335451851+340841185+344407535+345539145+346261657+348148050+349939757
1670+351904015+356069730+360078170+362302766+365121886+369476047+372941565
1657+373808889+372625232+375060865+381525024+384883289+388171758+394727410
1643+400661829+404116121+405543601+405631182+408004434+413971983+418542881
1630+420833978+422569793+424288269+426062192+428759777+430965147+431525201
1616+433144837+437005205+440332229+442585732+444884313+447821293+451099428
1603+454590764+458250496+461891518+465604328+469820064+474595030+479373532
1589+484013128+488895759+494365738+500507143+506899307+512240232+516532734
1576+522674345+529801313+534839260+540135829+548076631+556445550+563525414
1562+568158075+571205192+580675749+595775619+608484692+619669092+630038729
1549+639858715+648660627+656604793+663016939+669584813+683342379+698100373
1535+708485254+718326526+729143094+738550756+747059337+755738066+763780833
1522+772552533+782986302+793802597+805793930+818378242+829329803+836801564
1508+839825232+844697186+856919023+868787174+877497831+883251288+888810357
1495+895843427+901796145+906757567+912527365+920267257+927947824+933153551
1481+937016494+941019785+944857253+947540968+949568946+953780150+959069852
1468+961436547+961044273+961006233+961578544+960443741+955638323+952516191
1454+956673014+960723682+960256152+957688616+956898917+956312530+953448436
1441+948409424+939169165+926354212+920055842+921405973+921955831+920030574
1427+919312559+920959180+921940382+919948384+918930309+923253366+929504496
1414+934359832+938315196+942610513+946520147+947598233+947013082+949360620
1400+954534282+958491156+961134290+966388906+972807849+975718909+975014146
1387+973590339+974035073+975422282+976257368+977381047+979367896+982620488
1373+987015916+989746734+989259566+988121537+988453731+988756537+988394749
1360+988203040+987417667+986289044+986944781+989139474+990147386+988938084
1346+986051193+982829706+979585490+975029046+970574842+968059353+966741287
1333+965926663+964988856+964036561+964045213+965177681+966262428+966503917
1319+967503178+970343995+973130568+974480424+975422145+977729858+981999701
1306+986321385+988428875+989049731+989648751+989954373+990605372+992817368
1292+995759189+999540560+1005340707+1011421551+1016290757+1021442378+1027483602
1279+1033124588+1037606807+1040192264+1040217738+1040038664+1041653630
1267+1043294140+1043747937+1044576638+1046455478+1047688264+1048839545
1256+1052031645+1055784795+1057619828+1058086877+1059870482+1063327211
1244+1065347773+1064664090+1063555380+1064152615+1065869547+1066734983
1233+1067301457+1068771337+1068115051+1064297770+1061975431+1062286271
1221+1062560857+1061943915+1060427137+1058976139+1059898840+1062437537
1209+1062554334+1060218263+1058203880+1056494089+1055493936+1056441905
1198+1057817785+1057687324+1056646316+1056159080+1056139716+1055201017
1186+1054064910+1053878214+1052092275+1047285964+1042828532+1041888734
1175+1043582733+1045424838+1045652321+1044391521+1044448649+1045246588
1163+1043745946+1041681576+1041132268+1040544096+1038506368+1035042773
1151+1030714497+1028622456+1030264064+1031054588+1029139012+1027916458
1140+1028162136+1028082967+1026757623+1025125971+1025417104+1026664172
1128+1025132563+1022567361+1023216712+1025889578+1025608401+1019227085
1117+1011124649+1008260968+1011071435+1014966924+1016563420+1016218180
1105+1015793015+1017125500+1021620079+1026137248+1025378103+1021978159
1094+1022870854+1027780572+1030078879+1027470076+1024008746+1021925082
1082+1021672332+1024599459+1030029372+1034001833+1034039941+1033739882
1070+1036321631+1040224673+1044208738+1048937665+1052316805+1049794999
1059+1044510927+1043607932+1044998232+1044031380+1045057008+1051278406
1047+1055236722+1053068053+1051154262+1051173282+1048711282+1042591025
1036+1035474598+1031263805+1031570114+1033932620+1035742591+1035226997
1024+1034450137+1037168939+1038789399+1036371687+1034743193+1033488161
1013+1030649885+1029394852+1031703802+1035555621+1039139171+1041298365
1001+1040622510+1038721903+1038231920+1038899398+1039431678+1040173107
989+1041914346+1043720815+1044513261+1044791074+1045581803+1045859273
978+1045022813+1045620735+1047786590+1049323623+1051601742+1056479944
966+1061560978+1064464142+1064615270+1060512966+1055730962+1056461748
955+1061040577+1063846032+1064759326+1066514367+1067215353+1065923242
943+1067566292+1071590388+1072053798+1069311720+1066223576+1062512586
932+1059547694+1060616854+1064522025+1066554672+1067323910+1069677902
920+1071062640+1068511034+1062810037+1056992243+1054473252+1056084030
908+1059711869+1063802912+1068991885+1073237009+1073741823+1072294189
897+1068640327+1061904983+1056220533+1054250439+1056217581+1060813438
885+1063487334+1063291849+1063840127+1064759532+1063199771+1059603861
874+1057203658+1057675651+1058065592+1054280651+1046289862+1037614566
862+1032938303+1034050584+1037533749+1040351975+1042207745+1041728542
851+1039305543+1036961095+1034058755+1031449060+1032356586+1034506922
839+1033648147+1033038140+1034909977+1034571260+1030809527+1027725573
827+1026329300+1023092088+1018739231+1018181340+1020562591+1021675628
816+1021197386+1022148925+1025296806+1028340043+1031279941+1033427943
804+1033434466+1032034897+1027423659+1020741529+1015692217+1011183700
793+1008261379+1009280484+1011064775+1011672859+1012107637+1009249929
781+1001185258+993070805+988737380+987226782+988088166+990121019+989417493
768+986811436+986727667+986717573+982713252+977842329+975738753+974986955
754+973484048+971887757+970278558+968736444+968845070+968565472+964801954
741+959682606+956684137+954638787+951664008+949726460+948023055+944201035
727+938773319+931847227+927434633+928695227+928807629+923901756+919616052
714+918934223+921215638+923901756+924718990+927242924+933745362+940684295
700+943771888+941528582+938590468+939196561+942320684+945661715+946630352
687+945008038+942443386+939025864+935669521+934676509+935800462+937897447
673+944005207+952142455+950938440+942847540+945053356+949313174+948047293
660+945274247+943038905+941797811+943036364+944873183+945994527+948490241
646+952458926+950081176+936206539+923047993+922773683+929019731+928760869
633+920743370+917319668+926464829+937583449+941147567+945726122+956481648
619+966148995+973357157+977485622+959586065+925915658+910793953+919301436
606+929618752+932579112+931103189+923448851
##END=
