##TITLE=Sample description
##JCAMP-DX=4.24
##DATA TYPE=INFRARED SPECTRUM
##DATE=12/9/2023
##SAMPLING PROCEDURE=Instrument type and / or accessory
##ORIGIN=Default
##XUNITS=1/CM
##YUNITS=ABSORBANCE
##RESOLUTION=4
##FIRSTX=4397.6552
##LASTX=599.8556
##DELTAX=-1.9287962
##MAXY=1.6881958
##MINY=0.14888453
##XFACTOR=1
##YFACTOR=1.5722549e-009
##NPOINTS=1970
##FIRSTY=0.18834271
##XYDATA=(X++(Y..Y))
4398+119791458+119722149+119967021+119623620+120029127+121743706+122345172
4384+120842417+119560869+120081027+121268396+121580047+121449294+121649849
4371+121501307+120912475+120888601+121371000+121196433+120146668+119531887
4357+120097148+120831072+120768738+120599639+121244389+121994681+121744644
4344+120819169+120543039+121680291+123179189+123409086+122527169+121598481
4330+120978932+120875342+121036594+120548129+119546634+119263226+119939470
4317+120441629+120173101+119705203+119606816+120086524+120970431+121509430
4303+121173042+120619258+120796015+121412341+121579023+121225851+120869220
4290+120606520+120460821+120911433+121928983+122543433+122114497+121547065
4276+121523646+121185401+120700121+120940462+121410380+121519713+121334313
4263+121112774+121065301+121226050+121272244+120972705+120774652+120644307
4249+120608359+121472192+122500850+122232512+121154532+120546148+120624148
4236+120882507+121079669+121197428+121264870+121651878+122170396+122032535
4222+121607579+121955558+122921730+123445859+123127289+122723791+123190164
4209+124317265+125031590+124786291+123734650+122457651+121849485+122248150
4195+122595958+121977119+121370214+121577592+121723083+121422871+121577716
4182+122154976+122022034+121379540+121160920+121322390+121409024+121483518
4168+122169609+122838934+122109038+120800630+120397398+120609477+120822941
4155+120834058+120368529+120009101+120423243+120859382+120685516+120467626
4141+120806753+121433581+121508918+121086512+121038584+121397680+121835866
4128+122115217+121673970+120925611+120850245+121144354+121053814+120835868
4114+121024168+121249668+120897633+120063967+119571181+119944483+120379627
4101+120276881+120310194+120634877+120642961+120594161+120809558+120843801
4087+120903064+121259809+121224828+120598853+120137390+120171774+120322790
4074+120410410+120105545+119160991+118685293+119329284+119866360+119605091
4060+119339482+119734081+120556687+120953627+120498466+119832439+119590572
4047+119602599+119612910+119895607+120568563+120975814+120497699+119586004
4033+119092212+119097131+119270959+119474917+119867829+120219608+119828118
4020+119201091+119034371+118844308+118732965+119080508+119638756+120380291
4006+121072703+121077300+120418656+119824412+119584279+119238556+118610742
3993+118219337+118427294+119137951+120201951+121148865+121124621+120096892
3979+119112182+118803535+118767871+118493780+118288656+118591598+118980747
3966+118996119+118977458+119348837+119629591+119202560+118316824+117443390
3952+116732695+116447164+116908835+116868518+115808205+116214660+118171855
3939+118929312+117628534+115086260+113745250+115411587+117187552+116176323
3925+114657248+115017396+115272229+114737893+115605461+117970845+119249635
3912+118668679+117048042+113137624+106826100+102823749+104098852+109049321
3898+114957299+116963673+113543520+110720549+112566458+112627152+110064682
3885+109998301+109557792+109464230+112812685+112952394+109012984+105223310
3871+103066005+105467622+108309568+107807541+109260244+113066703+113422254
3858+107401550+96807603+94694910+107140499+116313577+117968077+114981922
3844+110243002+105349390+101188517+101679550+106823209+110579674+112352824
3831+113793519+114195207+113675353+110548673+103815606+102254355+106666365
3817+109125634+113464884+118516213+118321951+113448194+109826728+109533511
3804+107168430+106876464+111788614+114476776+116610652+120098503+121719908
3790+121621796+120896667+119934845+119872359+119331900+118233705+120492306
3777+124362975+124884735+121767239+119068424+120404809+123513415+126585751
3763+127786483+125419715+124363487+126635404+125737953+118908395+113714884
3750+118257504+122287339+122718958+129837118+138650626+139884464+135987911
3736+134593940+142043123+154950953+165163209+169595794+171668236+175672739
3723+181977031+189595256+197062579+201659297+201184926+199475551+207298093
3709+224859222+242209854+254636829+264121170+276201967+290112315+300851942
3696+305800505+302261787+290696172+279557995+276498141+276120555+272609114
3682+265967628+257382539+246815329+238661014+240276732+242663450+242185003
3669+246855343+253050624+255697104+256316293+254958650+250984021+248303232
3655+248944674+245390395+235459793+231414878+240313562+250135323+254695476
3642+256091011+256588735+256094973+254661698+252272099+247080113+241951647
3628+246799842+255369256+257189595+253211724+248803212+249713628+252801023
3615+253337473+253666648+254822874+256341257+259936195+263510795+263892248
3601+262749272+262237369+261638879+262099717+264725990+265260298+261463487
3588+260048922+264971137+269796739+271759392+272431333+272470059+272270992
3574+272329089+271393084+267553586+263151917+264400398+269676449+272687550
3561+273018943+272979023+273092413+272833960+272824425+273286381+272572227
3547+271269099+271967918+273919275+274817275+274616104+274333122+274305751
3534+274329824+274170506+273562804+272637736+272066466+272531360+273958682
3520+275092788+275112880+274567180+273689595+272292165+271261763+271304166
3507+271312695+270586145+270242905+270765043+271212309+271193088+271136185
3493+271070145+270350684+269141497+268504206+268474484+268550059+268938014
3480+269459527+269406244+268601351+267730817+267743555+268359161+268660112
3466+268487867+268002729+267760804+267973045+267904655+267445561+267065037
3453+266840115+266128652+264852838+264604317+265482358+266019869+266417908
3439+266787419+266332174+265626625+265606684+265678979+265208475+264757323
3426+264789282+264976539+265034106+265073268+264969412+264661751+264466513
3412+264358791+264166378+263977869+263960733+264117625+264180613+263922633
3399+263614062+263867265+264543775+264791897+264314114+263670302+263502853
3385+263834644+264197521+264210960+264093855+264041747+263886448+264081193
3372+264672082+264644559+264027740+263879757+264337201+264890445+265700493
3358+266988970+268054893+268488682+269010839+269763700+269912308+269551232
3345+269753331+270609706+271170589+271288964+271673999+272410085+272776867
3331+272481204+272087260+271946233+272049861+272438062+272973602+273392757
3318+273388587+273053024+272857407+272888626+272933664+273028970+273436146
3304+273660499+272884361+271851382+271777362+272534298+273510526+274388490
3291+275099631+275511488+275239955+274279934+273174242+272656691+272958438
3277+273160292+272471082+271618840+271442064+271664711+271934026+272125871
3264+272083184+271881577+271498494+271025127+270753803+270477683+270080194
3250+269825475+269432800+268750964+268431134+268628040+268968512+269340090
3237+269590734+269828318+270458425+271176218+271081272+270090316+269095493
3223+268724294+268855426+269093882+269501872+270237901+270565768+269908877
3210+269067515+268855559+269023899+268889147+268051519+266979511+266334221
3196+266024645+265705554+265096545+264189389+263128507+261865962+260750186
3183+260176509+259871501+259497042+258869210+257725817+256323268+255473149
3169+255514244+255760452+255110537+253778199+252959507+252580196+252169077
3156+252000945+251675637+250591763+249442436+248934799+248798208+248801847
3142+248599406+247869008+246961378+245797608+244322310+243188451+242344132
3129+241484478+240919937+240546350+239893250+239001998+238047095+236885846
3115+235462845+233998181+232735048+231654320+230378127+228548538+226386533
3102+224604237+223348212+222018528+220565161+219438581+218588215+217757581
3088+216842882+215739465+214551982+213600471+212988428+212564629+212142479
3075+211560272+210878190+210147242+209245564+208525401+208350578+208208149
3061+207645560+207024590+206637071+206280752+205972238+205919277+205945663
3047+205757211+205310324+204739471+204125305+203418449+202642273+201741752
3034+200577375+199442341+198763501+198405324+197993846+197356668+196480353
3020+195574183+194890433+194336981+193623054+192749829+191902533+191015053
3007+190115897+189438535+188770063+187812960+186874946+186246090+185853643
2993+185815770+186163863+186525660+186745729+186942199+187006305+186782597
2980+186577142+186743530+187038870+187068232+186718794+186203631+185831920
2966+185480416+184978939+184390021+183698101+183039751+182541970+182201782
2953+182116427+182030333+181628958+181289528+181317714+181365272+181134588
2939+180763067+180531113+180328350+179703740+178791012+178223362+178131164
2926+178116000+177595852+176204828+174477654+173328574+172903600+172676934
2912+172209614+171661507+171503383+171660123+171706166+171651328+171637339
2899+171456337+170987367+170498097+170287240+170341509+170392081+170330098
2885+170267205+170264646+170338552+170398185+170351669+170362246+170490648
2872+170462177+170200956+170020731+169998913+169855764+169575778+169351140
2858+169090488+168661514+168124401+167412086+166458869+165608958+165297677
2845+165414213+165497938+165451308+165433661+165384340+165257056+165235561
2831+165413758+165690446+165863962+165813010+165697138+165494716+164984007
2818+164409875+164113340+164049651+164042979+163970816+163906691+163982815
2804+164103806+164196572+164387830+164634095+164739353+164703224+164738121
2791+165013596+165235978+165074290+164830906+164785509+164713877+164477203
2777+164277245+164131386+163826265+163479158+163235357+162985206+162870489
2764+163042166+163215245+163198337+163154608+163136638+163073214+163059226
2750+163209635+163371872+163286763+163044441+162864670+162668124+162402126
2737+162200671+162058773+161895000+161811560+161908023+162003367+161886982
2723+161714889+161713638+161769802+161768740+161772342+161779620+161687650
2710+161467562+161402489+161610237+161677320+161470253+161308320+161217316
2696+161043895+160925558+160988622+161110182+161190229+161239418+161243322
2683+161162403+161075285+161041299+160950788+160718170+160357852+160024829
2669+159858535+159708600+159438489+159155223+158934055+158764596+158634924
2656+158474535+158206357+157809181+157419842+157248904+157200588+156994725
2642+156580015+156154823+155830728+155516091+155230608+155034081+154835222
2629+154577319+154271999+153934436+153623467+153383362+153156706+152901285
2615+152587843+152179180+151842366+151699387+151529843+151201341+150878648
2602+150652219+150470231+150290963+150110121+149952538+149798195+149745614
2588+149899757+150051863+150055123+149981473+149889531+149832599+149774776
2575+149659917+149541126+149432873+149313247+149240326+149175386+148954587
2561+148622976+148371204+148190761+147942591+147632361+147406785+147310313
2548+147249534+147170870+147066626+146901555+146695911+146533835+146403537
2534+146241319+146108671+146010075+145826571+145647445+145614008+145597517
2521+145417547+145119221+144933850+144931376+144931234+144851309+144807950
2507+144842249+144851670+144816821+144778171+144761348+144797164+144849253
2494+144956804+145188000+145438559+145664798+145935373+146218895+146508027
2480+146823374+147029843+147037075+146950232+146939247+147070322+147190839
2467+147197909+147197938+147272261+147437720+147632115+147725497+147715091
2453+147705092+147799868+147974739+148092753+148204731+148405494+148587701
2440+148682619+148788009+148937869+149014220+149026162+149114758+149273251
2426+149349375+149280511+149228622+149292898+149409150+149576496+149761185
2413+149830675+149770161+149782216+149988012+150248389+150425156+150494133
2399+150568551+150807500+151100973+151273190+151364421+151368146+151246681
2386+150942480+150109211+148422762+145922579+142832056+139420963+135943168
2372+132461695+128948188+125554430+122400795+119647589+117842196+117528887
2359+118781613+121392183+125387596+131015379+136785127+139411258+137507744
2345+133170731+130041568+129059625+129159206+129758918+130587514+131331608
2332+131944105+132881930+134308864+135786010+137084533+138616251+140688807
2318+142916927+144706767+145906381+146898380+148040096+149263243+150377616
2305+151397479+152341948+153080070+153634982+154190501+154768358+155240076
2291+155569033+155881556+156251153+156559259+156659655+156597539+156563439
2278+156619072+156648396+156588716+156530590+156550464+156651097+156835578
2264+157008411+157060888+157059893+157080166+157134188+157308319+157567825
2251+157657132+157501804+157298102+157240962+157361858+157497691+157577226
2237+157693469+157821331+157873694+157872671+157854010+157810839+157795040
2224+157854569+157964243+158095621+158177109+158158306+158111582+158112103
2210+158169082+158273392+158376309+158379816+158275202+158198008+158266417
2197+158485349+158763572+158951939+158990958+158988703+159037076+159124952
2183+159245336+159345988+159364659+159369587+159415667+159478105+159527294
2170+159544069+159569299+159630770+159747231+159909771+160003220+160025814
2156+160047044+160030458+159996472+159983980+159990709+160126428+160404330
2143+160576708+160544863+160490651+160517151+160561051+160572500+160628986
2129+160834479+161095719+161189717+161120000+161105803+161214511+161357129
2116+161508391+161711818+161938237+162074468+162129684+162264095+162600663
2102+163102367+163618971+164081496+164603198+165360703+166411784+167719159
2089+169284854+171135635+173254574+175505952+177673568+179697902+181656461
2075+183525079+185278506+186933063+188341525+189423011+190487228+191858311
2062+193399914+194844372+196154230+197381329+198542313+199585339+200548488
2048+201567990+202635506+203639560+204564780+205570616+206720758+207823378
2035+208693912+209243005+209437731+209276385+208775552+208036245+207138870
2021+205984407+204543361+203182893+202302123+201751249+201094965+200279097
2008+199616141+199228603+198978338+198837312+198881932+199102475+199242857
1994+199010334+199007302+200057284+201716675+203375003+204983518+206566027
1981+208265109+210192677+212382395+214791556+217311586+219741351+221952014
1967+224562271+228162801+232120522+235716597+238977262+242029230+245018874
1954+248042807+250823508+253072214+254701656+255435201+255306818+255622838
1940+256981372+257972802+257956633+257433623+256660518+255807271+255040081
1927+254002173+252232160+250536490+249454795+248318472+247867415+248406993
1913+248242424+246858584+245332790+244426905+243741828+242685817+241227806
1900+239501315+237484487+235517019+234133596+232580677+230749799+230393234
1886+231185104+231575599+231706067+231914953+232063694+232145012+232047639
1873+230814152+227782447+225525950+227319107+230910766+233021896+233699125
1859+234025798+234483262+235015693+235336187+235134295+234175279+232106647
1846+229200026+228590960+231441624+233461902+233064488+231915560+230163024
1832+226293501+221796582+220180068+220213448+220411397+221437515+221921534
1819+221067776+219873942+218456439+216109299+213903299+213582729+214185010
1805+213712079+211553296+209101126+208609695+209370289+208333935+205275465
1792+204861277+208898135+212144185+212549560+211967391+211393675+211490252
1778+212344579+211484982+207570706+204245992+206246689+211136909+215037499
1765+216043941+214759806+214663173+215809561+216670731+217531143+216255253
1751+212487615+210989949+213625075+216838712+218303262+218341362+218972512
1738+219539858+216860870+214935179+219750905+225874517+230361029+232869193
1724+233515886+232791269+228757102+222270935+221609722+228822440+236096857
1711+239838906+239500860+236921026+235657552+234106035+230121303+229521771
1697+234214345+242210157+250896637+254990532+255355513+253064632+247527360
1684+247291937+257180344+265708966+268699918+268926735+270617781+272282953
1670+273774609+280657829+288836994+292352909+295207345+301295682+306154701
1657+304792470+297530507+297626230+309245148+314259372+317091783+327800076
1643+339276204+345052179+345185964+341437470+342741167+353812376+362795182
1630+365988025+367348057+368882703+371049845+376002484+380401860+380905953
1616+383481616+390960787+396327974+397995686+398933663+400801427+402740311
1603+404408819+406591163+409349440+412215041+415407126+419245922+423355739
1589+427588689+432347075+438095906+445095018+452276100+456530620+457724567
1576+463174854+473282990+479535800+484675905+494891251+506446119+515045879
1562+517856094+514768641+522549805+545914905+565585268+580864898+594239195
1549+607003932+617004402+622523534+625444371+631747526+651898894+673808011
1535+686578397+698092739+713130918+725164707+733258631+741099162+748381805
1522+757350471+770822652+785051371+800712265+817073514+828212089+832147633
1508+833476313+847013244+871812187+888287395+895798334+899671628+906766767
1495+917826110+924844973+926156442+929021247+938336716+948172542+954218855
1481+957711985+960307779+961903120+961417261+960170998+963485116+970806276
1468+974389482+972493588+971098034+970970959+965378660+953491887+950374220
1454+959419010+965739262+965618101+963202533+963388066+963567685+960047487
1441+954088292+945736806+935387523+929498235+929048088+928936101+928508852
1427+926943687+922842628+919438131+918596447+920422283+927386934+937144665
1414+944489026+947483105+947967447+947645210+946900803+948807236+954092841
1400+958342433+959856646+960425225+963622503+970418985+975285226+977151777
1387+979379841+981321682+981282786+980469080+981350191+983133946+983577648
1373+984714653+988092157+991768774+993714406+991924888+987764916+987279891
1360+990855818+992733515+992115046+991218013+989750354+986957502+984002395
1346+982604263+982258673+979859027+974579791+969579120+966540686+964260533
1333+962126715+961096844+961276766+961468137+962126108+964109651+966748207
1319+969351962+971308967+972304946+974408513+979043577+983122573+984648690
1306+986065625+988821931+992045519+995716979+1000139063+1004516868+1008390542
1292+1011260806+1013033112+1014991558+1017839910+1022147429+1027664060
1281+1033182130+1038282278+1042163306+1044753413+1047168072+1049870545
1269+1052383618+1053385739+1052122871+1049960317+1049391283+1051124617
1258+1054817990+1059713195+1063257883+1064845869+1066053464+1066767087
1246+1067123065+1068975741+1072139203+1073741823+1072282883+1068811210
1234+1066064154+1065926540+1066721216+1066507023+1066386771+1067146038
1223+1066721140+1063552749+1059204514+1056847555+1057383910+1058452677
1211+1058625472+1058278896+1057204443+1055169191+1053763932+1054380960
1200+1055264801+1054386040+1052388547+1051054863+1050269968+1048324412
1188+1045025534+1041039114+1037074077+1034200704+1032963312+1033190698
1177+1033176216+1030304587+1025790078+1024589004+1026557761+1025922764
1165+1021571420+1017411903+1015668333+1015788129+1015691685+1014514571
1153+1013486444+1013145630+1013015522+1012862743+1012700791+1012089298
1142+1010068831+1007242921+1005579494+1005728254+1006875040+1007322836
1130+1005535063+1002799608+1001643040+1001976120+1002867543+1004171429
1119+1004522858+1002881645+1000859359+1000069384+999883624+999827365+1000568966
1105+1001573664+1001680647+1001566613+1003855713+1008938497+1012022045
1094+1010475077+1007322381+1005791261+1008751220+1016363532+1023940965
1082+1027931555+1029948837+1031874528+1030618939+1025712893+1023695913
1070+1027884773+1035191452+1040837204+1042404795+1041272945+1039946464
1059+1039662213+1039820526+1039430429+1039179615+1041201750+1045258985
1047+1047436249+1045819830+1043035471+1042387735+1044729227+1048268987
1036+1049344881+1047185510+1046202572+1046260803+1043285148+1039447868
1024+1037726589+1036926909+1034998640+1030418773+1025789168+1025669447
1013+1027915784+1027761944+1027716982+1031352049+1035783307+1037379558
1001+1036769657+1035601641+1033603238+1031648128+1031938824+1033841087
989+1035375392+1036213210+1037764878+1041094009+1045158750+1049189449
978+1052894801+1055418262+1056007008+1053668929+1050219016+1049285134
966+1050473698+1051496972+1051943328+1052759688+1054237735+1054283758
955+1052485445+1050590841+1048163369+1046318275+1047470368+1049572722
943+1049523438+1047562187+1046495012+1048132206+1049037959+1047462559
932+1047784948+1049796241+1050025295+1049559984+1049451560+1049303862
920+1049175422+1048822477+1048447923+1047592970+1045212280+1043102193
908+1044184835+1047011123+1047917407+1046984965+1045931438+1044502675
897+1042550219+1041393197+1041557727+1040794972+1037583970+1035158849
885+1034920772+1032925402+1028307625+1024018833+1021190801+1019685156
874+1018099444+1014975408+1012857436+1013459679+1013012868+1009396833
862+1006956547+1008985203+1010587595+1007531343+1004497913+1003520282
851+1001992118+1001759804+1003035865+1002017139+1000190394+1000717878
839+1002489880+1003791189+1003463114+1002320649+1002351963+1002159758
827+1000240132+998658439+999828729+1002926835+1005789213+1008492521+1009000519
814+1003544242+996245903+994543655+997119432+997611281+995324987+994012456
800+993932921+991809338+988377470+986848093+986165253+985086402+984100583
787+981273233+975880418+971169457+967822433+963163182+958200270+955962046
773+956155009+956375723+955185264+954736558+955763623+953336834+947273916
760+942778286+940405860+938798843+936624687+932115637+927802052+925193748
746+921295433+916554599+913458313+911237604+909050711+907736134+907002266
733+904822955+900696116+895806750+890790156+886634278+883330169+879552256
719+876165806+873983992+872313589+872068916+872436115+870922509+869844188
706+871558719+873588285+874308959+874412075+874806191+875551886+874306306
692+871842895+872397826+874997714+875445055+872955259+870348243+871361889
679+876924163+882877975+884572641+882680917+876203413+865035419+864446141
665+876379544+884808746+888483542+887786979+882133568+877756976+880028940
652+884162376+884800861+884428051+884689632+885139703+885446549+883337902
638+879832868+879538533+883606459+886663393+881297495+870022670+862985306
625+863113519+862947623+856060764+848070638+847079284+852319245+854946504
611+846965250+834247332+828480267+834781564+847757651+852244789+844141161
##END=
