##TITLE=Sample description
##JCAMP-DX=4.24
##DATA TYPE=INFRARED SPECTRUM
##DATE=12/9/2023
##SAMPLING PROCEDURE=Instrument type and / or accessory
##ORIGIN=Default
##XUNITS=1/CM
##YUNITS=ABSORBANCE
##RESOLUTION=4
##FIRSTX=4397.6552
##LASTX=599.8556
##DELTAX=-1.9287962
##MAXY=1.8071926
##MINY=0.17968568
##XFACTOR=1
##YFACTOR=1.6830792e-009
##NPOINTS=1970
##FIRSTY=0.20100696
##XYDATA=(X++(Y..Y))
4398+119428105+119183403+119086395+118919825+118538363+118473608+118494910
4384+118157131+117441669+116869919+117314630+118271111+118525437+118462019
4371+119112752+120316945+121498924+122065256+121592089+120701701+119756022
4357+118718877+118521665+119545600+120475759+120361079+119931118+120081149
4344+120633475+121214071+121842785+122130480+121775118+121208812+120580956
4330+119880086+119601776+120049976+120681028+120790723+120584020+120816832
4317+121352469+121235204+120520611+120022149+119984070+120289880+120445834
4303+120046496+119503900+119691595+120584834+121035133+121130609+121493036
4290+121352026+120644693+120267082+120492421+121138064+121574621+121506511
4276+121431646+121446148+121568831+122095624+122405993+121899165+121295028
4263+121207263+121485900+121928895+122110188+121669717+121060286+120795265
4249+120969006+121731116+122342380+121825574+121047864+121168759+121984034
4236+122656016+122610128+122178998+121974614+122087496+122282610+122548145
4222+122873104+122860302+122582151+122601399+122850173+122837601+122898381
4209+123297975+123266306+122908190+122813927+122845472+123076496+123209475
4195+122928500+122999116+123586405+123660907+123038187+122564196+122617893
4182+123021161+123313008+123150670+122820488+122636025+122491668+122344452
4168+122721169+123727601+124179564+123442013+122355997+121862883+122302477
4155+122853219+122331632+121526830+121763042+122502354+123126376+123794781
4141+124168868+123805565+122889448+122308259+122681868+123377329+123453009
4128+122802143+122305417+122520628+122962400+123283641+123312610+122960400
4114+122593953+122591943+122870430+122915990+122708101+122652333+122692413
4101+122711634+122924162+123282180+123344261+123153096+123094778+123184261
4087+123214681+123155655+123201295+123247882+123146633+122959284+122742771
4074+122741479+122891103+122996115+123230998+123411938+123060834+122494289
4060+122576219+123178338+123570716+123575037+123250113+122982817+123012742
4047+122906207+122644188+122760638+123427422+124018005+123752745+123084074
4033+122944401+123147377+123170750+123138700+123339348+123557808+123373310
4020+122901329+122450260+122363257+122963003+123642580+123875729+124256226
4006+124929589+125273778+125073963+124441105+123318338+122138599+122018138
3993+122875202+123536205+124024273+124702461+124940948+124597600+124323026
3979+124171578+123989080+123917172+123616852+122949350+122526462+122828757
3966+123672727+124439264+124877627+124712412+123882670+123260109+122971838
3952+122301486+121635135+121870214+122042299+121561518+122152180+123494302
3939+123820359+123163561+121838686+120903782+121677818+122608791+121796818
3925+120801506+121122738+120897859+119768549+120150091+122351650+123724068
3912+123171441+121528557+118446100+114268518+112385040+114257787+118025877
3898+121882122+122903507+120100795+117971986+119613737+119919688+118266932
3885+118527969+118430456+118619603+121124093+120753981+117406273+114523101
3871+112972346+114866635+116998047+116838790+118545552+121609416+121415789
3858+116255175+107893051+106760085+116719471+123185403+123642828+120898399
3844+117371098+114297425+111853253+112692150+116715141+119118604+120073243
3831+121313071+121801847+121323306+118642037+113360041+112619799+116311173
3817+117996891+121033929+124373234+123598472+119734835+117295409+117024306
3804+114655797+114225605+118272695+120660505+122608446+124953954+125307191
3790+124613704+123709265+122752891+122715768+122191322+121075992+122556210
3777+125165358+125207509+122615839+120456069+121269485+122978107+124241538
3763+124155650+121775047+120457804+121203544+119306042+113460219+110126828
3750+114256282+116429580+115056746+119022278+124159634+122905047+117581909
3736+114265162+117356968+124314509+129207172+129878560+129210571+130381076
3723+133318539+137375961+141487771+143692827+142672079+140599782+143985586
3709+153121462+162274683+169241528+175944363+184931544+192920652+196408652
3696+195861417+191326861+183642579+178551793+180056217+181856047+179342323
3682+173365087+165803427+157392874+151954941+153730052+154628896+153748716
3669+157713106+162089503+163168923+163167117+162567079+160284378+158537067
3655+158936165+156419962+149959448+148711546+156589011+163921719+166520526
3642+166546041+166389600+165996787+164880944+162878032+158818998+155102648
3628+158894430+164984689+165864764+162616942+159274440+159618700+161185329
3615+161208153+161364825+161820250+162404032+164142384+165339432+164756021
3601+163951006+163756548+163477113+163694503+164907487+164793135+162244262
3588+161541063+164839191+167615404+168375566+168586510+168699286+168570025
3574+168454327+167743780+165041104+162060127+163094482+166437781+168274814
3561+169195756+170029101+169961036+168963032+168450981+168887512+168796303
3547+168189094+168669804+169861894+170448935+170350608+170157194+170159903
3534+170044082+169613464+169186885+169050186+168923811+168693461+168835135
3520+169343078+169755156+169832713+169423344+168647033+168351078+168931053
3507+169145645+168559436+168525722+169126397+169198536+168846644+168798906
3493+168911027+168640959+168037575+167635997+167490038+167302663+167435306
3480+167989908+168277965+168140541+168010731+168175070+168422472+168447404
3466+168383729+168263304+168121152+168309803+168702119+168932240+169138403
3453+169408665+169282219+168674532+168422101+168739906+169148000+169762752
3439+170446137+170740941+170600826+170346146+170576107+171166742+171452427
3426+171385831+171265406+171458076+172134183+173006006+173787930+174313174
3412+174513086+174562082+174681604+175055612+175782875+176445117+176378875
3399+175979281+176376644+177457959+178302354+178712413+178888899+179103703
3385+179515214+180022148+180596387+181261711+182031807+182754678+183265526
3372+183567501+183582375+183608812+184108486+184869764+185685438+186670887
3358+187566190+188181881+188799643+189456627+189906988+190174665+190614029
3345+191369906+191987722+192164279+192292619+192983813+194227802+195178598
3331+195556820+195935733+196464890+197100890+197802779+198147499+198235787
3318+198574770+198894576+198963156+199106175+199236942+199181820+199134046
3304+199242254+199567479+200198522+201191354+202390881+203638270+204833972
3291+205863317+206941285+208096279+209024888+209909956+210772571+211160036
3277+211243029+211492875+212213480+213575115+214662609+214532906+214113869
3264+214277411+214450940+214613030+215151589+215510935+215442303+215393803
3250+215381037+215300771+215222275+214894713+214235038+213722951+213433671
3237+213121585+213149828+213595744+213797905+213533185+213171696+212995971
3223+212979362+212886064+212464832+211914196+211782615+211917454+211701499
3210+211165012+210613368+210081838+209676560+209315018+208706002+208213021
3196+208108798+207876181+207399047+206930324+206275182+205289255+204386799
3183+203770612+202984208+202034474+201560298+201566371+201331045+200687873
3169+200357690+200524065+200465065+199830410+199047158+198592176+198440639
3156+198432565+198562942+198536239+198096680+197556244+197286513+197315748
3142+197201927+196629158+196039638+195537679+194863112+194324837+193980878
3129+193613669+193392721+193344452+193233836+192797694+191873246+190741785
3115+189823782+189167418+188620572+187837816+186528966+185061886+183773452
3102+182621716+181780048+181110687+180282017+179497755+178822374+178110764
3088+177599633+177326502+176908191+176371491+176080530+175953181+175631001
3075+175171876+174911034+174747988+174496689+174474857+174713547+174669811
3061+174259893+174097007+174328915+174364790+174194289+174275883+174422993
3047+174376530+174381240+174390430+174038857+173559705+173399917+173257003
3034+172639187+171861831+171506540+171432790+171207681+170739985+170135397
3020+169678697+169695165+169949756+169792181+169199687+168709362+168451760
3007+168247120+168071289+167881080+167564691+167129984+166632983+166308148
2993+166484155+166969771+167505904+168228191+168942634+169285938+169314623
2980+169245530+169256703+169367301+169404345+169318094+169185291+168965688
2966+168631026+168266403+167909712+167583372+167342769+167170055+167054623
2953+166978412+166797871+166571026+166527909+166596506+166567644+166430485
2939+166365536+166479534+166532389+166215239+165671686+165339662+165199954
2926+165034074+164933286+164684715+164044712+163394050+163085222+162958740
2912+162749638+162619916+162783211+162958687+163004265+163145939+163271004
2899+163096182+162758757+162635569+162907992+163261566+163320229+163342859
2885+163588632+163851316+164028475+164201100+164445333+164663395+164654046
2872+164534170+164547149+164661182+164730611+164764910+164755366+164652984
2858+164676038+164865238+164792019+164297267+163655671+163094394+162805451
2845+162865708+163066930+163283912+163516016+163682922+163736415+163755220
2831+163898116+164116018+164258082+164360959+164382403+164302934+164299445
2818+164366077+164359047+164312088+164322411+164444926+164688752+165008665
2804+165397670+165766525+165982976+166103685+166270396+166538728+166835658
2791+167042723+166998775+166716277+166543403+166551318+166480030+166379914
2777+166528051+166802545+166769929+166514576+166370600+166294035+166336656
2764+166566971+166675196+166587263+166635550+166851063+166996951+167127753
2750+167343300+167421087+167285929+167245168+167392543+167469286+167396244
2737+167404867+167651048+167987464+168224915+168333335+168374327+168481153
2723+168667963+168772487+168788370+168815621+168826299+168873222+169051107
2710+169263609+169486116+169770048+169935520+169883036+169827047+169876113
2696+169921071+169977556+170187703+170471653+170631034+170763394+170976409
2683+171086919+171049168+171013293+170963200+170877055+170899207+170998224
2669+170958508+170807148+170745740+170751442+170645607+170422339+170200647
2656+170045303+169949101+169880097+169878255+169959672+170005923+169891429
2642+169648454+169452331+169352569+169242963+169101554+168952851+168789468
2629+168664120+168587431+168399648+168020116+167660734+167573863+167701017
2615+167708862+167421370+167108417+167039111+166973046+166636914+166240914
2602+166106766+166197886+166237373+166164862+166147456+166226926+166234469
2588+166050351+165855893+165744515+165544497+165384107+165459733+165555564
2575+165527286+165437936+165276536+165094331+164945238+164769797+164505466
2561+164179339+163927084+163725649+163426312+163128976+162970551+162841059
2548+162688088+162636402+162657491+162571470+162357073+162171982+162111477
2534+162110893+162070538+161958807+161836770+161729324+161575149+161393935
2521+161267667+161262089+161353121+161370544+161237635+161089658+161048400
2507+161047002+160965620+160869436+160870675+160908657+160908232+160874836
2494+160874765+161016829+161247711+161453342+161645180+161831193+162046244
2480+162303386+162493028+162568070+162574303+162518225+162434453+162420571
2467+162477977+162602723+162831551+163040281+163118440+163099918+163046355
2453+163040405+163161645+163427357+163682550+163813511+163984420+164267785
2440+164534099+164744494+164909470+165023202+165123406+165201229+165197492
2426+165185381+165310074+165546037+165801266+166037744+166186199+166253026
2413+166301702+166391884+166649610+167009346+167246142+167367771+167505107
2399+167698556+167925454+168122338+168269643+168400002+168499303+168450963
2386+168007491+166875640+164795897+161679195+157789051+153553089+149233443
2372+144821747+140336956+136090812+132309504+129229173+127271874+126642274
2359+127703907+130956484+136035070+142401011+148660975+151566254+149508362
2345+144836408+141762912+141202290+141723212+142756231+144021867+144989406
2332+145683317+146925350+148955566+150998390+152661451+154481078+156804718
2318+159352174+161698266+163567986+165110657+166585918+168038903+169557971
2305+171130885+172472139+173427929+174199070+174976036+175692622+176303744
2291+176881808+177394639+177818598+178277210+178734547+178979895+179009183
2278+178987474+179022941+179110219+179214230+179410194+179678437+179871461
2264+180019970+180181795+180309622+180428949+180590101+180815157+181077239
2251+181245119+181262862+181265270+181394673+181598534+181745697+181847565
2237+181959899+182076765+182195473+182302140+182351029+182389843+182521441
2224+182683089+182808826+182944551+183038805+183052847+183063896+183134370
2210+183270927+183419967+183533292+183595992+183622641+183708556+183879659
2197+184050691+184204335+184352100+184483397+184629108+184795005+184893350
2183+184911093+184982806+185133174+185251227+185298221+185336893+185445420
2170+185669307+185965989+186112443+186041367+186051460+186249035+186421590
2156+186499625+186575287+186668072+186767355+186904478+187062620+187196219
2143+187311758+187415043+187477177+187532954+187651219+187784234+187872592
2129+187955886+188040065+188071619+188090442+188199464+188343511+188412904
2116+188483573+188592099+188642972+188711870+188881096+189020769+189068737
2102+189097918+189129720+189119556+189075590+189070065+189139016+189294466
2089+189474051+189525100+189449757+189440531+189583640+189758142+189809634
2075+189729616+189689563+189788970+189864207+189752972+189631413+189758443
2062+190001968+190158958+190269946+190338136+190327777+190282660+190301057
2048+190442147+190582935+190547203+190399030+190405263+190595065+190758837
2035+190856296+190954376+191042698+191125992+191242929+191328915+191310889
2021+191238308+191176227+191256900+191587189+191978939+192175983+192216621
2008+192339295+192583174+192751886+192783564+192816924+192970444+193079820
1994+192816251+192491859+192770585+193432987+193906243+194136593+194304739
1981+194501960+194724643+194973162+195257147+195526187+195530118+195140493
1967+194926928+195418723+196165021+196633691+196893364+197093613+197329382
1954+197649472+197928782+198062984+198023781+197641628+197003183+197121873
1940+198369085+199530967+200000203+200193032+200487518+200898232+201216587
1927+201139774+200606509+200313918+200412157+200393140+200959145+202274245
1913+203081597+203139056+203293762+203942583+204681745+205230220+205677163
1900+205986682+205996403+205952189+206226453+206298308+206135651+206820576
1886+208047443+208908341+209509388+210014073+210464451+210919398+211209032
1873+210576395+208586356+207261587+208938690+211797773+213505721+214215702
1859+214778679+215519063+216270372+216818741+217046134+216752587+215657815
1846+214155002+214634987+217580886+219801471+220590336+221290667+221748482
1832+220736933+219401859+220052344+221664037+223449472+225725444+227361626
1819+228122160+228843739+229418916+229273506+229215640+230347154+231904929
1805+232659780+232307658+231748700+232481151+233981042+234042309+232675008
1792+233387237+237098364+239935153+240820468+241165136+241512565+242335357
1778+243635566+243483622+241048924+239371538+241785696+246009228+249236032
1765+250315682+249948740+250621217+252063773+253198952+254257478+253756228
1751+251624019+251121334+253381246+256032713+257459917+257848923+258782366
1738+259654950+258110207+257301174+261269937+265898500+269408970+271590015
1724+272449036+272272426+269627475+265376196+265670292+271529616+277079104
1711+279987624+280041666+278510291+277832431+276946531+274519412+274482333
1697+277991759+284076565+290598203+293514072+293735622+292018235+287951463
1684+288025638+295403269+301408553+303318149+303336635+304408300+305328852
1670+306080870+310689901+316061114+317996563+319600961+323641703+326626718
1657+324978442+319126412+318919771+327160939+330381598+332076691+339660326
1643+347615206+351279356+351016229+348419176+350112640+358795385+365493420
1630+368106304+369752561+371663432+374098006+378736361+382920247+384428779
1616+388255621+396148066+402611448+406799301+410950146+416101048+421583142
1603+427156959+433055699+439050695+444929179+451186557+457986514+464659123
1589+471293732+478391202+485869692+493734904+501807500+508058929+512183214
1576+519566369+529779922+536435921+542031305+550996831+561037633+569489904
1562+573510602+572704791+580432808+599992906+616628654+629656278+640664521
1549+651207283+660031825+665572495+668725336+673960665+689449069+706412893
1535+717231388+727523276+739887169+749606483+756779103+764052510+770575565
1522+777551424+787427976+798088241+809380434+820570140+828261362+831571725
1508+833115282+842974057+862140775+876328067+883442607+887058027+892542317
1495+899841506+904019372+905749631+910426835+919954134+929019563+934401436
1481+937532958+940029082+940835814+939315489+938969635+943556533+949758737
1468+952197064+951769192+953879444+957020457+954820254+947828813+948127282
1454+956313593+959764692+956710230+951685332+947974931+945666927+944670730
1441+943140418+938581851+933242192+931705931+930627573+925994354+921290873
1427+918918486+917667449+918375801+920612056+924337543+931023573+938282886
1414+942979709+944446134+944291587+944372969+946323503+950936962+955361947
1400+958313849+963079942+968923614+972295669+975159319+979068605+981330571
1387+979442860+976198792+975360188+976988950+979979808+982660297+984998970
1373+988908681+993538642+996693396+998475573+998796566+996894406+995412966
1360+996854247+998988722+999676746+998875822+996946111+994386667+992171093
1346+989874918+985947571+980759980+976114082+973576382+972732465+971574709
1333+970535803+970791634+970562080+968906261+968193235+969312744+970137608
1319+971074663+974498776+978074816+979264728+980684264+984206970+987701062
1306+989304326+990255052+991264069+991654403+992635867+994443188+996422620
1292+1000587241+1006393020+1010169574+1012521279+1016723439+1023189619
1281+1029752974+1034830428+1038358375+1040348290+1042054114+1045099934
1269+1048029597+1049585619+1051627168+1054223018+1054661727+1053138781
1258+1053187794+1056758592+1062661689+1067408588+1068123101+1066565592
1246+1065916523+1066554613+1068056594+1069965411+1071782860+1073320396
1234+1073741823+1073348444+1073196588+1072484766+1070958208+1069839762
1223+1069649588+1069689252+1069449924+1070090989+1070954029+1069616866
1211+1067669306+1067852396+1068668761+1067565826+1065386021+1064348672
1200+1064294064+1063466792+1062252444+1062717997+1063989574+1062645965
1188+1058950793+1057288457+1057376780+1055793347+1054552368+1054744454
1177+1053004845+1049797395+1048284507+1047287177+1045314473+1044162029
1165+1043191047+1041054163+1038310779+1034832978+1031489042+1030219448
1153+1031189156+1032070115+1031376850+1029934224+1028115358+1026096333
1142+1025254470+1025772152+1025222739+1023473285+1023642068+1025895606
1130+1025117134+1019433676+1015679008+1016268368+1014552204+1008815766
1119+1005108411+1005869175+1007067941+1006783070+1011446675+1023334320
1107+1026626127+1013990183+1001029280+995735163+997483909+1003533123+1007871273
1094+1010367609+1014543421+1019072948+1020073820+1019281679+1020161364
1082+1020348916+1020465358+1026305913+1035569661+1038291513+1033642995
1070+1029386368+1029327439+1030609499+1030713970+1033766307+1038747009
1059+1039538725+1039504161+1041166355+1040482510+1040030131+1044330246
1047+1048731078+1047350214+1042357683+1039670749+1040322438+1039412439
1036+1037227888+1039188339+1043706817+1044984414+1042101073+1038074567
1024+1036288849+1036632578+1035183931+1032394296+1031271883+1029929336
1013+1028736591+1031790840+1037070933+1037611776+1033145923+1030627985
1001+1033486323+1039550412+1043965410+1042562164+1039628323+1041942985
989+1045274313+1042432619+1038166785+1040319463+1046331423+1049147052
978+1048334016+1046135229+1044558241+1047049619+1051585309+1053172000
966+1054302628+1058664222+1063800675+1067377565+1069137360+1067519575
955+1062918512+1058932307+1058632420+1060913864+1061887255+1061204826
943+1061170828+1063179867+1066015753+1065828625+1063342913+1063764766
932+1067730855+1069970723+1067560868+1064547062+1064390461+1065869068
920+1066934323+1066750595+1066262802+1066164634+1064635384+1061417027
908+1060343698+1063282214+1065613875+1064864018+1065235298+1066095718
897+1064284927+1060885037+1055881174+1051635667+1051582617+1053445184
885+1055025287+1056597034+1056752147+1054031994+1049790737+1045972395
874+1042976650+1040407290+1038660740+1039051286+1040945017+1041280034
862+1038725619+1034637280+1029397772+1024608518+1024154368+1026757796
851+1027856552+1026957106+1025414612+1023677482+1022390961+1023054408
839+1026137555+1029045473+1028486568+1024051242+1018851398+1018021647
827+1023080685+1026764312+1023410461+1019232949+1018903386+1018147863
816+1015906083+1017034162+1021047919+1021957210+1018906715+1014969877
804+1011286533+1009639567+1010755889+1012010750+1011666738+1010538588
793+1009480133+1006393516+1000821116+996650474+994519045+992608244+991300404
779+990661180+988888566+985687419+983237192+981047258+979167977+980106520
766+980913039+978507646+974833864+969853870+964285082+961721035+961771535
752+960776471+957894405+954690851+952210663+949789830+945878490+941841714
739+939631524+936788342+931828251+926817659+921778382+916947836+914544285
725+913705963+912730802+912373829+911989303+910518203+909820405+910921923
712+912303921+913117736+913380012+913384616+914155297+914694511+912879966
698+909616491+907193674+907439094+910592006+913313930+914005424+914471473
685+914481389+914211888+912943499+908212112+904421675+907514313+912640071
671+910145931+903278156+907513038+918521990+923706181+925728819+928024499
658+929118581+926193097+921359222+918132648+917750743+919827281+920649666
644+919442543+919688316+921051120+921286906+921032492+922647301+923902092
631+918390392+910872202+912800497+920735722+920596899+911102818+902226925
617+899490411+904083825+912045469+916060431+916539512+917335761+920378111
604+926160233+929656379+929461247
##END=
