##TITLE=Sample description
##JCAMP-DX=4.24
##DATA TYPE=INFRARED SPECTRUM
##DATE=12/9/2023
##SAMPLING PROCEDURE=Instrument type and / or accessory
##ORIGIN=Default
##XUNITS=1/CM
##YUNITS=ABSORBANCE
##RESOLUTION=4
##FIRSTX=4397.6552
##LASTX=599.8556
##DELTAX=-1.9287962
##MAXY=1.7967891
##MINY=0.17683367
##XFACTOR=1
##YFACTOR=1.6733902e-009
##NPOINTS=1970
##FIRSTY=0.20202249
##XYDATA=(X++(Y..Y))
4398+120726470+120716817+120823238+120866756+120535454+120306405+120255408
4384+119668004+118587544+118166802+118946486+120200038+121135280+121396421
4371+121267328+121293838+121598212+122099533+122476686+122812146+123319175
4357+123292131+122540275+121486208+120624493+120827379+121435370+121422004
4344+121621988+122390799+122908532+122318893+120738002+119945183+120647663
4330+121256295+120916427+120589755+120716052+120711074+120710780+121329555
4317+122305358+122713143+122168278+121304898+121177470+121889505+122277210
4303+121976273+121826005+122315224+122990963+122988274+122500613+122347985
4290+122493427+122615636+123133377+124421177+125247210+124696904+124025351
4276+123888083+123610442+123366353+123608180+124036428+124237560+123782758
4263+123013991+122895513+123051168+123027838+123310547+123663452+123581483
4249+123190092+123028702+123081373+122629688+122235482+122772244+123271463
4236+123207020+123602374+124192493+123857789+123127634+122888407+123189566
4222+123896605+124759985+125340692+125226685+124665844+124209492+124104220
4209+124455059+124931011+124999266+124668542+124721918+125630525+126497236
4195+126562980+126365525+126254411+125863697+125491477+125552493+125401200
4182+124812452+124710235+125372785+125811791+125455422+124713511+124095734
4168+124208718+125145215+126067349+126355783+126093404+125804480+125845932
4155+125904970+125677542+125257584+124848837+124690697+124702060+124670742
4141+124814981+125205082+125365759+125059845+124646058+124504668+124703431
4128+125081483+125534478+126189754+126889669+126911708+125949102+125035152
4114+125289267+126149353+126123004+125091003+124452432+124640911+124800600
4101+124691650+124780805+125177842+125377425+125415591+125792975+126109673
4087+125854320+125360799+125248911+125675761+126232140+126487467+126449818
4074+126346923+125910073+125197860+125134547+125710686+125881150+125502136
4060+125384219+125578040+125594853+125685779+126121543+126523407+126404893
4047+126034793+126028052+126142487+126231669+126332880+125955834+125435555
4033+125543588+126245631+126944558+126863890+126226985+125924596+125879271
4020+125696919+125475644+125535930+125997509+126393691+126521011+126906259
4006+127444214+127333697+126714850+126221606+125722859+125336026+125587230
3993+126116913+126425009+126700959+126947586+126937265+126623924+126139727
3979+125870197+126019210+126423629+126663461+126442186+126307386+126815065
3966+127189039+126659151+126235186+126566052+126785492+126546506+125871729
3952+124873317+124411533+124996007+125234699+124469325+124796370+126179211
3939+126295275+124976532+123184963+122531842+124103241+125395902+124245192
3925+122945593+123445098+123513700+122505377+122982708+125273497+126833168
3912+126989518+126270921+123328632+118200970+114931876+115728657+119067974
3898+123289594+124916549+122237512+119938407+121722799+122026692+119887231
3885+120092272+120292532+120526318+123255025+122844355+119001001+116164875
3871+115152776+117470947+119693392+119049105+120260074+123588233+124059750
3858+119045703+109231903+105673903+115994910+124677794+126430574+123698955
3844+119814247+116399943+113544343+113947649+117762347+120489256+122043504
3831+123853951+124553929+123821787+120851921+115039401+113918370+118404025
3817+121198316+124953121+128705094+127873166+123224802+119914043+119693463
3804+117454571+116805627+121129705+123758056+125915879+129384911+131102838
3790+130852338+129635046+128228030+127848357+127239493+126237804+127953620
3777+130905927+131288814+128865273+126594547+127325584+129312168+131170425
3763+131417070+128621594+127220962+129190698+128660089+123226868+120117954
3750+126183342+131139321+132880525+141765094+152071773+154629473+152158452
3736+150937874+155707289+164867843+172130452+173778049+172162972+171292673
3723+171985803+173605920+174843630+174596736+173055694+173498956+182723803
3709+198693517+213318041+223956716+233070841+244608116+255653419+261263052
3696+261788576+258044546+250057801+243100609+243186611+244406529+240764441
3682+232953637+222971848+211356194+202111223+201256667+200785284+198197396
3669+201099747+205581306+206525248+205808663+204658273+202128569+200019509
3655+199963997+196375106+188284905+186917666+196621287+206063304+210802834
3642+212906035+214534237+215886534+216647447+216391345+213439270+209842561
3628+213704900+220293257+220530765+214537175+207344540+205025363+205096512
3615+203323501+202595179+204591024+208145632+212861065+216359769+217126416
3601+217097262+217554807+217549464+217576286+218371072+217381948+213257755
3588+210810225+212990434+215120367+215051284+214083406+213375174+213276509
3574+213338486+212259263+208875218+205247056+206006313+209506762+211472562
3561+212363431+213099749+212872802+211506756+210308779+210146303+209739853
3547+208800898+209256858+211215802+212630752+212573958+211970054+211830516
3534+211780044+211059434+210077629+209697680+209605712+209289913+209287758
3520+209795063+210315850+210545913+210026872+208920792+208507664+208889608
3507+208558368+207454746+207455921+208690123+209356877+209377643+209630307
3493+209697805+208994809+208054482+207611648+207552004+207603402+207841355
3480+208062390+207886734+207344451+206900156+206935188+207305591+207598059
3466+207440195+206890611+206674367+207105643+207659538+207938809+207825719
3453+207332359+206467206+205543300+205460575+206138727+206778642+207448976
3439+208149461+208586418+208714041+208469908+208007091+207720892+207824205
3426+208058846+208003885+207961374+208578599+209421650+209647867+209569291
3412+209741331+209890789+209783024+209608169+209688526+210361585+211281091
3399+211831674+212165514+212507172+212859391+213102385+212945144+212711732
3385+213004325+213858151+214719136+215197892+215665357+216183704+216306251
3372+216077683+215971040+216440375+217289534+217819885+218181062+218942955
3358+219685951+219905774+220012899+220495769+221314545+222034728+222445986
3345+222895071+223536197+224113084+224559267+225075530+225796158+226572974
3331+227146050+227485518+227755083+228089921+228344757+228235478+228118523
3318+228495889+228857387+228733522+228438738+228042333+227653747+227668689
3304+227986376+228319735+228836372+229914348+231218631+231977050+232481506
3291+233629010+235289003+236555422+237050171+237350814+238174862+239246640
3277+240051578+240876855+241885285+242908853+243482285+242979753+242160104
3264+242057592+242159997+241896487+241542754+241450821+241502433+241219796
3250+240689196+240431171+240572704+241032297+241301292+240729303+239660142
3237+238874439+238682095+238767617+238710466+238744518+238750092+238214203
3223+237638723+237624244+237809499+237692401+237389906+237096761+236605360
3210+235837359+234883871+234019805+233502474+232898694+232035982+231523512
3196+231425488+231187749+230624682+229967011+229371549+228626611+227593105
3183+226592066+225743192+224873338+224152141+223728327+223318689+222763370
3169+222353750+222327962+222247534+221644360+221020153+220882753+221079691
3156+221246566+220827917+219886415+219089438+218587369+218266548+218269647
3142+218515579+218587423+218270021+217267094+215884753+215233012+214980900
3129+214214039+213446554+213223329+213125039+212531001+211393541+210210114
3115+209271979+208432526+207582921+206762328+206096162+205340272+203815062
3102+201763349+200249003+199672312+199266753+198149061+196743461+195967267
3088+195954587+195951399+195239409+194147096+193414322+193207143+192826357
3075+191931588+191343730+191494310+191790768+191713777+191415432+190991012
3061+190518365+190468783+190678170+190715908+190807556+191031422+191029356
3047+190665561+190230206+189893161+189466479+188911320+188499118+188231280
3034+187669888+186838289+186451733+186627495+186608724+186051552+185759369
3020+187087355+189785769+191296286+190099146+187564046+185488842+184263206
3007+183525393+183048471+182595253+182088322+181688872+181253749+180752767
2993+180610557+181043205+181863299+182666955+182969396+182753562+182635895
2980+182926012+183213405+183284501+183286584+183209291+182985656+182575378
2966+182143461+181870797+181691739+181660982+181522210+180876169+180109575
2953+179686224+179645707+179839261+179833705+179592795+179551477+179764639
2939+180024570+179954365+179356427+178719255+178387712+178391327+178615674
2926+178569922+178101637+177371891+176469232+175735835+175425254+175361389
2912+175223009+175030612+175039624+175037166+174776167+174603682+174765393
2899+175052892+175179589+174955492+174617466+174576309+174712106+174903648
2885+175286892+175613501+175584347+175314995+175206909+175462957+175735959
2872+175900110+176163086+176349730+176247717+175940538+175641070+175445468
2858+175147265+174706710+174345194+174026742+173585653+173109122+172899736
2845+173048517+173221910+173167841+173025168+173062693+173321590+173624068
2831+173903820+174138318+174226565+174129378+173940223+173780222+173669589
2818+173695591+173862947+173919386+173758138+173540060+173500754+173722323
2804+174086991+174541901+175007353+175242724+175257506+175294247+175360125
2791+175438932+175550046+175509101+175317132+175152394+174964218+174743184
2777+174755651+174982883+174976756+174713674+174586335+174586798+174562666
2764+174634207+174720691+174703184+174869204+175202884+175290026+175181691
2750+175190524+175341336+175528817+175636956+175616564+175571738+175497881
2737+175365841+175388460+175609547+175788480+175858169+175863102+175810101
2723+175803707+175887198+176027252+176186523+176230424+176247165+176446329
2710+176688378+176813544+176882948+176915361+176840294+176698761+176706562
2696+176914061+177109022+177239709+177394295+177451696+177323859+177202184
2683+177253315+177424803+177542418+177495703+177377376+177238729+176982200
2669+176763161+176783036+176811585+176621147+176333434+176164154+176155659
2656+176117511+175950173+175789940+175765310+175840217+175856423+175760554
2642+175594623+175337311+175055421+174908368+174909792+174921564+174830789
2629+174603985+174262932+173957267+173826527+173771673+173634308+173429053
2615+173223015+173003387+172819254+172687107+172437453+172121227+172001796
2602+172039570+171963559+171765143+171782650+172012143+171996934+171730414
2588+171582595+171549665+171402042+171101702+170810124+170685368+170709998
2575+170765902+170726864+170565082+170454378+170429587+170265899+169907251
2561+169504808+169167282+168886247+168608276+168432763+168481222+168575756
2548+168497447+168313189+168153349+168053473+168027026+168032226+167975716
2534+167875413+167814896+167722375+167554236+167412810+167309461+167207875
2521+167125310+167103957+167139540+167102016+166952682+166842602+166844454
2507+166877259+166879788+166877170+166921195+166990332+167002781+166993395
2494+167055996+167190351+167384902+167632526+167871085+168065904+168317286
2480+168614456+168681420+168526940+168480136+168566441+168595417+168526797
2467+168499175+168633922+168859284+169104236+169298307+169259197+168998394
2453+168765997+168793833+169131948+169567124+169873840+170086878+170327645
2440+170611316+170895609+171053046+170984817+170821611+170751210+170851673
2426+171051639+171235879+171459264+171725071+171864378+171868812+171912909
2413+172072357+172301477+172567178+172819824+173018971+173192899+173352383
2399+173540060+174031942+175436082+178851669+186087563+199305506+220068393
2386+248329777+282009038+318299357+355896024+395224884+437021719+481430609
2372+527630072+573851796+617495481+656662238+687741109+705495447+711137085
2359+705730106+683920962+647275752+603788541+562623410+539396946+544809838
2345+572648298+592314882+587093123+573871778+563804931+558794500+560025603
2332+564073072+563562615+558102101+552209812+545656611+535388409+520944439
2318+502109417+481914815+470565361+471247181+471213664+457504836+431354757
2305+403408763+382990116+369836697+358091193+345267571+330883548+313929143
2291+296009978+279972961+266057899+253606158+243289675+235673956+230185926
2278+225783940+221832162+218221721+214974916+212130785+209675668+207515102
2264+205607148+203926781+202368535+200873174+199459345+198167120+197008769
2251+195862333+194692513+193633896+192790560+192133851+191499511+190864102
2237+190323243+189853606+189478608+189264448+189106442+188874668+188610464
2224+188425529+188397675+188465619+188448468+188367345+188435752+188649609
2210+188779352+188770233+188773421+188858925+188963164+189043307+189147902
2197+189317342+189537807+189725181+189791005+189810115+189885182+190020071
2183+190239396+190528890+190766202+190892953+190969748+191049481+191130265
2170+191197763+191311460+191499030+191634578+191642753+191566368+191512583
2156+191603536+191766066+191867670+191949024+192056753+192157039+192257075
2143+192409899+192549633+192622011+192793267+193103349+193393716+193634163
2129+193842339+194028894+194242217+194463910+194637054+194755559+194915898
2116+195238304+195632056+195898273+196085612+196372719+196748180+197118494
2102+197475433+197860440+198357237+199001408+199716177+200438194+201169774
2089+201937918+202783177+203806104+205106183+206651927+208349088+210053782
2075+211697532+213474569+215502310+217613240+219709406+222007087+224716685
2062+227660354+230610399+233635689+236791630+239944507+243072416+246211972
2048+249197565+251903405+254324827+256558571+258769858+260826416+262507209
2035+263816015+264767989+265377806+265730168+265837470+265592999+264989148
2021+264129036+263030739+261801043+260589905+259298677+257865240+256383379
2008+254864723+253286138+251659040+250110375+248791899+247631019+246361946
1994+244757751+243271598+242650490+242613767+242542511+242321833+241964680
1981+241572371+241352103+241383928+241488916+241560688+241549985+241290696
1967+241197605+241850254+242837953+243662055+244487563+245419020+246373291
1954+247320688+248240017+249109247+249810516+250118283+250195505+251122136
1940+253255791+255294450+256616167+257671027+258726278+259657094+260303438
1927+260508230+260189635+260002582+260172396+260163740+260787983+262296469
1913+263124079+262896669+262738823+263346004+264260435+264879869+265197092
1900+265367334+265314885+265260655+265617433+265711824+265435705+266277330
1886+268010716+269340501+270269839+271007902+271521156+271847801+271948710
1873+271072462+268534655+266474286+267833083+270764464+272353022+272511937
1859+272260074+272114695+271981800+271650008+270899389+269410902+266880504
1846+263679416+262510949+264431282+265851094+265421030+264624569+263601784
1832+260858277+257517900+256680905+257280179+257906095+259112638+259835635
1819+259488153+258892245+258132757+256644698+255237815+255268875+255965923
1805+255795664+254281158+252390941+252008837+252789786+252075588+249498101
1792+249201946+252845370+255820864+256381883+256124036+255826973+256020260
1778+256779338+256007526+252580666+249824158+251935444+256475650+260032288
1765+261136195+260241123+260341088+261653705+262769544+263733771+262761191
1751+259643630+258519723+261027753+264033381+265442739+265556168+266267553
1738+267013167+264831658+263175174+267450677+272907380+276995045+279515701
1724+280391913+279872070+276379209+270775167+270298174+276719567+283250363
1711+286757615+286671435+284538083+283529332+282349948+279056251+278536461
1697+282511445+289473963+297121739+300629508+300772198+298655569+293612136
1684+292952488+301318808+308684624+311126028+311059776+312305946+313455303
1670+314145387+319476533+326235149+329055326+331302713+336377223+340297247
1657+338608012+331491352+330999880+341488955+346299563+348857549+358272317
1643+368521925+373748707+374135316+371397989+373291286+383867165+392650620
1630+396292922+398141304+400054014+402542720+407219436+410859850+410701844
1616+412474998+418961092+423983456+426344218+428595096+432037610+436050742
1603+440151141+444729157+449721244+454352439+458893980+464174333+469910254
1589+475780210+481982349+488801447+496437077+504082929+509204990+511637525
1576+517631863+527559439+534170735+539824162+549431736+559589340+567236689
1562+570385274+568381273+574962470+595337020+613373639+627547332+639668297
1549+651145695+660093710+664724050+666306464+670286399+687148764+706753941
1535+718534031+729087897+742936032+753966126+760607377+766227144+771500409
1522+778649517+790029391+802324889+814973016+827174764+835469953+838423417
1508+838095009+846462575+866980741+882569438+889110956+891057540+896511108
1495+906237614+912403494+913842220+916990877+925660707+934840104+940515579
1481+943713248+946948530+949442223+948605531+947105753+951963485+960538925
1468+963470946+960333189+959427253+961356383+957854242+947052324+943320726
1454+951835969+958754408+960551890+960450732+960592069+958807053+953983729
1441+947780094+939907490+931096181+925965749+923428102+919652977+916288967
1427+916039277+918306219+920877561+920722832+919825159+924953810+934025923
1414+941009687+945298796+948480151+950728714+951694205+953297634+956211205
1400+957911162+958633731+960674990+965104011+971055534+974691104+975171890
1387+976011860+979148264+982820379+984855796+984874176+985302744+988517439
1373+991969286+992832977+993761211+995175075+994089690+992030123+993206479
1360+995689415+995001539+992566547+991701501+991591082+990985059+990548511
1346+989450659+987156932+983494719+977864908+973003044+970454284+967900893
1333+965880008+966876702+969272584+968596107+965672420+965468893+969232264
1319+974543926+977979886+978666693+980053558+983240399+985644545+987379195
1306+989920190+993334922+997656088+1001417464+1002794783+1001909720+999725486
1292+999170612+1002613696+1007977219+1013292372+1018754774+1023612791
1281+1028434904+1034236970+1038369141+1039833513+1042753353+1048385230
1269+1052729264+1054915707+1057185783+1058224079+1056761203+1055675462
1258+1057533211+1060452552+1062097727+1063897346+1066146835+1066985379
1246+1066905735+1067715001+1069112908+1069890330+1071116981+1073153609
1234+1073741823+1072420283+1071536574+1071735257+1070553344+1067745989
1223+1065836165+1065450837+1066084715+1067650174+1068165725+1065370979
1211+1062414808+1063533034+1066279765+1066736473+1065728239+1064378204
1200+1062559564+1061340893+1061191577+1060959840+1059691942+1058119430
1188+1056905888+1055160267+1052796228+1051168578+1050939547+1050709020
1177+1049711685+1049247782+1049346091+1048247741+1044027519+1038461608
1165+1035640576+1034729724+1033613920+1033114968+1033366012+1033888116
1153+1034094707+1033528007+1032568500+1031719341+1031327459+1029764921
1142+1026808251+1024771409+1021965978+1017978278+1016698198+1017920717
1130+1018607026+1017553270+1014372343+1009547309+1006461769+1008458576
1119+1013416184+1016366015+1014995677+1011838258+1010398890+1008363615
1107+1004969757+1006456426+1012465439+1015357496+1014209920+1012578993
1096+1011608159+1011183579+1010726230+1010797610+1012835379+1017348176
1084+1022662117+1024672032+1022335775+1020017969+1020242370+1021695985
1072+1024418922+1029110242+1033782755+1036115877+1035823088+1035806846
1061+1040062116+1045763950+1046873627+1045711091+1045793514+1045667208
1049+1045193831+1046153267+1048466014+1048572801+1044277565+1038035461
1038+1033957360+1035961717+1041861166+1043918667+1040230737+1035796089
1026+1033980441+1034171715+1036200294+1038615198+1036941243+1032102389
1015+1027894420+1024748470+1024684213+1028688512+1031562047+1029616033
1003+1027928187+1031998666+1037734052+1038558421+1036348113+1035749926
991+1036215824+1036182912+1037184877+1039892997+1042533512+1042579674
980+1041309568+1045028344+1053355020+1058391133+1058179270+1056475182
968+1055472219+1055659362+1057343433+1059297710+1059764961+1059777001
957+1059932371+1060387868+1062464818+1065156980+1066691522+1065277016
945+1059842896+1054630754+1054917986+1060168383+1064677404+1064784048
934+1064084062+1065002108+1063431662+1059099953+1056868274+1057726837
922+1059787116+1061358203+1061936088+1063086015+1063639820+1060175507
910+1054912857+1053223657+1056255982+1061575765+1065615825+1065791214
899+1062992194+1059869539+1058660342+1057912555+1053832031+1048803256
887+1046563599+1046034085+1046687197+1048277447+1048916311+1047461129
876+1044478314+1040851364+1036942169+1034434941+1034027031+1033662220
864+1032588162+1032060999+1031889743+1030534578+1028101367+1026207998
853+1026225309+1026995608+1026653094+1026802837+1027435788+1025286532
841+1021062820+1019005675+1020930459+1023912205+1024296321+1022899554
829+1021124726+1018443890+1017826825+1022024820+1026134765+1023586433
818+1017043775+1013940924+1014293126+1015322945+1017127124+1017320250
806+1014358736+1010138443+1006660880+1004657235+1003352507+1004194970
795+1009484263+1014960272+1012625725+1003821326+996813696+994418383+993740694
781+992055697+989891410+987229809+983498709+981034366+979827377+978220600
768+976655141+974628414+971748183+969353226+969002022+969869632+968668556
754+965574895+963627813+962247929+958398502+951525727+944545951+940849402
741+939818727+937385373+933502037+932366999+933747381+932607713+927067163
727+920887677+917506143+916531319+915020001+910122304+904321663+902185657
714+902739178+903510474+905506639+909822249+914853019+918546220+919394311
700+916270018+913180560+915595463+920040156+921715892+922346065+922846585
687+924396229+927279595+928142717+927501858+927552010+927141606+925392068
673+926424452+933298296+937229290+928369753+920606001+918208053+915817584
660+917320496+925537964+931712747+929427426+926053657+926956458+925033668
646+918227857+915190047+916858801+916354720+912479149+909581820+908496649
633+905442525+897177328+887234471+885397452+890827512+893248755+890661598
619+882904329+873815618+872171512+877251650+886977301+896962972+896181917
606+889081321+885848247+879071002+868653485
##END=
