##TITLE=Sample description
##JCAMP-DX=4.24
##DATA TYPE=INFRARED SPECTRUM
##DATE=12/9/2023
##SAMPLING PROCEDURE=Instrument type and / or accessory
##ORIGIN=Default
##XUNITS=1/CM
##YUNITS=ABSORBANCE
##RESOLUTION=4
##FIRSTX=4397.6552
##LASTX=599.8556
##DELTAX=-1.9287962
##MAXY=1.8518308
##MINY=0.24186565
##XFACTOR=1
##YFACTOR=1.7246519e-009
##NPOINTS=1970
##FIRSTY=0.25392556
##XYDATA=(X++(Y..Y))
4398+147232938+147199726+147905795+147942221+147516575+148315577+149655622
4384+149756659+148982092+148207386+147554022+147422087+148085578+149112056
4371+149690286+149337200+148629766+148901721+150314533+151296705+151050928
4357+150270382+149700084+149427108+148805955+147827982+147126786+146904494
4344+147650756+149241536+150258597+150118610+149638324+149635145+149927215
4330+149823482+149352233+149216964+149544199+149711869+149976567+150759671
4317+150977781+150151062+149358264+149088054+149024912+149159715+149541382
4303+150041298+150600416+150953313+150758565+150219094+149994400+150195230
4290+150243546+150094193+150491033+151848271+153289630+153645118+152896851
4276+151840305+151288030+151138885+150557527+149303244+148128761+148068384
4263+149033846+150129116+151014398+151366672+150839194+150182961+150451962
4249+151609096+152639791+152330371+151086007+150690740+151098259+151076382
4236+150794888+150818130+151029916+151451518+152051348+152051452+151255595
4222+150894232+151759520+152960459+153489181+153390287+152977342+152778481
4209+153091616+153231776+152822339+152319865+151927501+151890953+152557606
4195+152948000+152320539+151632977+151288514+151315039+151934258+152371101
4182+152222163+152255514+152785497+153142437+152867371+152235071+151702184
4168+151655390+151971928+152157552+152138665+152128418+152259419+152692236
4155+153150593+152942833+152396399+152252628+152296986+152322146+152347168
4141+152364431+152449380+152315614+152099473+152194998+152164395+151657498
4128+150924835+150713412+151588049+152580295+152607045+152092285+151848565
4114+152044350+152276008+152247115+152147564+152172932+152286117+152322267
4101+152146597+151966969+151907853+151807369+151968524+152549156+152923739
4087+152762463+152513611+152553476+152636041+152809102+153291531+153350473
4074+152731428+152218430+152202515+152749416+153322220+153098511+152434606
4060+151993442+151915785+152136159+152463481+153114892+153625280+152928387
4047+151845627+151700629+152387984+153192999+153031135+151663667+150669226
4033+151268901+152460215+152895935+153080505+153673924+153913099+153061013
4020+151772670+151161746+151325286+151716855+151805624+151587617+151818204
4006+152661857+153161342+152820092+152371153+152480588+152983943+153372938
3993+153327681+153114858+153295177+153876707+154116850+153683826+153100135
3979+152803762+152802708+152745805+152682749+153088367+153475115+153419715
3966+153684240+154282049+154374861+153898428+153122824+152452214+152334519
3952+152344196+152278842+152831964+153499550+153514860+153767617+154197704
3939+153721686+152724222+152103776+152330838+153280609+153933628+153564920
3925+152923099+152773142+152397436+151936729+152618484+153959099+154295821
3912+153719440+153217796+151953404+149431999+148057826+149263085+151689276
3898+153798601+153486192+150463972+148658693+150236737+150819547+149961619
3885+150423294+150246846+150129669+151823094+151344795+149072726+148068280
3871+147841512+149056016+150137290+149681732+150661588+152765487+152811850
3858+149229699+142297075+140240274+148344089+154407416+154975624+152338942
3844+149235523+147091604+145611745+146407792+149360804+150847782+151243447
3831+152071445+152445838+152183542+150358908+146275719+145436748+148315387
3817+149825659+152815185+156340880+156094931+152783959+150354537+149711782
3804+147525475+147357615+151622696+154187751+155328814+156815999+157370728
3790+157380388+157333628+157154380+157396234+156920130+155550311+156237752
3777+158358395+158692404+156897441+155350794+156179172+157922779+159339858
3763+159461044+157804617+157700313+159845114+159754030+156263068+154978734
3750+160388524+164842339+166965885+173320591+180089866+182071749+181579713
3736+182112167+185363160+191288280+196957463+199332816+199425161+199724316
3723+201006455+203308073+205728838+207090656+207371874+209374096+217892334
3709+230798826+242757430+252205567+261240431+273316886+285791460+294423471
3696+299076406+299643092+295832567+291524269+291267865+291156512+287322295
3682+280681067+272541178+263196100+255614915+254192911+253177077+250115700
3669+250410293+252284935+252512861+252108902+251388923+249699939+248360188
3655+248691812+247621252+244228199+244135457+250059782+256109993+259155299
3642+260219846+261137061+262250113+263240562+263831372+262829795+261303055
3628+263997919+267837509+267889609+264512609+260745233+260177941+260495119
3615+259196633+258880959+260832049+263897348+267152747+269450270+270466535
3601+270978167+271244524+271253683+271859181+272772405+272320631+270548616
3588+269689842+270499489+271034121+270591074+269897015+269731332+270302218
3574+271183698+271373279+270337072+269547004+270795706+272225193+272220942
3561+271975494+272149039+272386676+272483428+272303057+272345739+273012824
3547+273756961+274030248+273882675+273627947+273530228+273573860+273376641
3534+272742994+271980402+271605490+272036217+272787629+272658667+271676529
3520+271081987+271210863+271320989+271010464+270670459+270707318+270941205
3507+270902083+270737696+270972171+271110741+270565344+269919704+269705671
3493+269706293+269566324+269357441+269443012+269818943+270181689+270121536
3480+269331918+268310848+267867542+267990923+268257522+268435922+268153011
3466+267512814+267237005+267418983+267566296+267473035+267310394+267276352
3453+267156566+266485299+265533109+265157524+265351165+265552601+265766944
3439+266029102+266051013+266019391+266459534+267034222+266911792+266015243
3426+264934523+264079896+263654665+264071584+265000084+265420321+265309382
3412+265301001+265439294+265473129+265404026+265411076+265721756+266034027
3399+265872302+265818215+266230209+266343394+265888839+265505685+265790324
3385+266443153+266661540+266440077+266295528+266255092+265949492+265585226
3372+265909661+266684263+266991661+267070026+267535745+267923426+268106614
3358+268657454+269077173+268996958+269274012+270043966+270489017+270308905
3345+270102787+270239940+270393077+270313398+270136155+270531336+271482214
3331+271921735+271618416+271079049+270633549+270501804+270759521+271297091
3318+271761254+271799478+271530633+271411797+271593187+271776668+271679398
3304+271271948+270576386+270182985+270923407+272398530+273834152+275000617
3291+275793104+276282687+276730140+277390140+278119053+278852269+279670815
3277+280288167+280988067+282413631+283916714+284260037+283428082+282397405
3264+282179260+282794348+283085675+282605510+282175009+282253685+282620492
3250+282859028+282473490+282098164+282430894+282287935+281153283+280013636
3237+279469967+279619527+279673804+278790648+277837420+277723630+277722542
3223+277489103+277575021+277486598+276604167+276084310+276474946+276071955
3210+274540169+273530107+273554541+273889639+273805778+272970678+271809639
3196+271270808+271405075+271173434+270058153+268948176+268761239+268860220
3183+268105801+266425354+265023948+264774473+264636266+263371650+261999378
3169+262237291+263122832+262601955+260832377+259658481+259929383+260192353
3156+259351792+258699102+259651759+260750296+259700628+257635126+257502777
3142+259427912+259775434+256953750+254290492+254461410+255662522+254615170
3129+252120773+251687179+254132776+255532195+252488116+248286021+247880611
3115+250691459+251017934+247096124+243931844+244667306+246603933+244846692
3102+240209154+237997444+239910639+242002925+239448756+234599035+233529684
3088+237336028+239797177+235844418+230490858+229412142+231562196+232189951
3075+229445130+227136634+228168676+231051238+231418615+228515594+226470828
3061+227129376+228990021+228961509+226600723+224854974+224984282+225966592
3047+225902430+224399209+222946964+222347168+222270513+222088449+221622731
3034+221041580+220660829+220790551+220867275+220269484+219720060+222014317
3020+232808824+251718058+263273844+257227970+244369914+234520686+227987476
3007+223477120+220499432+218597711+217500039+216703007+215570169+214487098
2993+214397501+215884963+217854577+218133617+216909989+216255709+217527704
2980+219608879+219433693+217139850+215649468+215960218+217502199+218233376
2966+216670918+214623439+214378147+216783032+218995899+217147436+213528756
2953+211972191+213355833+216178864+216377707+213523641+211487809+212182162
2939+214831666+216098338+213963820+211290642+210717769+212476841+214540356
2926+213625560+210652709+208927195+209409313+210994805+210844381+208310517
2912+206401591+206766998+208577012+209663608+208576960+206895839+206397582
2899+207199660+208466108+208366056+206841303+205968152+206445362+207585872
2885+208202447+207534740+206677936+206754228+207508595+208119674+207774433
2872+206687924+206043200+206447781+207407091+207885770+207388498+206440489
2858+205751683+205635992+205775322+205397663+204424391+203594198+203395822
2845+203683071+204001925+204005243+203756425+203753608+204247632+204756637
2831+204892978+204886723+204960233+204993549+204805920+204467626+204197623
2818+204056375+203962319+203834359+203715367+203673083+203710598+203887202
2804+204113054+204268835+204402981+204462407+204540030+204798110+205042210
2791+205110709+204998854+204676647+204310756+204124580+204072549+204006694
2777+203910944+203846472+203817424+203774967+203664581+203477194+203403028
2764+203589706+203788601+203771632+203638384+203512100+203449252+203459897
2750+203492142+203628240+203985543+204318377+204321228+204154613+204032372
2737+203865947+203656787+203609682+203820241+204115905+204277250+204330957
2723+204402773+204492319+204556947+204560438+204494497+204492389+204627572
2710+204740532+204780657+204833638+204837923+204731719+204563790+204379791
2696+204317928+204532790+204814595+204826950+204669511+204663255+204843833
2683+204971499+204958833+204931409+204816790+204458105+203974069+203630936
2669+203584712+203765704+204023024+204273500+204362787+204221418+203972393
2656+203623402+203283172+203206465+203327081+203378611+203173046+202819389
2642+202661863+202760896+202924090+202937689+202654450+202274527+202107894
2629+202068789+201919644+201656415+201378895+201217636+201232877+201247392
2615+201113782+200910740+200731769+200562872+200368228+200115384+199832628
2602+199666617+199633612+199577158+199500313+199478004+199389478+199181476
2588+198942698+198621736+198283994+198175354+198231704+198166040+197913870
2575+197675939+197549932+197361456+197126740+197078822+197093060+196918841
2561+196678906+196477730+196178402+195886315+195871333+196017178+195990325
2548+195775998+195560463+195368894+195244252+195250732+195205009+194992860
2534+194781091+194727384+194798769+194834262+194747447+194612488+194570446
2521+194597817+194547411+194481176+194479932+194439980+194371810+194395449
2507+194454513+194410742+194306300+194291457+194359091+194368285+194301410
2494+194257950+194306352+194418052+194520177+194691182+195003003+195299342
2480+195455019+195533384+195614325+195667410+195634612+195539260+195388041
2467+195215515+195256037+195580870+195844998+195836324+195774616+195873787
2453+196053985+196220393+196372079+196458687+196557841+196815229+197154301
2440+197420900+197581070+197633948+197634674+197726518+197861874+197878514
2426+197863809+197962859+198115581+198285100+198560201+198881492+199040521
2413+199025332+199073976+199285572+199534804+199740473+199844327+199903978
2399+200190657+200924408+202480542+205944305+212934093+224993147+243028574
2386+266554005+293594782+321735719+349446311+376708585+404628578+434595445
2372+466847410+499786505+530889337+558073781+579488057+593151231+599440739
2359+598318286+584929867+559493142+529786066+502098457+485796596+489762056
2345+509232378+519305972+510320098+497479806+487939444+483304066+485754156
2332+491847845+492768637+487604416+483924425+483928918+482066528+474001757
2318+460137441+445333704+438858192+442963794+446316360+438117218+419079487
2305+397149294+380801952+370994715+362455706+352527992+341028436+327277616
2291+312535294+299277167+287997122+278051297+269482031+262468742+256784785
2278+252055160+247873958+243990424+240492567+237540902+235008886+232680397
2264+230603611+228906662+227451928+226036196+224678923+223447675+222329975
2251+221288100+220282582+219332949+218509911+217845798+217371319+217057286
2237+216715794+216288818+215958611+215815496+215767734+215731843+215647550
2224+215481677+215391250+215522338+215763967+215973506+216128803+216283859
2210+216508035+216787110+217081461+217361832+217544760+217663769+217878320
2197+218202133+218526638+218806681+219104021+219452424+219719058+219810816
2183+219863780+219974321+220067444+220124641+220181096+220209712+220206930
2170+220256299+220379870+220495215+220562090+220544326+220438830+220304183
2156+220106687+219845825+219637271+219468841+219236854+218932584+218692493
2143+218814820+219304886+219807308+220217851+220622536+221036172+221433011
2129+221788275+222120608+222452059+222789749+223087694+223361499+223707085
2116+224097600+224384141+224565375+224813744+225115369+225376145+225629628
2102+225916393+226228421+226552943+226918869+227301349+227760829+228389535
2089+229080552+229748086+230444115+231251947+232220951+233372573+234604875
2075+235873968+237377915+239178287+241158252+243271205+245567311+248020857
2062+250591787+253368836+256428553+259842550+263474726+267150708+270869907
2048+274498213+277958468+281276439+284425633+287365064+290136358+292687088
2035+294736450+296235299+297339262+298188307+298729696+298799577+298571858
2021+298189724+297488321+296355984+294950932+293475894+291998887+290552983
2008+289037735+287357201+285608808+283907746+282258351+280671286+279223327
1994+277889226+276661313+275664401+274846270+273973759+272997445+272095816
1981+271402310+270901046+270490710+270097119+269776503+269521551+269209971
1967+269000207+269099948+269312443+269548369+269900212+270233823+270527016
1954+270987568+271609223+272163641+272531000+272736358+272999225+273803393
1940+275125587+276292536+277089793+277801979+278584737+279401900+280185730
1927+280763994+281069405+281378495+281663791+281883682+282671279+283802008
1913+284286839+284253609+284462717+285058486+285667077+286100931+286422913
1900+286734665+286976761+287115434+287311322+287327929+287227721+287792109
1886+288836663+289602106+290137809+290781808+291373067+291594323+291619897
1873+291337608+290193936+289095088+289783877+291436174+292462307+292688159
1859+292441778+292087534+291856429+291690331+291522817+291143966+289940608
1846+287998642+287300038+288396726+288987484+288606819+288366330+288067573
1832+286378226+284036587+283471974+284137866+284649239+285117671+285442400
1819+285541346+285325672+284617962+283535876+282693829+282839346+283455178
1805+283661814+283323174+282485154+281913784+282089627+281552783+279961623
1792+280042874+282425917+284335811+285077667+285166124+284893460+285014715
1778+285561547+285034622+282720475+281080740+283311510+287154487+289449574
1765+289702884+289160511+289701173+290934357+291805487+292532153+292497144
1751+291462751+291082587+292428161+294361884+295435157+295471169+296030564
1738+296959512+296269756+296165660+299485255+302942193+305297000+306872954
1724+307873200+308058237+306203415+303310399+304143443+308921348+313128661
1711+315405811+315569765+314569242+314501192+314381164+312877407+313047168
1697+316015214+321065628+326492197+329368036+330404019+329640510+326684042
1684+327474956+334516291+340042670+341831758+342098633+343452087+344761062
1670+346098826+350709009+355854844+358266745+360680443+365310671+369189004
1657+369283388+365755567+366610004+374376242+378281947+381229153+389007004
1643+396840048+400943472+401582425+400017530+401966564+409990035+416235340
1630+418632967+419896910+421326570+423013359+426166303+428839930+429250127
1616+431236140+436346585+440458166+442977100+445598748+449092630+452905126
1603+456686378+460622219+464848540+469346956+474196332+479362696+484610173
1589+490005361+495655086+501752611+508566918+515485598+520575859+523807947
1576+529781054+538263799+544135506+549834584+558734576+567964171+575722011
1562+580401419+581169696+588025165+604633645+619746835+632525333+643892039
1549+654698382+664065562+670703783+674274909+678860589+693868923+711116356
1535+722329682+732518086+744516763+754106788+761008222+767308374+773155647
1522+781325654+793233921+804979547+816368095+827653445+836799922+842381771
1508+844991081+853532336+870850134+883523637+888873240+891799606+899012360
1495+908313391+913006762+914507512+918177273+925878365+933989482+940090842
1481+944197101+947366289+950451841+952008924+952099265+955381189+961251341
1468+963600065+962227672+962984130+965924597+964946676+958476971+955495515
1454+959137420+961327927+960584740+958079112+955805038+953880577+949715289
1441+944045657+938540463+932493155+928817588+927881554+924985601+921495209
1427+920500906+920828470+921583614+921327176+921853254+928339410+937558741
1414+944150030+947013082+947791589+950546674+955061160+956310933+955150741
1400+955874504+958980585+962346283+965880153+971462624+976577700+977151471
1387+974230911+972959642+974162758+977000788+982509715+987919937+989746039
1373+989266963+989231020+991652113+995814221+998049104+997291263+995903180
1360+995689942+995828737+994447220+992553863+992816246+993896673+992424538
1346+988070482+982780875+977720405+973802915+971721412+970547326+969548600
1333+968188579+966850677+966525672+966185252+966200597+968506258+971858824
1319+973525395+974150800+976230299+979519480+982224522+984932951+990351813
1306+997471254+1000854924+999610819+998395261+999181095+1000091416+1000524043
1292+1001176957+1001978897+1004770201+1012082627+1022915513+1032636038
1281+1037617366+1040009291+1042581482+1044595869+1045742307+1047196608
1269+1049293871+1050127882+1049033493+1048200587+1049007227+1052621691
1258+1057757227+1060410497+1061317984+1062915365+1064416738+1065490322
1246+1066984852+1068546428+1068616517+1067165948+1065344615+1063963029
1234+1064669029+1067361698+1069867603+1071056481+1070779928+1070165445
1223+1069757148+1067841880+1064459455+1062737103+1063847874+1065771920
1211+1067093717+1067390936+1066929348+1066462782+1065125572+1062298186
1200+1059385920+1057618985+1057852683+1059522779+1059092571+1056099987
1188+1054374456+1054910487+1056753386+1058579903+1057184077+1052039970
1177+1047098940+1045692747+1046816098+1046666797+1044541817+1042521693
1165+1039616201+1035880844+1036043624+1040502675+1043408512+1042211824
1153+1039965537+1039109684+1038493610+1036598318+1034423087+1033145182
1142+1031733044+1029354805+1028346955+1030275633+1030884794+1026312039
1130+1020661346+1018754304+1019738584+1022002773+1023634715+1022010446
1119+1019493620+1019379363+1020077483+1018454527+1014241684+1011113692
1107+1011914733+1014937385+1016164624+1014607057+1015348723+1020992366
1096+1024837693+1023423136+1022938945+1024342927+1023640037+1023586192
1084+1027703372+1033367267+1036140324+1035080771+1033106336+1034153239
1072+1039124406+1043466989+1044205199+1044305424+1045514623+1046618620
1061+1047118294+1047508550+1048264317+1048709040+1045956028+1041480526
1049+1041867948+1045587891+1046348081+1044522048+1041432349+1038572339
1038+1037356780+1035088375+1032765571+1033358350+1034427234+1035038331
1026+1037428320+1040230201+1039776492+1036213592+1033214510+1033327108
1015+1035015176+1035609891+1036785912+1038510199+1036173571+1031378869
1003+1029426829+1030539812+1033830722+1039204379+1043101478+1043359644
991+1043404227+1043404365+1041951999+1042688689+1045032574+1043869479
980+1041486609+1043230665+1048275169+1052678163+1054523204+1055558080
968+1057869272+1059948218+1060540168+1060717117+1061234694+1062143010
957+1063529158+1066467275+1069922347+1069417903+1064925260+1062487370
945+1064105349+1065929170+1067552126+1070931718+1072621375+1070279494
934+1068077582+1068416758+1069414516+1069264593+1068116151+1067597331
922+1067598299+1067115213+1066146831+1065247639+1066423522+1068408532
910+1068541659+1069477347+1071002912+1070396654+1069814242+1069540040
899+1069254087+1071228660+1073741823+1072387401+1065379176+1056735760
887+1053304120+1057179999+1064110187+1068065071+1066780392+1060444920
876+1052083793+1047500947+1047830998+1050163065+1050849780+1048010851
864+1044391410+1042560193+1041448938+1040241191+1039751194+1038021100
853+1035456028+1035036465+1033616793+1031243185+1031927274+1034352515
841+1036858143+1037707914+1036236540+1036178340+1037887766+1038724750
829+1038149319+1034621809+1030234437+1030689251+1033122994+1030405718
818+1023683722+1020229341+1021450498+1021852366+1022558228+1025914388
806+1025807181+1022839964+1024229085+1027727011+1026323583+1019853462
795+1014620950+1014207746+1013385969+1008981662+1005437977+1003181737+999011818
781+993934827+991511867+991893345+991913597+990657880+988991309+987854479
768+987859594+987049015+983827641+979775988+976699491+974055966+970249208
754+966077078+963435005+962170094+960994281+958580237+954530796+950107273
741+947423866+947125541+946711922+945790542+946656833+948031991+946742405
727+941543416+934746838+930046417+926692746+921991358+918158818+917087307
714+915701228+915837396+922224087+931884546+938049291+936024121+930071370
700+928748053+932163449+937147541+941801305+943672474+942580020+939267061
687+935614926+934635139+936505340+941039110+947073631+947488287+940561140
673+938598939+945881643+947513032+936538794+932284134+934868214+937564754
660+939642940+941062542+940727652+936106859+931234811+932688145+935993570
646+934261057+933085796+938738909+944737556+943570521+935252733+923738109
633+920845404+935105990+952097468+949180571+931874524+921620041+923513190
619+926723505+927522472+931436575+934413814+930367000+920768542+914093686
606+917413903+925014424+928464796+927134843
##END=
