##TITLE=Sample description
##JCAMP-DX=4.24
##DATA TYPE=INFRARED SPECTRUM
##DATE=12/9/2023
##SAMPLING PROCEDURE=Instrument type and / or accessory
##ORIGIN=Default
##XUNITS=1/CM
##YUNITS=ABSORBANCE
##RESOLUTION=4
##FIRSTX=4397.6552
##LASTX=599.8556
##DELTAX=-1.9287962
##MAXY=1.6786065
##MINY=0.1529672
##XFACTOR=1
##YFACTOR=1.5633241e-009
##NPOINTS=1970
##FIRSTY=0.18623732
##XYDATA=(X++(Y..Y))
4398+119129051+119681890+118866128+117412112+116598113+117219581+118074109
4384+117871808+117332751+117493303+118343399+118744513+118167586+117866718
4371+118297742+118567756+118629875+119088598+119397683+118461058+117189280
4357+117105277+117588935+117668715+117520726+117586638+118164641+119016157
4344+119669384+119986791+119804354+118886173+117858139+117921725+118818250
4330+119462260+119772832+119814524+119180160+117842021+116835786+117346772
4317+118950197+120023345+119801580+119021857+118589632+118801598+119352264
4303+119411018+118966173+119175908+120079363+120022430+118564106+117300172
4290+117308426+118350424+119675199+120615550+121146314+121175386+120389096
4276+119563077+119482191+119577289+119337910+118835502+118423370+118655763
4263+119403335+120246511+121050854+121307343+120736117+119788531+118947834
4249+118925320+119754074+119876776+119122083+119330989+120309849+120045611
4236+118800855+118486699+118961445+119015985+119145445+120035021+120958835
4222+121193468+121143245+121561020+122393358+122823667+122342306+121896794
4209+122346186+122557866+121752827+120635586+119954125+120295275+121279053
4195+121713947+121452978+121170468+120780668+119944918+119425125+120009829
4182+121092975+121516183+121074722+120358518+119749365+119424944+119418605
4168+119788607+120546340+120997944+120731847+120331762+120110798+120075817
4155+120413916+120731999+120690784+120638045+120518689+120246101+120190969
4141+120460383+120914236+121023746+120262848+119165100+118626558+118638587
4128+118468693+117972129+117991621+118799644+119665944+120087503+120004396
4114+119675065+119578023+119718730+119654105+119418710+119528553+119807642
4101+119686532+119321448+119059116+118990545+119298448+119954306+120394557
4087+120275687+120013832+119786796+119253449+118603691+118420225+118833234
4074+119295627+119236387+119150249+119587574+119718682+118799863+117444272
4060+116804551+117382192+118588822+119423724+119237197+118374282+117798366
4047+117637432+117577135+118020512+118986704+119148295+118033866+117300829
4033+117871274+118590337+118623355+118432120+118357344+118170675+117907923
4020+117987599+118316777+118356200+118305291+118425429+118176927+117821871
4006+118185115+118723743+118768180+118667191+118331989+117354074+116462448
3993+116754834+117850847+118386606+118160314+117964961+117957240+118017147
3979+118237063+118223909+117705241+117286398+117369934+117752194+118367209
3966+118846797+118839058+118900499+118902911+118269528+117629998+117342626
3952+116854802+116329624+116500194+116348802+115429353+115955647+117642246
3939+118237873+117364025+115249680+113703245+114755375+116225919+115506913
3925+114438436+115002180+115228043+114347904+114518417+116458645+118084794
3912+118006767+116564952+113204565+108210909+105560777+107141650+110843988
3898+114946782+116275894+113387927+110873003+112288605+112548945+110834580
3885+111135678+111163891+111633033+114515595+114223582+110730294+107713734
3871+106260119+108348537+109980653+109178321+111409447+115213250+114698347
3858+108753664+99555558+97847398+108592997+116426113+117559406+114376346
3844+109999545+106345771+103621311+104954579+109958568+112571488+112866742
3831+113446003+113791376+113703722+111765781+106928617+105898924+108997352
3817+110567683+114496818+118872018+118302155+113796380+110695417+110643603
3804+108702583+108590986+113152427+115522545+117066282+119796252+121211444
3790+121118243+119991204+118819575+119026661+118761193+118017224+120439156
3777+124075639+124722442+122545875+120898423+122225295+124389347+126422662
3763+127278286+125591420+125242845+127403218+126509925+120743819+117090912
3750+121978881+125594042+126000436+132873155+140868225+141815163+138785107
3736+138486288+145470080+156595937+165256406+169572444+173110807+178573738
3723+185044077+191777948+198058700+202349612+203432472+204211804+212274358
3709+227649969+243376156+255605061+265801633+278548682+292445485+302707388
3696+307137405+303876529+293337654+282439224+278597142+277695289+274085247
3682+267668572+259789256+250599824+243967637+245407631+246868500+246290097
3669+250558685+255701732+257334801+257356361+256804704+254745243+252806321
3655+252355089+248514303+240754610+238772852+246178919+253447443+256582977
3642+257292785+257807898+258028347+257154175+255517712+252148728+248244804
3628+251523638+258205694+259832034+256694727+253052944+253661868+255914613
3615+256101721+256292374+257158102+258392535+261365229+263926611+263818960
3601+263174387+263690472+264050943+264764792+267009359+267865249+265529140
3588+264725865+268229971+271441206+272560287+273044936+273366841+273208138
3574+272833713+271719666+268720664+266138674+268535386+273300424+275633865
3561+276233085+276694173+276579335+275703008+275271926+275504195+275042689
3547+274464018+275539901+277456824+278314641+277877345+277227701+276928786
3534+276437198+275664099+275116273+274970286+275205833+275783570+276617747
3520+277136177+276606138+275564931+274942739+274587949+274292485+274219968
3507+273816853+272878970+272729208+273510217+273672238+273138728+272971447
3493+273217518+272994895+272038940+271170620+270865376+270764816+270743866
3480+270974457+271114039+270738147+270395176+270625310+270836686+270613910
3466+270191407+269660453+269196830+268983892+268925195+269034009+269424467
3453+269689391+269013955+267573541+266537748+266319339+266589620+267100577
3439+267335420+267134434+267094076+267292451+267316509+267276761+267238539
3426+266772877+265866601+265129857+264859518+265053698+265810936+266451277
3412+266057007+265219989+264847299+264817579+265213431+266031233+266263387
3399+265634008+264988673+264699862+264834736+265456756+266054414+266142926
3385+266111833+266261900+266134919+265975339+266338173+266654245+266509287
3372+266252273+266177621+266381695+266725962+267171989+267743263+268206771
3358+268476804+268643667+268748668+269058811+269829660+270508566+270531118
3345+270632211+271627437+272851900+273269294+273442180+274258419+274828778
3331+274553102+274290731+274293286+274206700+274257656+274833391+275503394
3318+275487972+274968932+274632291+274611855+274587969+274514708+274750923
3304+275040363+274761655+274351868+274716647+275515995+275721270+275599303
3291+275999215+276565819+276381704+275450150+275061104+275666787+275757777
3277+274757595+273735700+273311176+273560907+274059416+273935504+273380986
3264+273162672+272948456+272465675+272430884+272864634+272811848+272304131
3250+272092737+271949246+271493707+270969234+270643897+270891455+271720600
3237+272233749+271879322+271346594+271351684+271717283+272036805+272258093
3223+272362389+272297364+272476465+272991273+272999489+272223722+271357727
3210+270992968+271178893+271134037+270092049+268402533+266874161+266222935
3196+266482407+266626412+266092122+265320910+264675728+263793777+262282543
3183+260905114+260302958+259916942+259448764+258961941+258103286+256869653
3169+255899248+255530027+255513995+255499145+255039621+253993439+253166067
3156+253129560+253296727+252826966+251488732+250069956+249324842+248937931
3142+248514628+247998714+247206438+245955800+244632913+243754984+243017401
3129+242297833+241929337+241556818+240801201+239921252+239032210+237795984
3115+236144043+234642302+233712922+233055919+231994601+230050131+227606352
3102+225660338+224305118+222845488+221222161+219909167+219142512+218629706
3088+218039502+217302986+216229353+214921869+213821489+213091055+212497648
3075+211678512+210899008+210540234+210316296+210044756+209626390+208947751
3061+208322642+208138318+208411268+208499017+207948313+207168676+206516516
3047+206110312+205870570+205387331+204551819+203723647+203156624+202579021
3034+201685385+200715571+199934637+199231387+198595202+198081824+197319687
3020+196130472+195104955+194674427+194406337+193767941+192774298+191649041
3007+190718116+190171358+189632301+188806359+188011738+187446374+186798923
2993+186084406+185839632+186272905+186957740+187397095+187590970+187589598
2980+187357634+187269789+187603323+188032746+188005676+187382721+186540003
2966+185873507+185445800+185070441+184676381+184148419+183385120+182742263
2953+182464470+182251970+181857376+181570338+181647984+181720196+181489014
2939+181208781+181025105+180711359+180126074+179412091+178811783+178397325
2926+178036969+177528338+176703292+175585984+174392442+173481591+173002241
2912+172726279+172549923+172369163+172055417+171767731+171561560+171378704
2899+171335315+171335296+171008397+170514444+170381133+170556021+170705993
2885+170730280+170750487+170944172+171130974+171025859+170717565+170497363
2872+170414971+170159388+169749543+169647515+169834261+169890669+169745730
2858+169542819+169210162+168518293+167556162+166780337+166331355+165931748
2845+165497063+165198091+165082167+165076676+165211817+165474301+165700928
2831+165833571+165888416+165813936+165626370+165385542+165082033+164778810
2818+164615303+164525705+164335738+164118472+164002891+163886070+163756858
2804+163866701+164264784+164703967+165037673+165234712+165261306+165172432
2791+165032011+164784053+164490514+164435135+164599671+164644165+164552928
2777+164462967+164284915+164043477+163880427+163736555+163530213+163332201
2764+163180475+162972684+162689630+162540954+162665019+162899289+162981415
2750+162926169+162958138+162994340+162823989+162538838+162271607+162105202
2737+162149601+162261865+162167120+162004700+162076130+162218306+162128765
2723+161856825+161633306+161572341+161549408+161441242+161385500+161416288
2710+161389752+161408796+161484058+161394308+161241819+161231849+161261188
2696+161175784+161043102+161061842+161234499+161327357+161268718+161145911
2683+160955010+160812416+160764433+160556241+160199431+159953513+159764661
2669+159512890+159335972+159196266+158891546+158562321+158367531+158132088
2656+157748646+157412157+157261165+157199371+157174265+157145078+156976539
2642+156618518+156191430+155863120+155649219+155457269+155221092+154934998
2629+154591265+154119750+153604275+153271847+153172879+153132970+152907173
2615+152445952+151984589+151668727+151430329+151226827+150998475+150691221
2602+150402209+150211260+150112016+150114228+150180721+150195447+150084241
2588+149888345+149704650+149579822+149452021+149254896+149056951+148941588
2575+148929502+148985939+148970708+148863724+148775346+148664902+148441354
2561+148145356+147907130+147742098+147550635+147404904+147386413+147311408
2548+147102244+146961127+146905547+146752086+146513965+146329736+146197588
2534+146036178+145854447+145696706+145576235+145470052+145352192+145272431
2521+145231597+145181527+145115157+144973373+144729409+144487942+144369729
2507+144382454+144409296+144350514+144318191+144459594+144658274+144822486
2494+145011128+145174769+145284422+145423013+145630184+145882689+146172005
2480+146480633+146721089+146820248+146765507+146637420+146605174+146713845
2467+146857641+146975548+147118019+147308253+147396602+147305050+147251644
2453+147360124+147455661+147491052+147619816+147804931+147895435+147972594
2440+148189698+148445529+148557927+148574265+148602307+148639280+148695918
2426+148790139+148894711+148969526+149027841+149105543+149201204+149312534
2413+149340405+149276657+149370334+149655352+149891043+150001915+150097061
2399+150281728+150553935+150770896+150855109+150923203+151045724+151130299
2386+150977229+150273598+148771724+146560013+143892438+140851831+137576857
2372+134310634+131108406+128114227+125455250+123163216+121770127+121721544
2359+122863786+125266398+129038203+134062761+139054845+141295913+139644381
2345+135911819+133065801+131918058+131906373+132568112+133307192+133820713
2332+134333376+135337495+136800499+138063661+138953713+140077083+141805555
2318+143817128+145560775+146811317+147868165+149002391+150098853+151057934
2305+151907906+152638903+153241345+153727901+154150671+154608050+155112516
2291+155543483+155851691+156094674+156250041+156279418+156216270+156121391
2278+156095103+156204422+156389700+156496541+156449254+156354289+156322930
2264+156376593+156511639+156666129+156743784+156741191+156779680+156949040
2251+157165657+157276063+157233047+157176009+157253225+157391702+157494988
2237+157579334+157608215+157589723+157621064+157674270+157696059+157721242
2224+157740849+157776869+157859929+157878782+157763868+157627250+157615335
2210+157740239+157895558+158010320+158112662+158224698+158257801+158220075
2197+158309883+158515882+158583386+158491033+158479995+158617738+158739887
2183+158806218+158890021+158952749+158988264+159059762+159113044+159084973
2170+159048286+159112129+159277447+159425551+159498516+159538530+159550121
2156+159569118+159651948+159725819+159742738+159768254+159847520+159995929
2143+160165422+160242362+160220992+160211613+160242781+160285998+160387263
2129+160537940+160613412+160563371+160525740+160642904+160824159+160949386
2116+161109386+161356924+161556309+161645774+161750985+161955631+162226122
2102+162570026+163019789+163583018+164289280+165107292+166041972+167310510
2089+169000274+170909572+172966592+175214876+177489677+179575941+181452069
2075+183223652+184958062+186565338+187863997+188855505+189874979+191228216
2062+192762078+194199919+195499149+196655918+197683265+198680950+199723910
2048+200792797+201789280+202645648+203497669+204535349+205612490+206496461
2035+207193553+207698296+207961448+207946826+207577091+206849363+205874135
2021+204701296+203296759+201942893+201054709+200462580+199804853+199165352
2008+198729657+198425347+198143723+197952955+197969941+198220797+198460862
1994+198377555+198464370+199475952+201084124+202645419+204080724+205617446
1981+207375037+209266511+211348524+213706365+216278651+218851814+221260974
1967+224028279+227603187+231399517+234948079+238295427+241371560+244305937
1954+247258119+249968024+252167372+253740353+254509257+254625677+255070427
1940+256214500+256962168+256782800+256145700+255453717+254811946+254144421
1927+253125538+251506538+249978642+249003204+248128212+247844891+248206410
1913+247882255+246587524+245240521+244381828+243646342+242624733+241320127
1900+239779268+237918658+236047639+234626899+233112995+231563196+231220950
1886+231623131+231694619+231611693+231593049+231616840+231695953+231656168
1873+230701776+228326530+226573438+227985962+230810285+232530913+233103349
1859+233337410+233719079+234238634+234628043+234596283+233874579+232165143
1846+229802459+229261915+231333557+232798525+232561471+231649019+229964460
1832+226588746+222805112+221214650+220958743+220970752+221599121+221747587
1819+220924200+219838251+218490028+216421970+214551161+214185639+214481179
1805+213949043+212231141+210365137+210000663+210546163+209649533+207269902
1792+207130797+210399660+212946725+213342139+212949833+212557050+212775021
1778+213531020+212800109+209697173+207278081+209123707+213086460+216160667
1765+216972979+216150049+216328235+217353314+218062721+218673647+217690908
1751+215082402+214335458+216576288+219109990+220258867+220393645+221185407
1738+221953549+220207415+219231691+223221553+227881875+231428817+233601153
1724+234330901+233912401+230904440+226236739+226309219+232258401+238047851
1711+241150862+241179801+239570066+238949475+237979546+235424989+235804790
1697+240002996+246697272+253765497+257065682+257624870+256178794+252249001
1684+252910140+261512838+268650682+271368517+272138489+274253825+276239586
1670+278082620+284228899+291245862+294655414+297834012+303606114+308215137
1657+307815167+302967298+304663868+315255548+320041804+323365704+332962273
1643+342686758+347778334+348446393+346069564+348038626+357951572+365849628
1630+368971265+370694485+372762371+375610410+380501591+384426408+385524691
1616+388935901+395616147+399877052+401307077+402239202+403791423+405432861
1603+406935822+408876479+411347100+413986813+416989990+420597172+424588788
1589+429106707+434228059+439628196+445506214+451937987+456936114+460039793
1576+466728808+476671684+483105134+488764991+498543997+509506766+518329933
1562+522220016+521135536+529715338+551443647+570106631+585295497+598658810
1549+611191338+621462867+628330621+632804275+639872156+659255319+679976888
1535+692592076+703816853+717914794+730109137+739390893+747906757+755268444
1522+764056381+777034994+790901886+805942247+822093320+834422175+839463308
1508+840511416+852756163+876507445+892780676+900362431+903809481+909376994
1495+919044899+926557187+929943463+934347192+942826758+951182260+957092763
1481+961301435+963759779+963736750+962139463+961700470+964904499+970263078
1468+972868744+972110172+972485797+973419524+969851536+961941432+960011145
1454+966422940+971718227+971690852+966579641+962394913+961435870+959728168
1441+955026897+947065017+938091555+933516407+931672516+928131903+924725878
1427+922545555+920797057+921434157+922671221+923433072+929546181+938883297
1414+945273207+949325101+951628345+951115081+949815412+950827909+954319034
1400+958603730+963233247+966844776+968769420+971891552+975419888+976907446
1387+977934126+979134436+978822406+978578470+980147619+981924865+983907309
1373+988238063+993694322+995995736+993879390+990801332+988556422+987038440
1360+987006261+987973844+989473984+990915713+989897039+986490557+984533428
1346+984503156+982746804+978295874+973570583+970975821+970749576+970908870
1333+969735325+967565907+965991344+966135158+967539904+968434208+969214970
1319+972589121+977564143+979691774+979325452+981500589+986851084+991137001
1306+993202409+995257981+997978409+1001003471+1003885785+1005170127+1004908729
1292+1005179430+1007051535+1010326175+1014519443+1020393192+1028774391
1281+1037788954+1044749775+1048233198+1048826605+1048624303+1048923904
1269+1050314162+1052974045+1055207287+1055550277+1056795424+1061238118
1258+1065452357+1066371519+1065896153+1066868541+1069535439+1072080712
1246+1072717735+1071968085+1071170090+1070514842+1070969924+1072763564
1234+1073741823+1072575675+1070193203+1068601407+1069338628+1071174208
1223+1071049761+1068713805+1066367706+1064936500+1063633705+1062015220
1211+1060799126+1060380721+1060501889+1060250175+1058821562+1056254785
1200+1053388560+1051846633+1051482903+1050912068+1049871662+1048334005
1188+1046399830+1044495393+1041921753+1037715903+1033871876+1032389199
1177+1032335974+1032301507+1031003974+1028636753+1026837851+1025847926
1165+1024105299+1020966467+1018530999+1017573253+1016106970+1013936712
1153+1012895087+1012913921+1012463262+1011490874+1010391067+1009364158
1142+1008342053+1006787316+1005773065+1006147547+1007437455+1010019025
1130+1012095871+1010599011+1007553361+1006267799+1006231274+1006456756
1119+1006228528+1004650991+1002724136+1000954821+999746809+1001672673
1107+1005507016+1006968647+1006245304+1005710384+1006545744+1008669410
1096+1011384195+1014697572+1017568677+1018345245+1017621979+1017862483
1084+1020394030+1024038806+1027592611+1029521449+1028254264+1026740552
1072+1028697222+1032455463+1035191676+1038391435+1043584085+1048100288
1061+1048656482+1044804144+1040300828+1038713683+1039441372+1041981536
1049+1044229496+1044290652+1045665506+1047520988+1045815497+1042547720
1038+1040399272+1040564895+1041955000+1040363509+1036893049+1035685724
1026+1035767239+1034501732+1031019682+1027351802+1026753896+1029290019
1015+1033024926+1035490362+1034662780+1031586476+1029025418+1028112661
1003+1028124557+1028751667+1029341414+1030329662+1034637235+1039519075
991+1038775143+1035659340+1035969998+1038536774+1041324610+1043384452
980+1043977783+1044815201+1046005369+1046665726+1049366633+1054250837
968+1056187605+1052979154+1049092349+1048609510+1050172559+1051156995
957+1052275484+1054379020+1054548150+1051475964+1049957524+1052444463
945+1054925377+1054948101+1053857597+1053078665+1053646679+1055472040
934+1056442903+1053860494+1049258353+1046787732+1045574917+1044259006
922+1044462833+1044908002+1045493783+1048345672+1051145099+1051621075
910+1050693067+1049704590+1049995650+1050668895+1051002352+1051326278
899+1049964539+1047127900+1045330295+1046009792+1047629955+1046117615
887+1041035304+1035426537+1031000314+1028159252+1026546562+1025904735
876+1026591171+1026904421+1023770469+1017849749+1011879768+1008523766
864+1009613431+1011851402+1011713001+1011497356+1012130795+1010195400
853+1005669589+1002370166+1001890149+1002993769+1003975917+1005567332
841+1008139447+1008419908+1005549641+1003300690+1004440302+1006749036
829+1006754450+1005304867+1004834458+1005660286+1005870593+1004727855
818+1003812734+1001982797+998011122+995733804+997261319+998045436+994631481
804+990256347+988766273+989539104+990238122+989386139+986204605+982646911
791+981318876+980352437+976965475+973254816+971874090+970170887+966200050
777+963550081+962934103+960788552+956959624+954416486+955048553+956828544
764+955395812+949843855+942721757+937918001+936872181+935578079+932071094
750+929226754+927684599+925193389+920887570+916434429+912803303+909120629
737+905032133+901456825+899208941+896649866+892283959+886897930+880965085
723+876461616+874451720+872496804+870323877+868692887+867164304+867467870
710+870685930+873878292+874919842+874426328+872768572+870842174+869189680
696+868824729+871298095+873858543+874457668+876010880+878866735+879137664
683+875933712+872443731+871466387+874131150+878087803+878506055+872108901
669+863421314+867923563+880175706+884702966+884657519+883322774+881630017
656+881234794+880665484+879334018+880870073+885198310+887675794+887708431
642+885480144+880281165+875054430+872862593+875219519+878281716+874211445
629+866402987+862481944+857155240+845363212+836116380+835107009+834951452
615+831900464+831731867+833878257+831450110+827455939+829681252+833625705
602+831925323+825206988
##END=
