##TITLE=Sample description
##JCAMP-DX=4.24
##DATA TYPE=INFRARED SPECTRUM
##DATE=12/9/2023
##SAMPLING PROCEDURE=Instrument type and / or accessory
##ORIGIN=Default
##XUNITS=1/CM
##YUNITS=ABSORBANCE
##RESOLUTION=4
##FIRSTX=4397.6552
##LASTX=599.8556
##DELTAX=-1.9287962
##MAXY=1.8205621
##MINY=0.20234522
##XFACTOR=1
##YFACTOR=1.6955306e-009
##NPOINTS=1970
##FIRSTY=0.21523139
##XYDATA=(X++(Y..Y))
4398+126940433+125731470+124832170+124273494+123730752+123852472+123698630
4384+122565037+122475227+124070277+125585572+126137279+126139977+125936875
4371+125443040+125019575+125271041+125970851+126613659+126948606+126811980
4357+126206092+125305729+124589431+124521426+125262454+126626473+127404448
4344+126697290+125646081+125473141+125957571+126651449+127579022+128474464
4330+128576815+127859700+127077955+126734299+126709480+126445043+126366263
4317+127245833+128096146+127975673+127245657+126672278+127180077+128244417
4303+128801229+129313827+129668768+128911367+127757657+127582485+127841113
4290+127644980+127808727+128620204+129441216+130225853+130298130+129012478
4276+127916017+128331933+128984891+128743832+128282374+128266432+128535808
4263+128723346+129068268+130048299+131027153+130532167+128685722+127719093
4249+128582238+129715962+129969141+130114819+130831697+131267905+130993704
4236+131006860+131781812+132106072+130973051+129769141+130161354+131457165
4222+132012273+131431942+130634298+130559306+131088224+131226458+130894069
4209+130893893+130959156+130672520+130459926+130541342+130809304+131211782
4195+131622521+131926480+132312444+132445018+131851232+131522112+131947229
4182+131927525+131339637+131227100+131469021+131355060+131110564+131271728
4168+132107584+133140724+133130784+132324880+132120881+132496563+132639349
4155+132321294+131951905+132055503+132495798+132629612+132412316+132556878
4141+133061144+133221121+132865328+132356334+132155842+132190372+132134767
4128+132093804+132252181+132643867+133115027+133545672+133787100+133400451
4114+132729467+132854588+133358178+132910167+131973120+132086571+133338852
4101+134125203+133785940+133337903+132866558+132189405+132126251+132710571
4087+133168373+133302731+133392146+133365138+133266839+133489188+133802621
4074+133979753+134123709+134104813+134013448+133894663+133711282+133795283
4060+134282780+134786475+134804826+134364285+133921186+133824627+134064720
4047+134296684+134659376+135548262+136469296+136498764+135784215+135430523
4033+135517291+135390658+135079800+134637291+134174049+134184692+134587064
4020+134871451+135232808+135807610+135986940+135878112+136167025+136916077
4006+137565213+137286644+136119224+135113355+134844699+135007708+135105691
3993+135052064+135165910+135542839+135953508+136286065+136424686+136218446
3979+135988917+136113248+136203523+135926563+135607101+135271741+134966798
3966+134898748+134912502+135171754+135641297+136011943+136161075+135595562
3952+134522451+134374374+135697535+136330851+135296577+135197170+136415897
3939+136696540+135570031+133812297+133226799+134773583+135699556+134168222
3925+133007631+134005952+134214520+132881490+133281279+136203005+138485517
3912+138647138+137388696+134042204+128882778+126129263+127749994+131370915
3898+135209799+136200852+132908242+130342749+132252867+132989158+131712787
3885+132355314+131917454+131411922+133973135+133928059+130702146+128126941
3871+127206566+129554869+131359903+130414850+131685727+134995325+135165180
3858+129658055+120352621+119340354+130725514+138052385+138675024+135606609
3844+131521681+128042835+125471550+126615083+131086212+133550479+134462408
3831+135934174+136766189+136479675+133673536+128179232+127692851+131791822
3817+133952271+137878927+141572494+140123288+135152006+132270778+132616578
3804+130800146+130675262+135179857+137710812+139590732+142124807+142751338
3790+142138473+141166237+140257172+140545760+140278818+139054880+140535319
3777+143594498+144030908+141259984+138629824+139367680+141140381+142198630
3763+141827553+139362794+138401825+139595759+137685246+131269381+127538499
3750+132207052+134774277+133842442+139399020+145754420+144592308+139217863
3736+136411090+140364928+148305491+154073239+155127349+154579140+155948388
3723+159152585+163704972+168501539+171203333+170419329+168989089+174099564
3709+184959612+194959706+202234856+209298609+220031944+231498504+238962800
3696+242733715+243432611+241719066+242545096+248729068+253857224+254625427
3682+252506116+248515859+242562796+239045887+242907903+245814363+246638425
3669+252038340+258283866+262010978+264942187+267187876+267371591+267739442
3655+270221155+269201760+264079808+265799101+277399615+287483586+292320492
3642+294435970+296529108+298791478+300320078+300971833+299718945+298440711
3628+304205612+312108613+314543237+312534011+310578888+313224014+317746397
3615+320786724+323754177+326468204+329020383+333011941+336623802+338144071
3601+339054945+340600525+342260004+344352298+347136985+348205244+346600254
3588+346979039+351913848+356457254+358208977+358582242+358634059+358899155
3574+359994939+360868445+359658340+357978261+360149125+364418856+366617070
3561+367213246+367560356+367557193+367163011+367360190+368423633+368729894
3547+368501604+369609833+371320215+371980266+371689332+371651295+372358593
3534+372787718+372062843+370488015+369074157+368456080+368537602+369123162
3520+369993152+370736167+370971698+370612495+369753894+368898493+368463111
3507+367687333+366335170+365873282+366374929+366210338+365569833+365403133
3493+365224058+364239536+362603857+361465008+361020803+360301377+359394228
3480+358999906+359156798+359016077+357819822+356597800+356282679+355834325
3466+354470457+352827641+351839076+351711713+351812992+351746340+351167811
3453+349788228+347928512+346190043+345360444+345168609+344992311+345226015
3439+345544686+345197400+344307266+343276376+342250301+341416765+340997203
3426+340475307+339445119+338742637+339025275+339655059+340215765+340800305
3412+341004831+340723072+340311173+340188028+340681414+341253088+341169492
3399+340713264+340570750+340742688+340991402+341202537+341222610+341445521
3385+342309430+343262490+343369885+342753073+342257121+342096046+341939364
3372+341434659+340802450+340471475+340429677+340655084+340683067+340199488
3358+339750853+339640048+339963992+340655260+340995058+340257914+338928918
3345+338480881+339115094+339702376+339839301+339815396+339484527+338352252
3331+336824707+335889330+335375660+334707137+333822381+332498307+331065466
3318+330157649+329194887+327921435+327571371+328185054+328322752+327813090
3304+326977234+325845838+325769554+327371521+328855511+329425287+330070538
3291+330577528+330280653+329877191+329709788+329520448+329716397+330272497
3277+330311975+329206137+327525671+326712384+326539707+325590199+324396826
3264+323920174+323604842+323288562+322933577+321815927+320674020+320453007
3250+319962926+318647007+317533012+316614650+315252363+313922910+313380414
3237+313412544+313402209+312951887+312261392+312249827+312896378+312952765
3223+312376135+312109738+311768006+310784433+309968122+309955186+310267388
3210+310211564+309884597+309574749+309144359+308757876+308201213+306946708
3196+305404609+304023339+302895494+302259629+301953859+301599015+301220512
3183+300738094+299757896+298415260+297396462+296822293+296342300+296020958
3169+295696662+294915681+293986368+293416821+293026454+292402699+291856459
3156+291898960+291995845+291471611+290425710+289232795+288369062+287905310
3142+287275386+286383934+285687235+284972607+283790801+282641530+282241020
3129+282291484+281971284+281062712+279934498+279105233+278643977+277877726
3115+276638636+275498698+274617828+273742494+272644600+271319137+269939993
3102+268672991+267680260+266941271+266066904+264646455+263102457+262303424
3088+262202374+262108021+261663974+260969718+260319105+259834701+259368208
3075+258894121+258613206+258293867+257597080+257042350+257055164+256992151
3061+256279122+255440454+255136759+255172159+255376984+255777950+255839083
3047+255398920+255157043+255369461+255443917+255001609+254396697+253828222
3034+253168171+252821905+252979377+252847813+252134697+251523651+251315469
3020+251295624+251261595+251019244+250655347+250350017+249978405+249504213
3007+249130297+248954141+248826708+248646139+248543876+248574390+248805686
2993+249485476+250642499+252119985+253791293+255366859+256679157+257740298
2980+258214665+258040794+257742987+257322563+256386061+255136987+254053700
2966+253182584+252453227+251892627+251396639+251036381+250852895+250621652
2953+250306567+250045443+250041787+250323090+250532519+250547038+250637718
2939+250666509+250297814+249815519+249333944+248492604+247574505+247036087
2926+246401277+245202034+243959323+243057905+242176243+241164301+240269439
2912+239778777+239604009+239395915+239066751+238786538+238544117+237968365
2899+237187999+236831116+236799741+236697988+236652428+236764060+236791550
2885+236579062+236399531+236469663+236409426+235982200+235570494+235378149
2872+235168649+234745712+234171419+233618324+233150565+232804913+232608350
2858+232339299+231760084+230978348+230107443+229082195+228038280+227338400
2845+227050137+226830671+226613806+226558034+226509996+226327459+226139579
2831+226238871+226615247+226680282+226139051+225413948+224900963+224627958
2818+224651106+224910754+224873086+224340802+223857892+223697942+223643400
2804+223706203+223944125+224113426+224136189+224105060+223947781+223767072
2791+223740847+223524615+222869433+222293523+222219102+222327042+222297179
2777+222359137+222446671+222017757+221231468+220693700+220450575+220254750
2764+220088032+220040399+220016740+219888112+219670192+219419843+219163694
2750+218909284+218744922+218734780+218768370+218728048+218608753+218492833
2737+218455411+218436973+218402786+218354168+218141205+217822358+217693625
2723+217768046+217910876+218077858+218111711+217874052+217574628+217484458
2710+217557210+217687332+217842660+217804729+217454648+217135749+217032079
2696+216911378+216744836+216668499+216646757+216551683+216348967+216155005
2683+215966000+215639648+215290674+215150744+215114588+214972197+214744030
2669+214492837+214191216+213760668+213200366+212741747+212553902+212416626
2656+212197652+212105566+212123248+212050251+211870069+211583969+211181719
2642+210742312+210390509+210232281+210236394+210231455+210083949+209837713
2629+209636737+209470512+209219530+208928912+208723156+208683186+208775096
2615+208759048+208583999+208548106+208675592+208642882+208410074+208207869
2602+208088046+207912241+207658816+207502838+207512084+207515335+207372030
2588+207138573+206843385+206458378+206172541+206125505+206093796+205906426
2575+205753963+205689139+205430845+204997379+204696619+204571207+204462494
2561+204290450+204009658+203560319+203057178+202773081+202823475+202995993
2548+203004641+202799236+202517178+202348474+202357579+202426727+202435375
2534+202414440+202480969+202534017+202376123+202135265+202136320+202340072
2521+202363116+202246053+202338895+202536899+202579084+202543508+202559257
2507+202577010+202559328+202546303+202517653+202441790+202404826+202474782
2494+202575850+202648496+202709242+202750389+202783100+202905278+203143516
2480+203295628+203255921+203194279+203111790+202905208+202711492+202621779
2467+202629882+202795299+203080081+203341082+203425926+203351188+203319040
2453+203277137+203106200+203087534+203368326+203662600+203797714+203865931
2440+204021838+204322704+204633149+204845900+204997678+205115444+205150404
2426+205064400+204989891+205099431+205420211+205829034+206068222+206064267
2413+205992342+205985346+206134294+206390672+206579765+206686053+206768331
2399+206860171+207068616+207391277+207659554+207797007+207817185+207659730
2386+207100589+205805481+203504864+200143406+195992565+191506284+186968415
2372+182356759+177748775+173390315+169231125+165629652+163340443+162547650
2359+163517180+166609042+171616410+178346744+185135997+188318170+186211199
2345+181206503+177664195+176899930+177749302+179154337+180239241+180713398
2332+181206819+182634897+184789695+186717275+188252678+190034651+192451153
2318+195209316+197663785+199421360+200873378+202535563+204270043+205894473
2305+207419277+208673237+209624451+210465281+211236401+211918863+212577561
2291+213224798+213825808+214384493+214881166+215219294+215353899+215333422
2278+215210242+215123623+215223671+215466075+215707249+215854790+215946191
2264+216079108+216254772+216420857+216543826+216620251+216729298+216964408
2251+217243865+217394324+217421796+217487376+217638152+217744492+217776219
2237+217857548+218015635+218211021+218430962+218588873+218671151+218784312
2224+218903818+218986816+219079711+219166400+219208286+219267697+219440971
2210+219630943+219710074+219764915+219884649+220045707+220157321+220184846
2197+220243009+220421978+220681783+220912903+221066209+221224156+221414761
2183+221529890+221576294+221714994+222001639+222295192+222420007+222413609
2170+222476657+222658895+222836862+222958882+223061795+223145831+223214609
2156+223298223+223441353+223664018+223909375+224128033+224321872+224503143
2143+224652706+224742700+224802567+224902264+225055746+225201090+225351163
2129+225564758+225771833+225827306+225775190+225875221+226134288+226291620
2116+226353051+226489343+226663021+226778467+226841287+226880906+226961268
2102+227114346+227263346+227340948+227368403+227433720+227567111+227683770
2089+227738346+227790550+227908456+228093085+228254635+228339919+228442498
2075+228586014+228678557+228695115+228585346+228375952+228358832+228653650
2062+228969087+229172172+229358470+229443437+229381812+229321646+229330154
2048+229361300+229398071+229433295+229471385+229590188+229799987+230024708
2035+230176081+230206911+230261470+230431651+230554778+230568101+230607684
2021+230643910+230572812+230617686+230968628+231336022+231454561+231501281
2008+231704822+231977055+232117688+232143913+232222834+232430031+232579629
1994+232367071+232098635+232372572+232999684+233579057+234033703+234351020
1981+234552418+234696039+234908668+235192905+235441954+235478039+235136589
1967+234923169+235422777+236157706+236575160+236823611+237023795+237170616
1954+237372294+237646337+237864344+237866735+237459704+236752951+236786189
1940+237995504+239166676+239676215+239900796+240130475+240440058+240750064
1927+240715982+240158721+239784894+239843917+239874835+240574224+242014447
1913+242813444+242732502+242779380+243517613+244479567+245153363+245549338
1900+245769858+245773268+245804345+246117848+246042812+245690850+246439928
1886+247891858+248910198+249606405+250205482+250733600+251217055+251494824
1873+250832822+248815353+247490206+249237324+252220385+254030709+254835718
1859+255484098+256178828+256748463+257186482+257526280+257427357+256398751
1846+254860730+255390237+258525110+260906405+261713875+262363608+262811382
1832+261735705+260259256+260982830+262819731+264698289+267111065+269021490
1819+269942173+270660527+271200246+270990201+270879729+272092788+273818461
1805+274646003+274172356+273436302+274120065+275649527+275706195+274220869
1792+274842602+278782273+281965132+283031176+283423899+283789465+284650667
1778+286041693+285945459+283392717+281506847+283907231+288335595+291871628
1765+293220803+293005924+293899837+295699369+297180160+298427423+297847558
1751+295501944+294988556+297489164+300340292+301847097+302360731+303517368
1738+304541157+302895248+302016258+306452900+311728809+315703986+318156292
1724+319236047+319333353+316843362+312522164+312877501+319216325+325446559
1711+329031070+329583479+328412641+328162239+327652964+325565450+326250425
1697+330686928+337651634+344939756+348374335+349092425+347907525+344192769
1684+344715966+352992162+360087183+363058855+364025519+365912303+367497150
1670+369075563+375052232+381934958+385176507+388081034+393557110+398011575
1657+397718848+393218647+395030799+405414968+410246706+413911016+424140894
1643+434798877+441147369+443350152+442901834+447408046+459612066+469252376
1630+474343657+478498786+482999550+487909998+494714930+500827538+504438660
1616+510590923+520411222+528382175+533822675+538884848+544833990+551151090
1603+557180560+562889987+568240634+572912527+577184544+581715856+586423290
1589+591134943+595874894+600441325+605005718+609808525+613056541+613806165
1576+616965874+623749959+627998599+630830884+636886719+644390055+650220553
1562+651786170+648420247+652274319+668377582+683079819+695245767+706070942
1549+716128495+723671133+727655344+729807892+734855863+751262576+769557971
1535+780478695+789199412+799652166+807931491+813295144+818140627+822090950
1522+826792865+834911817+843999964+853773261+863416841+869539047+871084275
1508+869969613+876180899+892040405+903382484+907257859+907069222+910310630
1495+918497288+923849341+925108134+928357135+936777497+945915493+952164604
1481+955899011+958362953+959515160+959415885+960277228+964838105+969853101
1468+970463656+968040703+968023548+969636201+967014629+959844061+957359448
1454+961212535+964150282+964476371+962042942+959316611+958093041+957066334
1441+954253805+946665538+936413302+931921960+930818968+927131808+922351289
1427+918229485+915787620+917380587+920309617+920910398+924243276+932333261
1414+939036703+942046305+943143953+943181919+943902998+948449110+953861205
1400+955645481+956805351+960757783+966849967+972983563+975352941+974392745
1387+974840818+976439902+976518928+978014519+982652875+986657898+988025317
1373+989634526+993201670+996080078+995566970+991785738+987587299+987248555
1360+990655819+992417666+990067060+986969854+986146689+987215018+989119871
1346+989288892+985723364+979581965+972212214+966098586+963352428+962269545
1333+961949011+962500858+963508793+965796121+968869141+970885011+971234582
1319+970891620+972055217+975540945+979701348+982010401+982136745+982647040
1306+985806258+990225534+992055440+992514480+995797862+999312345+998990827
1292+998276076+1001234002+1006706703+1012469003+1017812478+1022859183
1281+1027561519+1031776551+1035468141+1038307739+1040156838+1041404382
1269+1043772635+1048558217+1053430417+1055127089+1054774916+1055957988
1258+1058345928+1059832378+1061763808+1065057525+1066685717+1065364419
1246+1064542168+1066501650+1067792223+1064681026+1061080204+1061079712
1234+1062361145+1063711057+1065893346+1067746945+1067600775+1064945454
1223+1061298862+1058681718+1058371028+1059218168+1058215858+1056531420
1211+1057335532+1058518745+1056749375+1053975726+1052573504+1051083608
1200+1048786155+1047572148+1047638167+1046416496+1043537736+1041775468
1188+1041583386+1040994135+1039515770+1037999509+1037364346+1037750689
1177+1037438170+1035326470+1033335208+1032196220+1030760320+1029520369
1165+1028372732+1027361563+1028802244+1031976296+1032103202+1029088678
1153+1027851469+1028849842+1030072638+1031098923+1030296217+1027937948
1142+1026563849+1027338995+1030573020+1034654467+1036012465+1033640697
1130+1030956972+1031957102+1036068360+1038097377+1036236044+1034093761
1119+1033092224+1031860148+1030987626+1031444839+1030835409+1029390510
1107+1030347542+1030654015+1027298638+1024835047+1026553092+1028934071
1096+1027545137+1024630943+1025453827+1029869800+1033411000+1036801109
1084+1043313313+1048073303+1046682611+1043779807+1043900033+1046122398
1072+1046890653+1046312651+1046236367+1044617667+1042215033+1043223179
1061+1045877515+1046963281+1048999821+1052723471+1054623614+1053353922
1049+1049933511+1047298720+1048021837+1050308393+1052030375+1053548746
1038+1054565680+1052560075+1045980024+1039693930+1040051938+1043296018
1026+1040345474+1033191780+1029677929+1032848888+1040567225+1044918163
1015+1043134309+1040975574+1039268708+1037606206+1039979732+1043843225
1003+1040517307+1033256745+1032230249+1035897019+1038225197+1039494467
991+1040373035+1041894007+1046999349+1052700832+1052663006+1049263757
980+1047747706+1046637614+1045998656+1049232400+1053653786+1054946749
968+1054034644+1052080434+1049664512+1049976398+1054788415+1060251133
957+1062297586+1061777659+1061735052+1064330400+1067309700+1066513954
945+1063320497+1061706437+1062092287+1062672328+1062618050+1061792564
934+1061170620+1062306726+1063759148+1063505547+1063699738+1067359548
922+1071678144+1072055487+1070547944+1069087436+1065812070+1062862370
910+1063420545+1065067579+1064537738+1064143240+1066465442+1069589505
899+1072465593+1073741823+1070244846+1064010218+1057605515+1050735443
887+1046857959+1049401350+1056417662+1063262141+1065632574+1061777518
876+1054178775+1047763666+1045110244+1045070309+1044353731+1041397773
864+1038149827+1036100702+1035950453+1036456600+1034778139+1031454189
853+1028532050+1028651082+1031621311+1031384936+1026342661+1021830366
841+1022329834+1026941966+1029231052+1025703842+1020065848+1017794760
829+1020419075+1023334957+1021430103+1016167553+1012281632+1011010464
818+1012199864+1016744219+1022740503+1026146783+1024286083+1018421766
806+1013420902+1011845863+1014025761+1018402924+1019011088+1014008466
795+1008927450+1007879370+1009408497+1008277524+1003759816+1000521009+999133482
781+996975239+993111254+988202353+984777301+984929025+986375893+985351857
768+982628549+980794214+979680044+977465414+973457439+968262806+960759400
754+953636079+953192506+956989066+958020062+955280512+951196956+947927284
741+946150180+944768559+943256938+942513994+939986845+934586139+931976308
727+930976950+925803199+919045198+913834043+910553403+910200176+910103714
714+908449016+909406681+913272775+915158082+914616289+914891404+916125450
700+914095729+909471997+907070558+905589521+904421284+907281623+912856200
687+914770264+911083174+906687310+905426196+907531216+911628412+915757176
673+918422481+915997208+907924027+907159006+915745013+919878558+919690696
660+919087313+916598271+910665193+906258290+908963741+913359605+911226391
646+906829824+906353628+907916785+909795976+913089341+918143358+924901570
633+931757228+943728564+956036182+942489456+913938731+900193315+900160271
619+906023251+909028213+897484701+883626933+882593898+889688885+899331691
606+911388170+920271158+921636609+920864346
##END=
