##TITLE=Sample description
##JCAMP-DX=4.24
##DATA TYPE=INFRARED SPECTRUM
##DATE=12/9/2023
##SAMPLING PROCEDURE=Instrument type and / or accessory
##ORIGIN=Default
##XUNITS=1/CM
##YUNITS=ABSORBANCE
##RESOLUTION=4
##FIRSTX=4397.6552
##LASTX=599.8556
##DELTAX=-1.9287962
##MAXY=1.9655739
##MINY=0.337479
##XFACTOR=1
##YFACTOR=1.8305834e-009
##NPOINTS=1970
##FIRSTY=0.34779197
##XYDATA=(X++(Y..Y))
4398+189989693+189987105+190426134+189812646+188610953+188919252+189785523
4384+189784383+190048497+190796542+191122423+190758885+190162654+189644520
4371+189374268+190101099+191116871+191361921+191672760+191668250+190676296
4357+190218251+190474649+190095466+189385745+189378631+190177567+191274122
4344+191865909+191612442+191042503+190541984+190510823+191121755+191325731
4330+190538565+189767891+190030329+191119932+191938518+191662096+191002552
4317+191166852+191737213+191825403+191155097+190102043+189618390+189550371
4303+189574922+189950800+190165341+189924458+189554946+189644080+190709589
4290+191691319+191572897+191646093+192544176+192873085+192346843+191738532
4276+190978294+190129866+190028391+190540047+190712959+190874784+191311795
4263+190999686+190042734+189741729+189986779+190002506+190057386+190484450
4249+191197312+191863808+192063079+192013977+192016778+191976500+191849840
4236+191516991+190913694+190520657+190876282+191501117+191556942+191410485
4222+191721047+192193776+192431191+192512136+192456425+191973130+191426814
4209+191643358+192034149+191699753+191293105+191582747+192215999+192781183
4195+193135718+192623819+191646549+191799616+192742990+192860794+192023827
4182+191184597+190908224+191171606+191814886+192339077+192057739+191472318
4168+191754129+192645895+192877644+191970981+190864870+190781922+191497666
4155+191809107+191294163+190826579+191017302+191198940+191312918+192132856
4141+193368525+194498585+195260598+194494092+192385802+191469534+192303163
4128+192569394+191636097+191457910+192513227+193257413+192885198+192081638
4114+192118024+192883407+193137672+192749453+192352085+192614262+193163622
4101+192787663+192280355+192704145+193070450+193114749+193419368+193545280
4087+193388615+193478775+193453215+192940143+192740157+192989977+192937506
4074+192843585+192829438+192473682+192348764+192711048+192751342+192482962
4060+192658609+193291585+193953051+193931658+192871848+191992585+191905111
4047+191691254+191546214+192141500+192805343+192970425+192754663+192408187
4033+192471582+192721028+192513276+192459063+192801973+192523158+191728096
4020+191659312+192515653+193392441+193729084+193974557+194601557+195054115
4006+194621664+193462039+192574831+192787419+193402079+193255443+192662582
3993+192636452+193109051+193382152+193389510+193587755+193941150+193744159
3979+193062782+192589679+192351906+192377841+192779474+193131990+193349608
3966+193668114+193899342+194122414+194375311+194397306+194436753+194262375
3952+193493850+192904946+192978125+192839532+192249243+192386550+193300816
3939+193783053+193251373+191960692+191289409+192193744+193064411+192412159
3925+191795204+192735957+193640682+193535267+193636009+194520091+194951029
3912+194316344+193356396+191861953+189556932+188120918+188651947+190646031
3898+193039518+193514543+191722529+191044083+192701345+192877855+191620272
3885+191381425+191103180+191539474+193224217+192963310+191446448+190528553
3871+190198390+191325975+191705890+190734612+191656301+193678647+193698395
3858+190519745+184984206+184355984+191162277+194918013+194405071+192237017
3844+190137143+188645548+187650582+188441752+190980964+192677348+193365709
3831+193740870+193318122+192368333+190572591+187808956+188128960+190503351
3817+190906091+192293965+194219379+193635375+191168822+189769210+189863684
3804+188592100+188808074+191804337+192862568+193173032+193993523+193883583
3790+193458213+193157468+192851742+193223045+193430993+193019217+193625281
3777+194719573+194319193+192305247+190928297+191945275+193385001+193961614
3763+193460818+192073123+191986106+192981235+192085920+188952480+186980113
3750+188627005+189194095+188436201+191329980+194274618+192836943+189220176
3736+187513454+189537184+192896203+194659694+194483721+194148283+194720550
3723+195685381+197003201+198496798+199404291+198749842+197330108+199178973
3709+204075660+207762383+209233872+210931607+215876695+221791613+225320028
3696+226376078+224825662+221186168+219428179+222137747+224714534+224004862
3682+220797103+216622884+212212780+209934248+211597078+211829869+210468988
3669+211963335+213804499+213568158+212873090+212618549+212102107+212044540
3655+212914930+211857497+208745921+208551161+212404073+215432343+216443134
3642+216623535+216679311+216556509+216327756+215605744+213491039+211784643
3628+214507658+217834345+217730216+215463715+213706166+214756974+216579090
3615+216849358+216784921+216961398+217305790+218638083+219714028+219186809
3601+218420596+218571513+218635934+218449672+218758134+218740258+217899758
3588+218202766+220074016+221166192+221394896+221592425+221430925+221006059
3574+220958196+220752397+219445632+218142236+219035891+220796321+221586971
3561+222077396+222531143+222482514+222185302+222214101+222522417+222611241
3547+222661840+223204135+224054972+224458852+224161559+223997210+224277979
3534+224265671+223911902+223681260+223634763+223635284+223714960+223877567
3520+223840090+223704638+223805755+223760496+223408680+223464684+223882418
3507+223740178+223306505+223567314+224068534+224054972+223981597+224122096
3493+224100557+223833985+223678899+223927221+224255577+224310426+224477738
3480+225018306+225453510+225330610+224851450+224697114+224918704+224830188
3466+224340463+223965008+224102153+224699507+225223519+225443562+225535041
3453+225688352+225918440+225910251+225688564+225776281+226349069+226989045
3439+227329481+227506838+227606473+227661142+227756332+227776780+227972729
3426+228535292+229011440+229297468+229655568+230051503+230494407+231010979
3412+231389787+231545247+231687813+231985383+232439178+232888578+233011803
3399+233058250+233498338+233919768+234268148+235058733+235953999+236476643
3385+236733529+237091629+237655023+237983509+237879999+237754462+238026293
3372+238675517+239537669+240454767+241049533+241343570+241734898+242265178
3358+242869304+243579774+244240523+244525851+244301363+243832915+243820086
3345+244682857+245832942+246686547+247209647+247422218+247533444+247720537
3331+247972115+248291192+248608461+248913210+249213141+249346639+249243081
3318+248911615+248379984+248127950+248474735+248892160+249098691+249422277
3304+249726929+249650738+249629964+250366726+251729512+252752952+253124207
3291+254022208+255759488+257342757+258702628+260174557+261688634+262845524
3277+263316251+263828150+264891640+265777985+266028179+266069645+266396471
3264+267120143+267705645+267403175+266663890+266328826+266287637+266679926
3250+267730750+268625544+268731544+268454487+268024298+267373301+267215106
3237+267893796+268384792+268236316+268139921+268088345+267658791+267280585
3223+267204084+267029072+266709881+266409202+266083141+265766719+265574693
3210+265509784+265638642+265925190+265757504+264725354+263575823+263238854
3196+263541195+263626796+263135573+262454066+261882076+261384487+261095383
3183+260880809+260372215+259768251+259200510+258527648+257996961+257715362
3169+257544615+257485257+257544436+257869210+258203655+257920265+257351043
3156+257256504+257513634+257564526+257111952+256185183+255462129+255662588
3142+256280553+256419570+255896584+255022693+254418322+254350499+254365558
3129+253976053+253237094+252494601+251972624+251787127+251596176+250777151
3115+249338629+247924300+247101807+246751179+246267380+245394906+244347322
3102+243333698+242344283+241178570+239876330+238906061+238451126+238205506
3088+237884216+237384771+236956422+237021673+237237728+236970065+236474429
3075+236004614+235508751+235200143+234969778+234678720+234482640+234407051
3061+234455729+234541949+234678394+235051553+235445486+235463378+235122942
3047+234760577+234549682+234438961+234511701+234566858+234104776+233386183
3034+232997509+232938981+232922327+232804962+232734323+232605399+232174348
3020+231709677+231379482+231208865+231398220+231670279+231564734+231131485
3007+230642882+230384597+230371426+230203919+229764971+229275213+228935363
2993+229073419+229783921+230599789+231023172+231114846+231257575+231567095
2980+231995200+232348058+232307504+232098579+232098677+232023967+231582968
2966+231070108+230876032+230931270+230797235+230427300+230288543+230415382
2953+230325841+229983273+229831997+230072342+230459958+230602914+230504680
2939+230544778+230671080+230517557+230202925+229967904+229702960+229408825
2926+229240373+228997716+228387338+227711106+227500570+227617966+227486699
2912+227047328+226823231+227097276+227564974+227907201+228145592+228172211
2899+227805808+227399844+227508075+227989433+228141539+228048367+228333597
2885+228688685+228717745+228700569+228801100+229080029+229466164+229668576
2872+229655535+229615600+229582990+229469013+229300659+229220804+229382239
2858+229723798+229899918+229641762+228983911+228221230+227622411+227322936
2845+227446243+227895463+228356552+228590043+228703370+228916071+229084587
2831+229138361+229247292+229417144+229588249+229623284+229477950+229423754
2818+229505350+229480848+229436517+229571204+229775195+230003134+230350180
2804+230747662+231108106+231473451+231772584+231843159+231885113+232159988
2791+232418177+232367187+232159972+232083602+232131986+232110252+232028916
2777+232071717+232212834+232271166+232264556+232190660+232003584+231952985
2764+232172182+232401489+232457591+232451128+232498161+232613084+232867267
2750+233181117+233268184+233085048+232908081+232939746+233100432+233207947
2737+233160474+233084152+233253743+233630566+233979256+234193406+234218949
2723+234203272+234342337+234562983+234715692+234758053+234786267+234925023
2710+235145653+235310360+235370222+235380332+235418884+235583412+235843358
2696+236115190+236392328+236614651+236767245+236915607+237056171+237151524
2683+237247463+237347066+237331241+237229734+237178842+237226185+237323134
2669+237393872+237454287+237447873+237339316+237262604+237265469+237400172
2656+237693314+237857614+237665149+237399716+237389460+237462818+237448703
2642+237491862+237501598+237313789+237164011+237208065+237253227+237150140
2629+236926450+236667187+236435861+236275648+236195614+236235240+236420509
2615+236448739+236111136+235803260+235800297+235834844+235659945+235348863
2602+235110390+235015444+235017039+235136487+235283188+235249293+235144709
2588+235143471+235075518+234889044+234750125+234703514+234723279+234721602
2575+234602821+234386196+234178070+234105265+234144712+234096001+233852726
2561+233594782+233456481+233222648+232820005+232588484+232655429+232701843
2548+232574988+232411974+232224100+231970991+231700691+231512589+231501241
2534+231600225+231655350+231542610+231285284+231018256+230708752+230370205
2521+230216878+230277977+230339354+230270456+230136632+230028760+230020522
2507+230118789+230109754+229853291+229610618+229623431+229750742+229872437
2494+230039879+230169877+230179221+230180784+230290985+230528253+230836454
2480+231036571+231027129+230968796+231013453+231144818+231265146+231271658
2467+231204388+231198559+231271804+231332920+231341435+231365513+231434492
2453+231402762+231257819+231271723+231504351+231760032+231984536+232213746
2440+232448995+232670390+232800078+232802341+232779972+232785589+232792362
2426+232868390+233063086+233335893+233605429+233735541+233761459+233902038
2413+234140267+234332732+234511684+234659460+234776450+234960384+235139401
2399+235275260+235510965+235816431+235942668+235909326+236000739+236121832
2386+235840086+234856955+233043403+230457613+227383189+224089877+220618248
2372+216885012+212933327+209124339+205936979+203608384+202135382+201555366
2359+202411576+205155479+209373036+214726937+219946884+222313362+220681513
2345+216856196+214205041+213828333+214614782+215715830+216737562+217514308
2332+218305576+219529247+221066980+222612235+224170188+225903756+227977939
2318+230316561+232414595+233944009+235229382+236599640+238007994+239327345
2305+240473098+241480340+242406816+243183415+243792638+244369723+244970464
2291+245494297+245934009+246359037+246745856+247089352+247378017+247513924
2278+247537482+247620234+247805829+248029975+248201585+248269376+248332771
2264+248533132+248855432+249121874+249189242+249169852+249350139+249737153
2251+250013249+250078777+250100121+250200716+250411464+250646371+250850574
2237+251050284+251162520+251225052+251420171+251598293+251587239+251637089
2224+251860893+252036671+252105650+252170201+252295412+252499957+252671014
2210+252701425+252682003+252735223+252828183+252887834+252991409+253204045
2197+253429070+253587037+253657824+253643285+253632492+253749465+253955068
2183+254135632+254353673+254601442+254724195+254732173+254743080+254860558
2170+255119040+255394322+255546119+255605086+255706447+255841589+255892155
2156+255900149+255963756+256082504+256228212+256310688+256328824+256413155
2143+256552465+256702325+256888913+257044926+257090299+257095899+257204098
2129+257463279+257763063+257902145+257878751+257916619+258062017+258184982
2116+258289810+258458099+258634235+258723060+258733593+258736621+258823802
2102+258986800+259088095+259026149+258889216+258900710+259079841+259204173
2089+259225256+259335815+259533457+259627492+259663325+259759997+259830734
2075+259825232+259885696+260113994+260365117+260465517+260490393+260587684
2062+260709639+260761898+260795843+260857252+260918938+260972776+260990001
2048+260973981+260998727+261056685+261133511+261281368+261462518+261574575
2035+261589048+261631523+261811192+261992863+262033580+262014874+262060849
2021+262163968+262300673+262511340+262787469+263041685+263188402+263258456
2008+263363414+263521349+263658836+263777502+263982682+264301319+264584562
1994+264624905+264543878+264753111+265244823+265687255+265974894+266177941
1981+266340385+266510400+266760806+267034916+267219664+267248855+267110326
1967+267073500+267412341+267875432+268170072+268333069+268437670+268602882
1954+268881176+269132250+269292447+269384268+269337429+269248914+269635732
1940+270483330+271083240+271316015+271497670+271762061+272122017+272484464
1927+272588462+272442737+272525229+272783727+272891420+273273501+274037826
1913+274609718+274833115+275036781+275479049+276078846+276614889+276975431
1900+277211396+277371985+277579199+277935476+278131751+278225232+278810897
1886+279712594+280430812+280946798+281362074+281778653+282243519+282647724
1873+282608684+281992119+281774713+282857186+284348260+285392343+286120754
1859+286715959+287235233+287781012+288378822+288908222+289139760+288881393
1846+288479629+289190131+290953899+292190024+292835373+293540860+294109073
1832+293959653+293682401+294432756+295722835+297074615+298582425+299798233
1819+300566106+301236787+301908183+302288978+302656293+303599797+304769923
1805+305513571+305733159+305886291+306636126+307703132+307993897+307691508
1792+308718856+311213801+313080363+313935824+314512372+315139649+316031122
1778+317005299+317188484+316449850+316382124+318406082+321117099+323051256
1765+323779275+323986360+324954024+326336086+327574849+328600406+328700659
1751+328257349+328880393+330692513+332436615+333460739+333976692+334891739
1738+335863701+335764489+336348689+339105323+341760629+343830824+345326358
1724+346299786+346730496+345799332+344252807+345281523+349009696+352463124
1711+354488775+354853225+354485259+354829684+354989002+354495841+355576686
1697+358091461+361679852+365621003+367903101+368924295+368641084+366986621
1684+367946797+372794529+376636632+378181463+378792916+380194969+381413349
1670+382436106+385608765+389124384+390860866+392574360+395518836+397787095
1657+397607199+395442188+396711754+401891765+404030662+405916988+411168860
1643+416247153+419019807+419765442+419217091+421076554+426759690+431286116
1630+433818082+436088393+438383809+440987604+445112266+448889117+451264533
1616+455322088+461244706+466111226+470275123+474997465+480323120+485359312
1603+490032260+495138066+500768454+506348471+511890783+517633277+523330675
1589+528917074+534700919+541003160+547957457+555127792+560985875+565537763
1576+572092055+579701500+584791743+589862840+597615617+605582707+612128793
1562+616275889+618485768+626695954+640479320+651757353+661826091+671524876
1549+680664143+688044949+693434227+697519002+703198850+716211444+729432751
1535+737614805+745380802+755246102+763960715+771411005+778848075+784834382
1522+790477697+798475654+807677437+817466610+827375867+835373824+839785571
1508+841391974+848286197+861846849+872033260+878414916+883030167+887940871
1495+893745816+898164987+900764484+904478852+911876850+920230823+926800483
1481+931120280+933646907+935473484+936774079+937240019+938926651+943248467
1468+946637881+947384102+948535440+950643079+950753394+947946486+946381956
1454+949693225+954460402+955804564+951522732+947410736+946512328+944148178
1441+938889988+932964765+927768115+924630198+921136199+915688378+912796357
1427+914006044+915585552+915491648+914431479+915402302+920952428+928901284
1414+935913897+942437125+948830242+950653172+947405006+947225923+954292195
1400+962403984+965926440+967501845+971290646+975344164+975806718+974422572
1387+974412348+974946926+975676671+977387007+978612388+978256958+978986638
1373+984004987+990819566+994095800+992997927+990780168+989388078+989630002
1360+991718235+993235097+992249752+989979441+987319447+984420133+983301941
1346+982910304+980204529+976693274+973238478+969393804+967464922+966166801
1333+963724571+963454775+965489218+966516110+967139252+968247285+968970518
1319+970080374+972051845+973516089+974168731+975581074+978416178+980985459
1306+983108011+986679829+990633776+992530163+992864494+993506651+994852180
1292+995978707+998224923+1004395652+1012804132+1018520252+1020759565+1022485074
1279+1025389468+1029834297+1035199285+1039603608+1041291022+1040863633
1267+1042469841+1046232984+1046485328+1044697172+1046355346+1048833523
1256+1049038850+1050284613+1054163150+1057617490+1059194980+1059687359
1244+1059993427+1061058220+1062481958+1062178495+1059644119+1058157603
1233+1059404734+1061140207+1062213465+1063640264+1066416760+1069596941
1221+1070036637+1067040944+1064608743+1065638826+1069180688+1072839117
1209+1073741823+1070876763+1067317904+1066645791+1068130743+1068606256
1198+1066332950+1062784120+1062197445+1065016725+1067458435+1067395202
1186+1065807424+1064352362+1062455324+1060034909+1058158059+1056205082
1175+1053759531+1052786038+1054385929+1054615285+1050950605+1046825194
1163+1045517956+1046567185+1046336982+1043445092+1040750518+1040189566
1151+1041327880+1042808274+1042833476+1041311926+1040443343+1040030476
1140+1037055622+1032796908+1032573739+1035925253+1036795529+1033228009
1128+1029187255+1029294054+1032408397+1032629352+1028597976+1023252003
1117+1017153754+1011763564+1009770864+1010856234+1016888582+1024192936
1105+1020603535+1011048797+1008462324+1011216679+1012353560+1010530565
1094+1008508690+1008115425+1009194283+1011878698+1015011927+1015765441
1082+1016646853+1019666901+1019297275+1016614227+1018017974+1022429396
1070+1026793670+1031132417+1035343918+1038283282+1039229098+1038216207
1059+1035906889+1032353695+1028316067+1027322582+1031688485+1036698368
1047+1034922781+1029668043+1028379430+1030787016+1033786681+1035799504
1036+1037655190+1040575343+1044014640+1044041730+1037471484+1031453724
1024+1032398173+1034533097+1032122190+1028471706+1026824473+1026107100
1013+1025203352+1023364598+1021055344+1019912993+1021185000+1024135955
1001+1025296931+1024821874+1026253036+1028559945+1030054275+1032744616
989+1036554321+1038584401+1038991341+1039403101+1039734892+1041139030
978+1043876648+1044456094+1042770439+1042355423+1044078979+1047586848
966+1051460371+1052426050+1049851494+1048476140+1051129948+1053753214
955+1054635473+1057724028+1064378345+1068695472+1066075331+1062761978
943+1063802350+1065634137+1065297006+1062717696+1059859148+1059437685
932+1061146849+1063760673+1066549737+1066171971+1062813163+1062522464
920+1065631532+1066335945+1062867344+1058542077+1056757894+1057857721
908+1058365469+1058217384+1062224210+1068821611+1072629818+1072417198
897+1070393240+1069328447+1067383155+1063862652+1063032816+1063835106
885+1061701484+1058279900+1057126869+1057193032+1056183723+1054512264
874+1053623298+1054239472+1054898105+1049750231+1039235284+1034688997
862+1039693736+1044738524+1042612195+1037802233+1035341964+1032096728
851+1027539826+1026312296+1028147600+1029915568+1030569903+1028560857
839+1024699381+1024077802+1026402880+1026837106+1025591668+1024895330
827+1024249265+1021535285+1018097096+1018270578+1019928492+1019691907
816+1021919694+1026712074+1027245870+1024408681+1025025898+1028943508
804+1029061442+1022197826+1014115732+1013190364+1017142618+1017755602
793+1020293950+1024958367+1020048184+1011486019+1008251593+1006034225
781+1002850267+998983387+992262386+985386137+983479200+986088856+989870820
768+991881233+989751518+984625850+981405815+983733628+988583444+989838194
754+984617775+974800925+967841712+966722543+966554466+966609949+967004973
741+963609958+957736506+952225648+945746245+939437655+937110754+939261633
727+940117648+934216910+925004578+918711161+917714616+920237661+922489022
714+924782190+929117030+933178687+934074947+931693605+929095931+930751044
700+935426336+936838679+933913968+932019079+934857244+937075849+931803919
687+925732370+925603756+928314284+932552029+935091159+931100613+926943944
673+927773585+925043130+915216902+915738977+928482426+935395208+934519592
660+931836871+933515623+937191569+934212482+923901169+915472176+919190647
646+931639619+932607381+918055328+909006775+913736899+920213175+918800768
633+905583238+880522685+864607846+889574234+941459334+963184588+948567935
619+926614498+920358069+942119010+953405574+927356030+905686324+912460919
606+930248376+931748892+915173336+900224176
##END=
