##TITLE=Sample description
##JCAMP-DX=4.24
##DATA TYPE=INFRARED SPECTRUM
##DATE=12/9/2023
##SAMPLING PROCEDURE=Instrument type and / or accessory
##ORIGIN=Default
##XUNITS=1/CM
##YUNITS=ABSORBANCE
##RESOLUTION=4
##FIRSTX=4397.6552
##LASTX=599.8556
##DELTAX=-1.9287962
##MAXY=1.838618
##MINY=0.21512556
##XFACTOR=1
##YFACTOR=1.7123465e-009
##NPOINTS=1970
##FIRSTY=0.23565698
##XYDATA=(X++(Y..Y))
4398+137622250+137258020+136567319+136196118+136226202+136986129+137826403
4384+137287677+135961925+136003147+137781709+139171379+138811865+137653047
4371+137200237+137962836+139254380+140189866+140240556+139661791+139453295
4357+139447534+138583241+137700082+138355366+139645109+139776155+139002913
4344+138807375+139604113+140328448+140024185+139040045+138372405+138171750
4330+138065470+138416829+139097593+139045780+138307817+137933327+138207594
4317+138268179+137757038+137628933+138163822+138966251+139698940+139541857
4303+138893779+138609400+138227035+137708410+137622877+138290352+139163164
4290+139138128+138539069+138459757+139137832+140045009+140779987+141538339
4276+142055101+141868622+141306130+140835298+140468005+139696008+138716924
4263+138697075+139590929+140592368+141440805+141457096+140248910+138925255
4249+138978460+140186663+140745204+140258926+139819727+139572393+139075489
4236+138686728+139198913+140295092+140721743+140350482+140037029+140212439
4222+140876050+141600734+141956523+142233366+142375751+142057877+142224202
4209+143195332+143421876+142440791+141486170+141441310+142202777+142753095
4195+142351211+141782758+141733877+141650937+141224495+140794363+141018697
4182+141866081+141818106+140876660+140704313+141173552+141316607+141035013
4168+140807982+140853416+140657530+140592289+141322864+141992506+141920731
4155+141551888+141299160+141321750+141735035+142412213+142829622+142663236
4141+142317585+142175792+142059705+141923167+141918399+142094940+142539073
4128+142920325+142986331+143167972+143457885+143367513+142916635+142452139
4114+141856213+141063905+140862249+141252568+141057683+140398257+140459555
4101+141168731+141557754+141461116+141501729+141820830+141967844+141979175
4087+142104095+142199575+142339393+142654377+142668205+141899593+141263115
4074+141910836+142731139+142376360+141650702+141383118+141314310+141323500
4060+141470279+141635238+141785821+141763830+141521883+141377262+141241751
4047+140999160+141119860+141917241+142915809+143349021+143153622+142869313
4033+142886839+142962452+142729686+142532451+142504152+142210853+141700461
4020+141444765+141553786+141689261+141836041+142183867+142442966+142468046
4006+142380754+142083392+141968062+142460884+142869948+142541353+141859389
3993+141542508+141858545+142477001+143026901+143387389+143366025+142842971
3979+142332979+142367031+142630664+142858078+143226015+143407421+143041599
3966+142393660+141953564+142136075+142470909+142403998+142456751+142554381
3952+142031832+141527957+141950866+142130436+141386947+141573783+142757785
3939+143267255+142809973+141525686+140579628+141305764+142130993+141341652
3925+140416792+140705096+140629239+139783291+140198750+142302113+143666764
3912+143030886+141262010+138375764+134568487+132634339+133872843+136928077
3898+140695593+141948987+138916231+136365628+138271416+139293853+137965621
3885+137951428+137323661+137103217+139643673+139378700+136074174+133611342
3871+132692617+134903834+136482072+134824949+135723537+139765347+141017139
3858+136854134+128422662+125632027+135203555+143140090+144480297+141164980
3844+136566779+132904376+129928733+129937696+133779651+136853072+138489997
3831+140132596+140625471+139929131+137455220+132399310+131431975+135092829
3817+137168849+141020489+145139348+144528907+140003995+136580685+136388489
3804+134617080+134098081+138151752+140694384+142551987+145423683+146612133
3790+146214669+145379833+144486841+144554892+144314964+143397579+145128470
3777+148097109+148134981+145198131+142662175+143370045+145454054+147366769
3763+147631176+145144709+144166800+146282981+145975768+141052757+138093874
3750+143677172+148712197+150857982+158746150+167723589+170196733+168319375
3736+167221699+171175590+179497597+186527625+188319945+187031551+186609147
3723+187706615+189806627+192130755+193221383+192356263+192735296+201437118
3709+216619687+230357378+240369803+249556650+261724955+274173835+282396881
3696+285494146+283122086+276188809+270585801+271326340+272546491+268906888
3682+261209315+251764396+241065351+231974332+230183561+229010071+225896498
3669+228407009+233099908+234416688+233886446+232835326+230347023+228059862
3655+228104086+225674627+218867044+217111395+225471309+234169146+238566901
3642+240296844+241617940+243163240+244335895+244123927+241304296+238125369
3628+241194735+246219692+246367490+242050735+236704354+235184691+235757730
3615+234752836+234464672+236065074+238646944+242650542+246000118+246705866
3601+246617069+247140749+247078859+246896896+247600399+246778581+243148237
3588+241126336+242998612+244697453+244991204+244907332+244686558+244362245
3574+244115120+243213016+240263584+236935101+237683907+241232816+243359927
3561+243998145+244326270+244204074+243675433+243576524+243949622+243951832
3547+243719170+243996004+244690839+245224423+245177675+244765121+244536689
3534+244540709+244431201+244022233+243659212+243515243+243313474+243164458
3520+243109356+242912913+242715147+242508696+242000471+241549976+241410915
3507+240845865+240136201+240593553+241669805+242043338+241975043+241992012
3493+241796579+241127154+240421685+240267970+240562591+240862590+240789736
3480+240202912+239778855+239877468+239935755+239970529+240168834+240220230
3466+240091559+239848368+239689379+239823479+239915966+239739851+239383810
3453+238758140+237932912+237550259+237963334+238469227+238781114+239353091
3439+239887179+240047021+240150995+240300203+240274618+239971886+239669311
3426+239382853+238793749+238396529+238754067+239495894+240105761+240309323
3412+240238173+240186291+240084475+240041121+240421111+241077569+241373983
3399+241110794+240860084+241142139+241836800+242334095+242308476+242061177
3385+241858608+241905687+242394349+243085651+243421190+243216515+243057212
3372+243226087+243398095+243701662+244316645+244957840+245351649+245490675
3358+245410858+245121441+245264557+246402386+247764313+248292153+248106883
3345+248087808+248555237+249371503+250229330+250608362+250536987+250302132
3331+250181763+250487280+251090272+251628990+251750368+251725967+251958611
3318+252053674+251967557+252050489+252208607+252238613+252152078+252389369
3304+253012568+253086919+252636390+252867433+253720491+254457549+255354135
3291+256684613+257644203+257906713+258646956+260214621+261379669+261650290
3277+261925993+262660266+263405713+264135165+264699015+264496288+263889920
3264+263952593+264760365+265183378+264779475+264346454+264152900+263732010
3250+263131490+262604676+261933912+261415244+261714686+262207230+261964161
3237+261387293+261299609+261701424+261824351+261293292+260313982+259234458
3223+258653622+258382062+257900134+257677132+257759716+257462292+257162850
3210+257425883+257290877+256311480+255473373+255056764+254585366+253932441
3196+253452899+253419761+253356304+252619977+251575349+250664021+249532981
3183+248161463+246846598+246094050+246023667+245750000+245214293+245095422
3169+245289968+245082699+244115555+242983627+242395602+242234072+241842927
3156+240967904+240311724+240688251+241172910+240336734+239194137+239618943
3142+241098733+241166488+239225134+237279899+236870844+237509185+237057524
3129+234957268+233618767+234525918+235380264+233567041+230860347+230532031
3115+232104447+232078236+229536362+227247721+227078185+227570659+225948293
3102+222854160+221267664+221879846+222487189+220624503+217631664+216831724
3088+218777551+219975320+217672773+214790730+214430738+215525195+215278697
3075+212967535+210967528+211199859+212850055+213078871+211211277+209685766
3061+210031243+211720372+212390980+211130781+209992396+210051240+210451088
3047+210188944+209402892+208734843+208343714+208239984+207998934+207102034
3034+206053995+205620417+205529253+205145208+204616149+204462782+205887626
3020+212059566+222520118+228414563+224611933+217050950+211263037+207653161
3007+205169974+203377289+202292143+201750032+201280705+200509848+199759737
2993+199823454+201063237+202414687+202531331+201839038+201510408+202088686
2980+203090621+203117493+201988176+201084784+201189976+201928705+202130926
2966+201265859+200288377+200203618+201412561+202432266+201246279+199106916
2953+198115180+198696556+200059527+200311612+199035593+197888975+198216943
2939+199699500+200188145+198864856+197441422+197079706+198020343+199084325
2926+198119931+195918312+194662552+194695968+195287247+195077176+193698715
2912+192523380+192565481+193686427+194565801+194159914+193357972+193100596
2899+193336756+193730896+193505718+192626953+192132147+192455921+193274953
2885+193893644+193786868+193361905+193192074+193406321+193806709+193925755
2872+193745916+193608438+193480986+193376038+193331152+193112240+192793165
2858+192648082+192655305+192569745+192161456+191479083+190782229+190405093
2845+190504838+190734262+190792706+190839803+190994266+191133467+191290106
2831+191622077+191908553+191891653+191779882+191756073+191743925+191658939
2818+191541286+191534794+191570403+191499359+191503588+191685220+191782389
2804+191785226+191968929+192227558+192269259+192202165+192265186+192460324
2791+192693978+192728943+192420468+192137160+192095807+191990075+191827362
2777+191940107+192132652+192073251+191992024+191917203+191551067+191185802
2764+191244228+191555296+191799636+191847794+191770606+191795738+191969312
2750+192168783+192332837+192461473+192627162+192743511+192600012+192272496
2737+191998673+191857819+191834758+191984575+192279597+192492975+192551297
2723+192680350+192916702+193031971+193047983+193095688+193152357+193175400
2710+193087804+192981776+193043022+193174356+193247332+193304541+193327532
2696+193278434+193277303+193401640+193542354+193656892+193799138+193903164
2683+193907620+193842110+193695687+193545000+193484102+193379397+193170022
2669+193062498+193134430+193206711+193170979+193059940+192907425+192751969
2656+192590787+192341295+192114725+192188154+192420886+192414168+192191200
2642+191997402+191859403+191736789+191636697+191453550+191149705+190905991
2629+190838149+190857068+190740249+190443470+190269722+190341968+190377368
2615+190186668+189851913+189531429+189361718+189272138+189079193+188851962
2602+188745569+188688883+188574849+188487357+188486035+188435284+188280907
2588+188112746+187917956+187663591+187467409+187444191+187483891+187382493
2575+187214889+187125465+186956155+186652449+186434215+186345801+186206845
2561+185974322+185758856+185487574+185144064+185093991+185409306+185551953
2548+185286275+184966818+184811344+184756312+184722982+184616589+184391516
2534+184176102+184141102+184242726+184324648+184285958+184112680+183981765
2521+184036310+184151910+184139762+183986847+183814213+183687770+183623304
2507+183598520+183556350+183542443+183624366+183743394+183834924+183896501
2494+183898781+183894638+183994313+184157549+184346439+184582355+184797525
2480+184918259+184902456+184773159+184684292+184720911+184781966+184776257
2467+184748306+184811083+184994177+185189507+185313704+185384853+185463834
2453+185588676+185725840+185876631+186072639+186237529+186346184+186515964
2440+186788864+187102213+187375879+187537113+187613449+187687104+187710339
2426+187639155+187637885+187806220+188049985+188334477+188619526+188759266
2413+188719932+188685994+188847454+189178346+189488475+189625760+189666486
2399+189922957+190711410+192422034+196097351+203480932+216353382+235833387
2386+261554079+291525319+323347028+355613628+388299638+422262990+458545580
2372+497026725+535610521+571484282+602609538+626776976+642446623+649972763
2359+647903104+631174157+600305407+564082410+530698206+511453038+516264095
2345+540536969+555875794+547826618+533500450+523227238+519021610+521893784
2332+527359490+527273756+521572604+516546464+513382836+507647015+496886933
2318+481468988+464962121+456633988+459544521+462193537+452415828+430374126
2305+405363724+386977776+375840158+366175996+355214580+342468659+327080406
2291+310633584+295799591+282954935+271620161+262161074+254741031+248901463
2278+244023242+239625539+235602483+232041130+228968057+226374752+224176806
2264+222211486+220419845+218760756+217144237+215593699+214188086+212916209
2251+211700218+210579480+209634475+208854063+208259233+207791404+207295797
2237+206774849+206345622+206036555+205797628+205599636+205477127+205439916
2224+205385980+205314726+205328702+205396161+205447208+205477422+205513119
2210+205563731+205662796+205932616+206327905+206575047+206638416+206795560
2197+207129585+207459781+207733169+208021437+208321367+208538678+208551296
2183+208474143+208576846+208799187+208925856+208938735+208874722+208827608
2170+208950396+209175678+209310823+209355291+209329342+209166210+208965660
2156+208888854+208903056+208872964+208727516+208562157+208540801+208677513
2143+208905928+209130636+209320709+209629097+210078913+210501979+210806346
2129+211066072+211411392+211800659+212084942+212228441+212345868+212550369
2116+212837890+213116046+213342564+213658680+214127780+214593434+214919401
2102+215120526+215319406+215620745+216086521+216706482+217394912+218080888
2089+218753202+219447132+220227161+221201110+222433827+223910989+225478653
2075+227009351+228698689+230687331+232783026+234862258+237143327+239775565
2062+242628926+245704540+249038696+252517257+256048866+259636099+263261953
2048+266809069+270190948+273319802+276218815+278954330+281443730+283667313
2035+285517085+286799770+287596873+288178736+288522943+288346010+287710385
2021+286891961+285952699+284838680+283533856+282050586+280452290+278838104
2008+277192502+275494671+273816958+272182983+270571112+269059490+267639380
1994+266025611+264422076+263470475+263032145+262582294+261996132+261394898
1981+260899813+260513071+260219859+259986989+259784698+259510248+259035178
1967+258767743+259136767+259711686+260153566+260659250+261202980+261765263
1954+262518194+263363490+264020035+264374684+264464700+264504886+265326460
1940+267171707+268841935+269781232+270451996+271184007+272036282+272935462
1927+273532832+273505820+273389524+273494386+273477016+274132796+275633331
1913+276513279+276497789+276599901+277278828+278132165+278779799+279142593
1900+279281236+279241450+279221139+279444785+279343997+279010494+279745759
1886+281208145+282291776+283062372+283655217+284016776+284245730+284319246
1873+283531838+281257782+279344536+280430308+282997158+284485963+284677011
1859+284347059+284051184+283816782+283511492+283032332+282054293+280078618
1846+277299122+276237176+277931457+279179073+278887271+278459924+277855035
1832+275480573+272409693+271767976+272601994+273403866+274606473+275375573
1819+275291144+274971634+274320989+272882413+271569462+271731096+272544072
1805+272491389+271227866+269586546+269180032+269817346+269116036+266759919
1792+266590540+270007280+272856985+273609707+273471899+273092762+273168419
1778+273833510+273101882+269819730+267130928+269353101+274043877+277364980
1765+278051495+277104349+277365676+278678558+279639540+280535257+279892461
1751+277315708+276315130+278538087+281340540+282659861+282595969+283003075
1738+283572459+281637075+280416820+284766121+290028856+293795825+296012968
1724+296850885+296532663+293359532+288136931+287828508+293994235+300082877
1711+303256217+303066161+300929704+299963518+298998480+295924345+295290373
1697+299016198+305714028+313154364+316775310+317141498+315141840+310402837
1684+310214313+318682830+325874840+328074857+327703622+328646278+329802799
1670+330785067+336162497+342657915+345257676+347382785+352467439+356624474
1657+355462767+349008458+348303790+357795162+362284238+364892040+373903713
1643+383425577+388112262+388043132+384619726+385574844+395226997+403196078
1630+406137209+407423462+408587084+409911348+413577058+416908847+416781169
1616+418475763+425051380+430606056+433596546+436155790+439632105+443694147
1603+447914639+452525162+457331938+461745966+466287394+471803537+477888769
1589+483823382+489623774+495904491+503119440+510683382+516017232+518392094
1576+523906009+533472916+539661842+544275847+552870580+563154792+571440911
1562+574711088+572395367+578554044+598547356+616399651+630250054+641336850
1549+651310115+659455433+664069263+665539306+669408021+686643087+707055566
1535+719867623+730526481+742671672+751986216+758506661+765288450+771431290
1522+777987658+787780126+798942248+811644519+824906654+834340661+837966689
1508+837823625+846032990+865832000+880700141+887708813+890893605+896428406
1495+904931836+910202368+911556498+914352477+922405412+931924701+938803815
1481+942910691+945553162+947025155+947229343+948439156+953887422+960559285
1468+962398858+959596754+959356921+962149697+960181749+952569632+951756987
1454+959842225+964735570+962959906+957870309+955272253+954477709+951995636
1441+947682066+939745392+928155052+921596665+921054136+919133946+916217042
1427+915805115+916704226+917536990+917359744+917343871+921991953+929891104
1414+936609471+942138702+947805289+951138853+950500600+950888578+953796989
1400+954644721+954814031+959474714+968768303+977338983+980004150+977378596
1387+974274630+975065624+978049917+979756173+981316788+983614375+984138177
1373+984997953+989890323+994313193+994831774+994065424+992732040+992117735
1360+993300467+993349548+991664874+989653972+988151974+987962963+988093983
1346+986674552+983902731+980010834+975951924+974402587+973145921+968962257
1333+964588259+963427805+966001007+969166585+969531659+968605816+968570520
1319+969488914+971568040+974570643+977552918+979717326+982351722+987334734
1306+991976064+993109715+992632209+992903160+994572866+997457607+999799122
1292+1000276489+1000747591+1005155354+1013262034+1019207577+1022078464
1281+1027116404+1033594244+1036466314+1038459045+1044455967+1050152906
1269+1050736927+1049618592+1049959091+1051863130+1054422617+1055305855
1258+1055362036+1056296929+1057235443+1060376585+1067199448+1072454038
1246+1072982366+1072265445+1072655720+1072725825+1071086611+1069157162
1234+1068939329+1070354444+1072342511+1073741823+1073349180+1070895651
1223+1068936892+1069511585+1069943213+1068635936+1067187683+1065865368
1211+1064710414+1065093728+1066762111+1066191248+1063195189+1061494155
1200+1060546800+1059525650+1060614607+1062001945+1060924544+1060182979
1188+1060342263+1057476668+1053276156+1051411869+1050370391+1048660446
1177+1046865916+1046379081+1047214839+1046149064+1043553724+1042943944
1165+1043021637+1041095878+1038411844+1037543923+1037013020+1033855170
1153+1029965710+1027609992+1027123227+1029219062+1032081386+1032737600
1142+1031187427+1028355666+1025215289+1023992737+1024195045+1023863805
1130+1023744272+1023350028+1021621704+1019579404+1018038142+1017163259
1119+1016714435+1016243891+1014840541+1013185106+1012857974+1012096358
1107+1010653953+1012222505+1015541241+1015346869+1012565162+1010703938
1096+1011111618+1016169330+1023304916+1025451571+1024683899+1027994838
1084+1032438941+1032439637+1031289069+1030936595+1030091091+1031604158
1072+1036250499+1040797149+1043593754+1045882290+1047343770+1045143788
1061+1042210175+1043792512+1047150094+1046460742+1043611785+1044165522
1049+1046582781+1046245693+1043945183+1042978822+1043813675+1044603695
1038+1044294036+1043672909+1043112697+1040539216+1037164090+1036887778
1026+1037865486+1036663958+1033100029+1029827310+1029355094+1030652138
1015+1032932390+1034607109+1033649311+1032445485+1031723064+1029541043
1003+1027990382+1031007675+1037109371+1039795701+1037543296+1035233945
991+1034319797+1034118742+1036987470+1043208073+1047656701+1046233928
980+1043764734+1045786287+1049169559+1051404699+1053685090+1055967987
968+1057710791+1057823920+1058473799+1061257316+1062689696+1063161564
957+1063856137+1063295577+1064619424+1068011188+1068446716+1067112705
945+1066835279+1066038228+1065053837+1066123788+1067937464+1066751181
934+1062217272+1058574884+1058981520+1061228355+1062206202+1063228118
922+1064730812+1063985835+1061657825+1060645448+1060998617+1061584449
910+1062228689+1063425623+1065189869+1066776592+1067990025+1068337764
899+1066810426+1063054144+1059744179+1062362772+1068133506+1067356157
887+1061043938+1056645852+1056270962+1057985224+1057754859+1054221771
876+1051020062+1050965203+1052220059+1051103881+1047625025+1044067919
864+1039803916+1034433204+1031139948+1031469378+1032862007+1034053371
853+1036139738+1037123433+1034318266+1029642127+1026207896+1025842752
841+1028470604+1031057799+1030509144+1028409898+1029943223+1034010904
829+1033629888+1029992373+1028824609+1029008817+1027688869+1025050853
818+1022274785+1021378878+1024407100+1030163214+1033453198+1032022280
806+1029868315+1029504702+1028856981+1024802249+1016394682+1008717890
795+1007059740+1007841336+1006570121+1006730032+1008870004+1007895568
783+1004482361+1000166354+994002072+990222260+990376602+989882387+987614945
770+984677574+981304327+978867784+978810837+980604741+980241337+974957786
756+968460524+965020027+964150086+963168828+960098626+954593761+949556587
743+948000775+947335928+944225000+940765845+939853577+939950485+937536776
729+933698276+931390108+929486487+927901366+927027527+922006921+912739648
716+905969694+904431147+908664866+915590485+919267194+921755602+926214534
702+930377103+932130977+930062293+927674482+930168390+935174376+937062960
689+933922793+928601300+924712188+923241448+925657315+933006069+940410726
675+942037270+941301621+942967499+944989121+946073623+944969420+939364445
662+934877249+937573952+942778696+945079833+947147891+950838315+952123106
648+948538431+943169598+939294758+939608315+942292000+942693067+953542537
635+978168476+973613751+935852242+911756927+908274938+908635626+908825473
621+911680974+919659628+932286363+936937091+925619722+913613069+909788283
608+908227180+907838993+911782268+918631586+919964761
##END=
