##TITLE=Sample description
##JCAMP-DX=4.24
##DATA TYPE=INFRARED SPECTRUM
##DATE=12/9/2023
##SAMPLING PROCEDURE=Instrument type and / or accessory
##ORIGIN=Default
##XUNITS=1/CM
##YUNITS=ABSORBANCE
##RESOLUTION=4
##FIRSTX=4397.6552
##LASTX=599.8556
##DELTAX=-1.9287962
##MAXY=1.6729739
##MINY=0.11916839
##XFACTOR=1
##YFACTOR=1.5580783e-009
##NPOINTS=1970
##FIRSTY=0.12066647
##XYDATA=(X++(Y..Y))
4398+77445704+77332325+76977499+76633641+76724665+77271088+77421006+76802739
4382+76484212+77129625+78174290+79092697+79429970+78864725+78394439+79038533
4367+79926551+79926905+79351886+79233926+79931041+80542905+80550824+80267955
4351+79670987+79415036+80200894+81126881+81582051+81873499+81765074+81254070
4336+81006520+81291426+81715973+81721214+81314265+80863035+80610139+80864460
4321+81644111+82400044+82586614+82641702+83041546+82869894+82154961+82147827
4305+82582368+82998709+83665278+84139767+83908457+83208663+83016833+83858601
4290+84539879+84248488+84075871+84866014+85603460+85214251+84482142+84169023
4274+84050240+84308913+84850109+85376511+86277450+87193959+87173904+86744250
4259+87052406+87420803+86615330+85816312+86399991+87086644+86790338+86183658
4243+85962887+86382929+87171676+87720992+87844031+88033987+88081270+87178351
4228+86343995+87008001+88353495+88950812+89200829+89722611+89930968+89988074
4212+90114478+90053060+90198439+90452081+90587112+90730818+90595366+90365748
4197+90830224+91645520+91867878+91842821+91979010+92005272+91955932+92091509
4182+92484294+92687468+92557390+92542806+92661435+92642183+92559408+92725197
4166+93018902+92910534+92416678+92109221+92235741+92832637+93676490+93993683
4151+93784972+94002807+94782697+95194744+94905229+94653060+94972003+95523959
4135+95641001+95375701+95095692+94625133+93952367+93610949+93917995+94440935
4120+95009379+95785654+96271533+96290795+96442123+96730424+96479814+96180706
4104+96688114+97038369+96705788+96689998+97152494+97612676+98057517+98271440
4089+97842006+97085337+96846519+97371457+98100239+98736079+99274808+99563013
4074+99653860+99523314+99283396+99111812+98772727+98401470+98511951+99288379
4058+100110962+100327994+100330997+100544336+100922537+101200442+101028944
4045+100888347+101490006+102212896+102126506+101588609+101444501+102030657
4031+102707832+102534641+102123082+102473079+102992116+102776653+102292065
4018+102399830+102827170+103127836+103330809+103376448+103526781+103849416
4004+103761974+103382922+103176421+102857908+102624388+102906540+103274517
3991+103885233+105096718+105927966+105743825+105187785+104645154+103910797
3977+103051163+102610922+102941878+103753243+104371361+104430198+104210651
3964+103987852+104029904+104395041+104685953+104777928+104540000+103732250
3950+102984561+103358898+103410810+102166674+102934131+105981858+107520685
3937+106283931+103193282+101451435+103313766+104882594+102939305+100881719
3923+101623794+101870167+100424330+101748123+106654978+109952761+109899127
3910+107632983+101549234+92655639+87709219+89581813+95786916+103424028
3896+106358424+102066216+98466724+101090774+100903094+97367900+97885550
3883+97761986+98335900+103504765+103117029+96944299+92028684+90632856+95254862
3867+98488223+96730118+98943508+104712368+105123095+96283918+81369993+79259672
3852+97167614+109155981+110070185+104916632+98404243+92936691+88886629+90747086
3836+97951368+102369800+104393903+106813422+107853754+107201512+102642712
3823+93872137+93159509+99453345+102855689+109973486+117049402+115585537
3809+107952452+103126823+102972358+99195448+98877394+106596352+111045148
3796+114593818+119610934+121607876+121039624+119466243+118148313+118720859
3782+118478226+117286996+120275437+124790616+124791917+120460430+117036338
3769+118392410+121112031+123633080+124102777+120004667+117486631+119193149
3755+116626778+106703428+100648592+107487575+110927064+108872146+117721461
3742+128488845+126928318+118108518+113379492+120160461+133551446+142876943
3728+144390960+143579758+145618867+149911104+156171544+163113624+166493665
3715+163299392+158127897+163329594+177900304+189486531+193931789+196152754
3701+204192473+215799205+224503016+229189301+228904261+225507445+229779636
3688+246835979+262957479+271322980+274696976+274659524+271328603+274052911
3674+290433743+303059404+311886071+329466664+346662619+356914561+364684466
3661+371849441+376888229+383543797+393133618+395013213+389136176+394277832
3647+417350671+440644357+455961445+465829687+474712207+483181839+489487640
3634+493640857+494810970+497460029+512856306+531311279+540346284+541467354
3620+541870181+549413692+560159012+568391193+576128620+583440648+590744948
3607+600961505+610690957+616540297+620755373+625477790+630425338+635962553
3593+642931241+647458365+646427922+647391418+656210549+665636255+671219300
3580+674338172+677305707+681661142+686012062+686667451+682473377+679499798
3566+685819179+696080685+702664104+707211963+711889889+715948233+717185866
3553+715111132+713987193+715957185+718150663+721151786+727354106+733488409
3539+735604153+734772637+735210965+738499767+742265842+743022607+739786367
3526+737644074+741340983+748055694+752053825+751869282+750325530+749660042
3512+749793629+751562704+754975606+757165336+757303667+756190975+754973617
3499+756863655+761445254+763338888+761576087+759465317+758441607+759623234
3485+762242723+763271789+763779894+766529221+768814742+767618501+766087450
3472+766210708+765715609+765399162+767969454+771219695+769868214+765733742
3458+765342315+766589588+765046984+765628999+769614888+769243583+765726091
3445+766948652+771056192+772342792+771105312+769953829+770257882+772403082
3431+773496264+771368737+769370055+770193154+772611344+775152333+776614830
3418+775417212+772865129+772138892+774298552+777543438+779134549+779539060
3404+779104863+775483164+770204325+767368694+767530743+769100967+771121685
3391+772043713+773194047+777325612+780155964+778808462+777732036+777724614
3377+776543599+775041316+774046068+772482194+771282816+772253504+773470862
3364+773651044+774890743+776420111+775566101+773113176+770966522+769174647
3350+767329368+767012002+769883975+772273244+770396825+767708630+766536184
3337+766151336+768956745+774470778+776978025+773220673+767101443+765207197
3323+766116830+762748686+755956470+752891844+754223126+753666971+750936772
3310+752307075+756938559+758063339+754602847+749729208+745704069+745230546
3296+748812077+752875624+755706664+757367629+756602525+754743244+754572702
3283+756678347+759399747+759527520+756735041+753653276+750816115+748024249
3269+747113545+749872894+755928774+760216573+757203897+751970429+751074185
3256+750837768+747906040+744522059+742762471+742029118+740509697+740850628
3242+745473466+748099382+744035452+739742450+740277794+741152921+740090496
3229+740896381+742143578+739582237+735557099+733528577+733421845+734474246
3215+734176391+731323545+729234657+729184007+729959670+730455305+729184542
3202+726883337+725026046+723533862+721387974+719272077+719967404+721353620
3188+719027626+714747172+712183383+711761887+712309089+712272977+710369932
3175+708113485+707810733+709179123+710074678+707782272+703740377+702232050
3161+702896620+703057751+702070766+700225180+697998803+695585739+693118736
3148+690599629+688448155+688782582+690653263+689224889+685140914+682568479
3134+680775457+678318935+676957279+677310757+677616875+676571283+674263804
3121+671429245+668510753+665728450+663543235+662231999+661619915+660078995
3107+656450945+652849751+650991541+649953677+648576106+646798080+645373455
3094+643821440+641212280+639380658+639526334+638957288+636397324+634124466
3080+632980711+631376440+629030094+627988098+628779484+628901097+626537842
3067+622970580+620796727+620194895+619302822+617980759+616689951+615069651
3053+613593076+612636427+611670942+610266936+608470624+606827676+605350757
3040+603382066+601173783+599046142+596780476+595400112+594862014+592576379
3026+588746725+586184428+585134092+584342056+583320603+582050988+580988947
3013+580367758+579536051+578351134+577768851+577614338+576905545+575960029
2999+574972317+573674202+573107375+574664822+578301899+583109855+588185826
2986+591972520+593081693+592146123+590528309+588393591+586103097+584622773
2972+582930629+579388539+574981460+571145799+567746784+564396735+560597761
2959+556354530+553256009+552097182+551350746+549633047+547954064+548062709
2945+548578198+547214284+545360321+544706386+544527045+544290628+544088755
2932+543427552+542154953+541092567+539802257+536829519+532456717+527718156
2918+523049794+518630015+514816618+512498505+511406356+509848680+507425899
2905+505166431+503588364+502380302+501206938+500158706+499325278+498189327
2891+496457742+495069728+494619426+494538133+494343529+493503674+491952347
2878+490320112+488428161+486182158+484071273+481889118+479575327+477617960
2864+476078914+474713929+472949406+470358724+467561922+465055134+462434956
2851+459171671+455475336+452643607+451174491+449689079+447316987+444973204
2837+443515297+442542773+441239570+439370458+437538415+436107210+434620726
2824+432954635+431325880+429714493+428120895+426394551+424391852+422578133
2810+421414065+420434654+419081490+417575114+416039511+414287957+412589846
2797+411123752+409515617+407772059+406187603+404527288+402717510+401119168
2783+399501584+397584347+395969708+394887888+393753544+392345599+390822582
2770+389280284+387704283+386096645+384686749+383485802+382203564+380915625
2756+380125731+379937018+379537327+378350573+376949858+375936860+375189238
2743+374483429+373775286+372953258+372003954+371078905+370191651+369457686
2729+369075593+368678848+367771013+366555836+365445478+364602332+364075443
2716+363586962+362859845+361988467+360973020+359857842+358923688+358098982
2702+357047001+355771457+354500350+353403458+352587015+351764642+350512128
2689+349186202+348369338+347803811+346951522+345859029+344959840+344404566
2675+343887011+343145089+342236450+341308379+340446029+339759080+339345541
2662+338912186+338131970+337456919+337130372+336560139+335941591+335949854
2648+336155476+336028774+335701195+335260074+334875570+334839802+335071284
2635+335249898+335221474+335002846+334733835+334589919+334438466+334113412
2621+333892220+333857025+333659245+333286066+332866368+332353633+331883667
2608+331422003+330780960+330152350+329628598+328989812+328239321+327662088
2594+327308609+326759723+325847948+324936211+324221374+323557034+322813008
2581+322103297+321433065+320526015+319615808+319181974+318890737+318334296
2567+317870719+317701612+317447865+317003550+316647049+316342843+315997724
2554+315935253+316187623+316341428+316368972+316573561+316959097+317262231
2540+317454866+317626115+317645951+317547176+317544230+317604501+317627684
2527+317641991+317577225+317392682+317215311+317082221+317015543+316922276
2513+316555409+315940207+315287764+314847963+314636029+314321628+313867061
2500+313351935+312721259+312177958+311800437+311381523+310988202+310832828
2486+310797078+310651460+310435815+310279447+310097467+309669200+309121652
2473+308834815+308686576+308366092+307989355+307760111+307721874+307744655
2459+307620269+307353285+307075533+306683436+306089581+305607355+305368527
2446+305119122+304848428+304696766+304536457+304216070+303838624+303442950
2432+303004278+302723790+302617670+302437144+302204055+302081849+302001933
2419+301908571+301894168+301941758+301964328+301925289+301844169+301787723
2405+301717678+301572365+301463567+301562878+301896770+302266851+302394757
2392+302168133+301686882+300986754+299838122+298009426+295272590+291310744
2378+286219470+280578278+274914170+269479020+264361236+259546432+254938035
2365+250992582+248654537+248011677+248638929+251161020+256322454+263731019
2351+270973805+274019935+271294843+265692881+261909400+260973333+261455540
2338+262455666+263363673+263913611+264467470+265687372+267484010+269124165
2324+270603973+272618569+275220193+277886716+280130080+281736837+283115938
2311+284657854+286225017+287676077+289069504+290381372+291484117+292395242
2297+293171689+293782816+294271508+294713968+295144186+295520120+295763098
2284+295849766+295709311+295316201+294834548+294465251+294289698+294171700
2270+293889816+293466809+293164574+293095045+293096269+293140415+293279378
2257+293284198+293104647+293019739+293065741+293066468+292971385+292896060
2243+292919759+292982899+293066047+293111341+293052428+293079092+293334542
2230+293608219+293662446+293517650+293372166+293412257+293613881+293793891
2216+293848214+293804029+293767132+293791730+293871702+294110931+294492317
2203+294740058+294817773+294857846+294749086+294591513+294668157+294795585
2189+294784530+294827777+294907635+294882750+294859414+294842065+294759683
2176+294718444+294705705+294601497+294547385+294719859+294952355+295089615
2162+295189270+295269663+295380489+295499252+295531252+295580066+295754701
2149+296083543+296516841+296863280+297077204+297257921+297418880+297641468
2135+298038615+298454277+298696605+298856340+299072310+299315077+299508783
2122+299685943+299837491+299834794+299760827+299842120+300089650+300369984
2108+300534616+300545805+300570824+300757070+301065522+301369919+301631106
2095+301843365+301937091+301989003+302160673+302393112+302538712+302627655
2081+302744276+302879087+303005138+303121033+303301138+303501730+303450563
2068+303110723+302878322+303087139+303515444+303798418+303966741+304140898
2054+304241050+304227450+304295717+304447456+304438256+304324867+304325441
2041+304523795+304817920+305053170+305237790+305370631+305442666+305510416
2027+305550297+305564624+305604505+305515045+305199114+305048083+305429296
2014+306070224+306511058+306684373+306758244+306855585+307012795+307141026
2000+307187717+307337715+307389915+306696520+305895857+306336653+307600605
1987+308569323+309000575+309156044+309307898+309571037+309981573+310392797
1973+310738146+310851114+310376022+309987942+310553641+311394090+311867383
1960+312250203+312461774+312374743+312294216+312298826+312151983+311604589
1946+310352151+308605417+308112365+309573083+310945528+311192638+311006029
1933+310930589+310996197+310989330+310411944+308907385+307602595+307039210
1919+306464368+307189381+309376968+310322886+309589686+309117483+309878723
1906+311035925+311642423+311845214+312039226+311842154+311355394+311354840
1892+310929633+310022142+310875023+312868274+314080697+314772983+315337611
1879+315773529+316134659+316222416+314775565+310826172+307805271+310127249
1865+314826903+317532447+318242120+318436705+318897336+319579083+320105417
1852+320105819+319110896+316538519+313017182+313005649+317844782+321676330
1838+322721348+323358068+323523522+321038042+317852797+318215380+320407519
1825+322982019+326708500+329418997+330319028+330974761+331376288+330448446
1811+329520795+330782337+333143488+334050137+332589820+330739683+331510564
1798+333700676+333194483+329975076+330480389+336917979+342162847+343642751
1784+343967385+344317229+345347595+347239508+346834538+342364912+338914787
1771+342666631+350170509+356596278+359360180+359032447+360324556+363302764
1757+365883730+368371964+367985166+364708758+364956767+370574815+376766271
1744+380691220+382917789+386288457+389597993+388491499+388950906+398978482
1730+411087410+421477301+429425934+434914756+438555277+437833362+434516558
1717+439390427+454158323+468780351+478855019+483671697+485843905+489725931
1703+492741591+493060678+498503364+510205410+526447394+543766149+554502709
1690+560734486+563990006+563374058+570389187+590088603+607139074+616428018
1676+621960183+629742215+637462885+644127711+656462728+669634462+676278937
1663+681231688+689858396+696595983+694479628+683764185+681728700+696106622
1649+702747654+704786505+716033083+728643996+733065306+729626926+721425387
1636+719487760+731212835+742197824+746468332+749318117+753731623+760677089
1622+772809200+783999696+789838821+799322522+815036470+826023525+829859071
1609+831224171+833771510+835781363+835035845+833276105+831289817+827413797
1595+821422186+814565701+807358646+799475467+790740803+781576380+772803921
1582+764072547+753355344+739146434+727919519+725055502+720376123+712078563
1568+709149437+710439327+709666954+702548191+686246260+679184804+695516115
1555+711605576+722680847+731635785+740062723+746111487+747881021+747622339
1541+752854354+779149239+812010405+832467925+848071621+865977976+878944433
1528+884160840+885467409+882405384+875283637+869626836+864866279+859980780
1514+855104386+846031240+830536724+811301230+806402953+823780086+837796649
1501+841761115+841846194+846163756+855410887+861485741+862567369+867081410
1487+880956964+896881775+908176402+915527374+920450898+921432757+917898662
1474+915581849+924423321+939248371+947619992+949929996+952813139+954693614
1460+948611874+936069667+934388885+945372038+952608168+952640073+948217998
1447+944094620+942979786+942454618+938884487+929296808+917064163+914209634
1433+917140367+914050798+907612902+903936728+901923890+902592209+904753936
1420+906639230+914898611+927247934+935209460+939804296+943745273+944899969
1406+943925302+945245566+946962767+945010832+942327075+943214979+947812645
1393+952825075+954290633+952600058+952189579+955623063+958834513+958837879
1379+958753947+959407117+958461142+958037962+960241770+963456050+965851057
1366+964793377+960282244+957685938+959272306+961261195+961281853+959914381
1352+958901689+959002224+959092965+958632602+956741339+951459899+945340516
1339+943018117+943406102+943710461+943613828+942828678+941526010+940731602
1325+940798319+941439171+941701143+941933046+944585205+948543320+950586991
1312+951386755+952196924+953003268+954730951+957055032+958385549+959278962
1298+960739700+961764022+961928137+962513977+964089940+966223128+969118360
1285+973181525+977745909+981233715+982913961+984536901+987665108+990687041
1271+992252828+993850290+996037953+996957532+995547521+993647613+993672173
1258+995282412+995982254+994430315+993175085+995167111+998453847+999483219
1244+998589041+998100752+998453694+999205257+1000645031+1002995432+1006074366
1231+1008677099+1009959261+1010676623+1011161470+1011486563+1011756568
1219+1011804693+1012730317+1015394028+1018394310+1020249076+1021107676
1207+1022479509+1025342454+1027914965+1028834009+1028724675+1028181987
1196+1029432933+1032906507+1035258133+1036409080+1037849619+1038587103
1184+1039372942+1041099094+1042025789+1042158994+1043558294+1045718873
1173+1047008839+1048010743+1048795664+1049331161+1050920972+1052639244
1161+1053666626+1055429427+1057420153+1058454345+1059562446+1061061515
1150+1062124245+1063812372+1066511125+1067434683+1065058115+1062222638
1138+1062585297+1064989562+1065197364+1062779481+1059861295+1058576226
1126+1060667869+1062991032+1062133656+1060504136+1059380198+1058075388
1115+1056912047+1055664467+1055634169+1057352670+1057167362+1053878407
1103+1051111330+1049702084+1048101485+1047061402+1047520388+1050437961
1092+1054564017+1054702119+1050610875+1047921838+1048816169+1051846136
1080+1056039292+1058763370+1057321990+1054110387+1052292345+1051459070
1069+1051025408+1053220111+1058411346+1062511312+1062867544+1059062832
1057+1054781077+1056273873+1060166878+1059199939+1055768751+1054834329
1045+1055948091+1056728345+1057481744+1057488324+1052719044+1044949866
1034+1040254189+1040140418+1043197164+1047093765+1050074766+1051843382
1022+1051084781+1047426050+1041423728+1034601138+1030813258+1031074771
1011+1033548430+1036140987+1035127989+1030698569+1027696910+1027776711
999+1030192452+1033989513+1036368682+1036920323+1038176548+1039388397
988+1039983495+1042676128+1046371507+1048228339+1048974622+1049127490
976+1049044323+1049912640+1052359674+1056274179+1058712185+1057497811
964+1055744421+1056738138+1060522881+1064521088+1065384203+1063452926
953+1060500693+1056690090+1055405632+1060186006+1067136675+1071253167
941+1072976642+1072972510+1071481321+1070048204+1068891901+1068027257
930+1067092605+1065586956+1064712900+1063899900+1062714676+1062886136
918+1063153081+1062123251+1061544296+1062415597+1064423920+1065255971
907+1063337395+1062361198+1064905477+1069308195+1073315736+1073741823
895+1069244538+1063107864+1058968112+1057334920+1056381982+1055004564
883+1053095246+1049115248+1043484767+1040293822+1040052431+1039569344
872+1037604938+1034246129+1030392680+1027533025+1025233886+1022841327
860+1021654650+1021952581+1022878358+1023904516+1023089603+1019772263
849+1015941920+1013795189+1014581487+1015751485+1013958692+1010314958
837+1007325082+1007485831+1011921984+1015543300+1013289149+1008585669
826+1005484394+1004000320+1004642549+1006661966+1008165856+1009194080
814+1009400275+1008753762+1007564330+1005524638+1005112170+1005148819
802+1000782520+996270086+995956010+994419757+992605694+997927991+1002696352
789+996044074+986053262+982241664+982514882+980461342+975691680+972007701
775+968529076+966008133+965865671+963702108+958649204+954913505+952975571
762+951801289+950760670+950304668+958412864+970841682+964713117+945970580
748+935685125+931605052+927434926+923862576+921736274+920628862+917427740
735+910928483+905394711+903439716+901468653+896867314+890634772+883654264
721+877521262+873644324+872970879+875254410+876498776+874675455+873222522
708+873136600+873436215+875486466+877333811+876913616+876441011+874988536
694+872997657+873110969+871775862+869508704+869211996+866627703+865193591
681+870156365+875637421+878362724+879432187+879796606+878379327+870990559
667+867209412+874046004+878026843+879015511+882319003+882892526+878898297
654+876130072+872959249+870290717+872729718+873529864+871942502+873506605
640+872122072+867821266+863960778+854613495+847424801+852261563+859097008
627+860141758+856554259+849633429+845636905+843539830+840009255+842194164
613+845360549+839482786+834133710+832393404+828000249+829182030+834889328
600+833495537
##END=
