##TITLE=Sample description
##JCAMP-DX=4.24
##DATA TYPE=INFRARED SPECTRUM
##DATE=12/9/2023
##SAMPLING PROCEDURE=Instrument type and / or accessory
##ORIGIN=Default
##XUNITS=1/CM
##YUNITS=ABSORBANCE
##RESOLUTION=4
##FIRSTX=4397.6552
##LASTX=599.8556
##DELTAX=-1.9287962
##MAXY=1.7705162
##MINY=0.16109592
##XFACTOR=1
##YFACTOR=1.6489217e-009
##NPOINTS=1970
##FIRSTY=0.17449915
##XYDATA=(X++(Y..Y))
4398+105826224+105757254+106053692+105766237+105285492+105257441+105346653
4384+105466302+105372201+104977875+105329275+105958579+105398417+104542070
4371+105090177+106647499+107452480+107266066+107178345+106928818+106279760
4357+106152872+106593585+107198588+107494077+107063811+106845335+107500990
4344+108319789+108480049+107955556+107508599+107589949+108244412+108758495
4330+108014007+106962372+106843455+106926279+106730801+106449572+106401785
4317+106863571+107105634+106652135+106170350+106493853+107700353+108549877
4303+108153455+107507840+107940961+109031473+109375300+108925831+108336444
4290+107892081+108035252+108508326+108973763+109810427+110339204+109805123
4276+108989198+108541175+108437395+108624821+108883077+109098409+109227971
4263+109030379+108538256+107987203+107516037+107464165+107834244+108237074
4249+108871049+109744575+110081372+109796782+109465064+109118697+108715063
4236+108561399+108838056+109041540+108516378+107986733+108406922+109232327
4222+109592430+109447288+109495346+110174190+110640179+110017047+109429169
4209+110172256+110985877+110695096+110309925+110353573+110271906+110221544
4195+110437652+110544957+110577490+110647471+110497685+110056981+109493801
4182+109375987+110021602+110926305+111341082+110770084+109877255+109796637
4168+110416379+111076743+111290249+110577038+109394160+109030262+109738765
4155+110554463+110757098+110420274+110223767+110493338+110993793+111829762
4141+112732875+112987779+112346709+111258177+110825788+111249935+111303804
4128+110217468+108890578+108615883+109276228+110032455+110298610+110032835
4114+109741937+109656249+109827489+110353239+110888612+110810317+110092795
4101+109379701+109315927+109966450+110498787+110618698+110930851+111137444
4087+110726093+110284775+110422109+110968725+111531788+111762780+111561980
4074+111294252+111045846+110802762+111008198+111400192+111061832+110231132
4060+109965474+110255324+110355796+110222691+110270813+110472824+110570703
4047+110839542+111542939+112234588+112507223+112278896+111633109+111080430
4033+111005785+111026552+110813805+110709672+110951979+111296096+111525606
4020+111841998+112110819+111750318+111155834+110880931+110863192+111430032
4006+112321460+112501566+112017910+111769305+111698808+111149083+110580716
3993+110851588+111653207+112235817+112569894+112816611+112759877+112343366
3979+111850429+111521820+111226493+110758436+110465739+110708434+111113243
3966+111115800+111065447+111580126+112011910+111851721+111576990+111104098
3952+110183182+109513185+109991473+110649496+110501697+110993296+112148042
3939+112256159+111154659+109525728+108883647+110078607+110923676+109926145
3925+108989108+109396799+109436136+109046555+110268237+112622371+113511477
3912+112530059+110727050+107665778+103820265+102149321+103345718+106205359
3898+109831465+111107640+108510711+106350437+108225253+109244346+108265676
3885+108512799+107735751+107360168+109853217+109874870+107094718+104656685
3871+103469632+105378527+106919465+106146646+107480431+110412087+110489253
3858+105934242+98291382+97697738+107625808+113599514+113435422+110283989
3844+106639727+103685226+101758095+103050573+106612689+108144843+108734041
3831+110159695+110815169+110277880+107634004+102663061+102002625+105231433
3817+106903451+110845109+114957537+114288335+110154535+107547657+107496056
3804+105467829+105254983+109323392+111263997+112430635+114700680+115680273
3790+115355486+114641696+114048495+114199195+113714229+112649030+114009085
3777+116556880+116828638+114557572+112595748+113593062+115732398+117517974
3763+117663188+115358043+114502772+116102369+115128985+110361092+108677090
3750+115210715+120020187+122108590+130539135+139606701+142345202+141977246
3736+143195485+148338889+156337144+162616913+163594725+161625527+160636871
3723+160761418+161303506+161467653+160296595+158478260+160317290+171269305
3709+186399989+199034334+209031057+218399606+228802828+237376346+241244777
3696+241098271+236992024+228790917+221495128+220385396+220181631+215913226
3682+208589242+200044715+190410227+182900752+182356259+181707879+178933655
3669+180558854+183628331+184040613+183195969+182038034+180032941+178884440
3655+179567540+177136195+171128582+170663850+178752303+186415424+190473522
3642+192550855+194137140+195595897+196927052+197413039+195667813+193808341
3628+197435433+201735557+200462817+194431906+188062871+186304324+186159155
3615+184113071+183484283+185663715+189019717+193349736+196984310+198308670
3601+198500650+198278089+197196985+196842394+197899984+197269298+193751499
3588+191692348+193221936+194144713+193103968+191766361+191020761+190876839
3574+191141241+190499638+187683538+184836946+185847833+188920004+190445670
3561+190659429+190587116+190304821+189745418+189171519+188688677+187717065
3547+186814765+187545417+189156789+189654362+189090133+188864192+189215565
3534+189160693+188280462+187233463+186759260+186736686+186954602+187483406
3520+187983057+188162078+188030555+187429040+186544742+186253428+186591481
3507+186323789+185504810+185607090+186528692+187053538+186973905+186511052
3493+185798347+184971289+184318444+184326035+184762482+184979657+185141472
3480+185299672+184981880+184614367+184885493+185447335+185658600+185404320
3466+184944485+184485627+184298075+184631953+185062815+185248523+185461993
3453+185549995+185123959+184569761+184504822+184768862+185001508+185179644
3439+185267230+185495484+185851141+185807384+185544880+185731510+186480128
3426+187076311+186809758+186290190+186408339+186993298+187623406+188059491
3412+188223367+188390658+188698871+188897213+189066004+189624847+190356512
3399+190821931+191218199+191665816+191947099+192113125+192411217+192981807
3385+193637236+194029926+194251186+194549675+194804534+194917152+194991743
3372+195245265+195887030+196560569+196855769+197154258+197876000+198937765
3358+200000434+200651074+200980198+201523551+202245583+202507165+202339747
3345+202636176+203583479+204600367+205587957+206506577+206882766+206694599
3331+206663404+207201932+207810405+207883947+207657446+207982667+208997440
3318+209939321+210369261+210292321+209871056+209684209+210256462+211318119
3304+212137134+212438588+212798112+213883554+215173067+215688894+215846877
3291+216653819+217983800+218986066+219173166+219161870+219944629+221139490
3277+221796528+222088709+222868125+224095482+224689605+224614671+224777299
3264+225064546+224891200+224247176+223480430+222903875+222813361+223282594
3250+223707835+223493461+222892597+222707629+223068762+223210334+222879583
3237+222409284+222054495+221955107+222012094+222165378+222057387+221301630
3223+220559663+220228714+219715670+219049270+218730393+218419036+217819852
3210+217549757+217644572+217406359+216838805+216257768+215769521+215561690
3196+215398701+214692863+213561099+212578244+211844772+210943936+209761709
3183+208921927+208629655+208456129+208151404+207393460+206075950+204818807
3169+204339598+204505136+204524891+204120778+203756500+203777538+203770652
3156+203538078+203572057+203547982+202773158+201688764+201085785+200977975
3142+200756354+200243816+199979450+200000091+199685678+198773673+197607297
3129+196914925+196937228+196895477+196299692+195678223+195410857+195029499
3115+194042723+192649249+191331360+190204655+189108478+188051304+186968483
3102+185660028+184235431+182926724+181859030+181053860+180374609+179775950
3088+179261153+178685158+178113031+177666210+177182121+176646033+176194224
3075+175901626+175732727+175418838+174966794+174811793+175068893+175291599
3061+175223280+175208839+175371033+175232298+174747649+174478674+174456208
3047+174404553+174448202+174428049+174030769+173544565+173278916+172919373
3034+172154326+171431192+171160844+171002120+170697124+170332557+170063166
3020+170202913+170662729+170750948+170139691+169259875+168574461+168047375
3007+167581106+167244626+166819258+166217309+165747426+165299773+164867791
2993+165137561+165996357+166519937+166725979+167122139+167519203+167582371
2980+167353484+167068568+167101409+167422309+167356069+166797606+166389679
2966+166198621+165834271+165381305+165143453+165045927+164864755+164570730
2953+164124975+163761221+163965202+164444032+164559542+164376797+164181944
2939+164105329+164095605+163944941+163683269+163420547+163182804+163013886
2926+162863856+162610063+162059625+161243447+160573089+160171398+159812867
2912+159561659+159716787+160275178+160780106+160890085+160708751+160437842
2899+160357486+160628087+160976189+161213553+161399858+161499155+161513452
2885+161490986+161428794+161433204+161516470+161494673+161360529+161183568
2872+160963031+160781588+160688580+160654312+160531103+160262146+160069769
2858+159887765+159489310+158977405+158406832+157759608+157167600+156840988
2845+156872111+157069749+157320595+157639092+157858472+157891999+157895325
2831+157955601+158070171+158289352+158474103+158418634+158248270+158179572
2818+158249771+158290654+158130357+157896717+157770832+157786159+158030897
2804+158506889+158938166+159191941+159432449+159716950+159953644+160089740
2791+160147577+160045008+159681434+159291600+159181368+159351244+159583330
2777+159782955+159956789+159923823+159708636+159559201+159461494+159389651
2764+159426232+159496774+159515083+159486743+159398073+159371360+159575269
2750+159970019+160353781+160440933+160226686+160028036+160012113+160129991
2737+160275178+160408834+160482756+160441620+160375108+160345738+160371945
2723+160500775+160689068+160863427+160973641+160964188+160959670+161142197
2710+161349377+161427926+161481371+161485708+161442385+161497800+161642698
2696+161774474+161811688+161721337+161664513+161818791+162106237+162338251
2683+162422800+162387755+162316363+162301217+162322436+162171357+161837298
2669+161635052+161685135+161766268+161657952+161359119+161062383+160930408
2656+160904436+160797077+160568516+160414653+160461013+160537104+160441873
2642+160208286+159963730+159750730+159559563+159384247+159251874+159149251
2629+158971657+158750036+158613055+158496858+158365985+158362750+158371299
2615+158096468+157680951+157492152+157493471+157416802+157225437+157025323
2602+156867322+156822499+156838512+156710965+156475409+156321203+156269747
2588+156212073+156023184+155794315+155691348+155628307+155572404+155572386
2575+155532263+155409541+155232418+155023231+154837722+154704915+154545974
2561+154276204+153978185+153756997+153592164+153460912+153391526+153321201
2548+153195986+153108834+152989673+152738862+152543593+152516735+152537665
2534+152519880+152509867+152494884+152359890+152115153+151872024+151702907
2521+151583195+151489365+151527148+151650330+151610857+151398300+151292107
2507+151424046+151566612+151540685+151486681+151522232+151597536+151670302
2494+151734500+151769364+151821598+152007740+152295385+152613611+152975864
2480+153269691+153349938+153239074+153120708+153162657+153280535+153288469
2467+153242363+153317153+153478733+153628058+153742014+153749948+153679045
2453+153685786+153827919+154081892+154376514+154527683+154505362+154557487
2440+154777771+155047631+155311906+155491904+155558741+155661237+155795164
2426+155829541+155909517+156196476+156533028+156755987+156897180+156994381
2413+157054277+157179692+157436918+157703254+157865015+157983417+158165890
2399+158444914+158931407+160041483+162715451+168682868+180356336+199995337
2386+228390040+264133921+304517679+347446955+392467553+440383180+492029823
2372+546442665+600871882+652234983+697277414+731398483+751481973+758123092
2359+750392772+723263815+678215890+624909600+576257753+550079299+557242137
2345+591705488+619814299+617974890+603431678+592057711+586937324+587128979
2332+588970340+587022126+579996107+570111135+558150600+543471581+525998168
2318+504872866+482597383+468300914+464877876+460937782+444592465+416612268
2305+386911803+364517611+349393578+336201240+322390885+307149445+289774914
2291+271859795+255673401+241492750+229129910+219387865+212624368+208094182
2278+204719365+201731238+198960285+196542387+194448498+192570917+190956834
2264+189526742+188095856+186717564+185423117+184125434+182861513+181683696
2251+180586778+179530453+178447722+177425557+176619212+176011100+175494333
2237+175024648+174616686+174248468+173942514+173750877+173583170+173416439
2224+173303767+173193824+173125324+173131831+173085634+172958611+172848054
2210+172845288+172995102+173216037+173433573+173612450+173684474+173697560
2197+173712742+173756209+173923772+174160629+174349193+174511334+174617264
2183+174670456+174781031+174915121+175009484+175095859+175131736+175126042
2170+175257277+175540981+175738510+175796961+175859641+175925122+176037289
2156+176284177+176478742+176459168+176353201+176368907+176616573+176941414
2143+177122116+177188085+177256205+177438715+177751880+178007173+178093060
2129+178111152+178208208+178424353+178713859+179005264+179166374+179190683
2116+179300030+179609056+179969792+180265371+180552221+180900648+181324859
2102+181789193+182241744+182712386+183281350+183926748+184627452+185489574
2089+186528403+187692394+189041641+190611877+192370876+194273327+196184381
2075+198025597+199981547+202086587+204027210+205766057+207662254+209864803
2062+212152768+214448451+216864271+219285423+221536951+223703551+225958731
2048+228190722+230136134+231789202+233304042+234746749+236005537+236961913
2035+237662111+238185457+238554163+238710321+238587509+238171377+237511213
2021+236667671+235602960+234462195+233511692+232601042+231453192+230155491
2008+228922296+227783699+226663791+225591019+224690111+223980496+223181398
1994+222020607+220999436+220752746+220913567+220983730+220935671+220931568
1981+221171499+221561514+221930202+222291100+222687694+223013962+223181362
1967+223657879+224844263+226237682+227404275+228487982+229582786+230742222
1954+232022879+233319730+234562775+235679702+236432856+236922367+238105046
1940+240294528+242363565+243726169+244709710+245632975+246506321+247178324
1927+247460836+247228225+246981301+246995218+246911247+247272904+248203073
1913+248544524+248056748+247581804+247607956+247780869+247724406+247538336
1900+247304967+246861670+246419422+246312750+246034991+245675105+246293122
1886+247529932+248551645+249432346+250273448+251141154+252081590+252873314
1873+252819689+251531621+250826110+252811682+255745281+257485917+258233414
1859+258718949+259116103+259281750+259206418+258891626+258062689+256363604
1846+254103183+253315327+254562439+255213928+254552824+253687702+252547732
1832+250101801+247255680+246114281+245888991+245726417+246103238+246221531
1819+245599412+244803369+243858975+242292734+240757940+240393319+240665728
1805+240355147+239049765+237594461+237397348+237939725+237281350+235446622
1792+235505361+238378485+240644419+241164891+241067003+240875926+241067093
1778+241685543+241135575+238725991+237033142+238969843+242540670+245208710
1765+245957093+245448514+245916897+247105486+248026113+248821614+248143321
1751+246052288+245602467+247774001+250275563+251607568+252001487+252830678
1738+253508247+252056232+251430010+255069193+259172042+262343637+264417301
1724+265256161+265082960+262739182+259012956+259358871+264708633+269739880
1711+272339998+272435916+271369416+271219909+270725518+268836279+269226945
1697+272737315+278439372+284322764+286833815+287045911+285781141+282693228
1684+283515822+290715856+296540417+298705227+299282505+300927350+302438792
1670+304041796+309340354+315127087+317908541+320814667+326042666+330297244
1657+330354068+326816406+329576930+339808523+344553010+348628802+358737854
1643+368746561+374789255+377372655+377730517+382372201+393614735+402324692
1630+406885477+410688571+414624075+418222682+422722450+426151994+426557246
1616+427702367+431549092+434057052+434428505+434760702+436116094+437949322
1603+440282075+443398075+446890841+450537055+454830456+459783986+464810750
1589+470129190+476116543+482659050+489831865+497450199+503537283+507604834
1576+514459440+523637618+529431978+534837028+544562842+555627385+564529612
1562+568957518+569808181+579467231+598318086+613335700+625587296+636932525
1549+648288960+657992291+664874298+669755677+676405471+692710303+709660659
1535+719951100+729603969+741615978+751622587+759474146+766763392+772724574
1522+780609967+793166287+806206697+818210030+828828114+836983168+841999522
1508+844555667+853824720+870958345+882864586+889185871+893531180+899164646
1495+906795849+912271640+914002607+917244689+925626896+934125715+940498329
1481+945725640+949514276+951780155+952857572+954118113+958269526+963648079
1468+965544747+963703168+962585049+963067693+960714842+954925940+954645145
1454+959558479+961037279+959185724+956451299+955607685+956562706+955860430
1441+950876102+941889073+933102591+930675349+931607380+928404843+921775219
1427+917356024+916244267+918313648+921747747+924086861+927919597+934324021
1414+939911508+943178171+945693614+948986231+951905732+954025792+956792822
1400+959350991+961333328+964727087+970747117+978069908+982652129+981870978
1387+978343473+978160132+981418843+983573098+983941515+984933118+987553461
1373+991544740+995387597+997590724+998031508+996574830+993993599+993816837
1360+996681249+998535985+997530140+995448397+994331507+994423250+994381897
1346+991868984+986273762+980138204+976375017+975562128+975416887+973308395
1333+969409726+967689170+970913685+974806281+974401644+972304936+971755708
1319+971954954+973234942+976134418+979379971+982118806+984420833+987570089
1306+992084713+995798378+997060293+996822441+997069836+999304411+1003339718
1292+1007834100+1012246933+1016570988+1020310534+1023315922+1027237003
1281+1033240766+1038647732+1041547641+1044141379+1047169540+1049230535
1269+1049845840+1049371655+1049682308+1052088802+1055111107+1057867654
1258+1060109604+1061346287+1063012694+1065219436+1065938991+1065947739
1246+1067351424+1069715264+1071708518+1073199319+1073741823+1073046993
1234+1072395178+1072142217+1072074549+1072418602+1072655658+1072683709
1223+1072198897+1070474220+1068731614+1068510246+1069423552+1070302735
1211+1070166748+1069751628+1070162266+1069631474+1067275008+1064842271
1200+1063105810+1061427186+1059673736+1059145691+1059931035+1060441078
1188+1058717269+1054143507+1050421094+1050181001+1051197618+1051214535
1177+1049969682+1047712623+1044266233+1040824543+1039751681+1040228324
1165+1039375167+1036763933+1034311893+1033328316+1032283865+1030245355
1153+1029399427+1029544090+1028167226+1025909733+1024479371+1023652746
1142+1022883018+1021892717+1021086914+1020928081+1019795069+1017302182
1130+1015354619+1013971899+1012471266+1011119994+1009608227+1007214963
1119+1004644432+1003030150+1001111722+997998975+996779787+998932163+1000502923
1105+1000580785+1002074189+1005296174+1008997982+1010075255+1008646338
1094+1008813774+1010000212+1010997020+1013880084+1018379599+1021945709
1082+1024684545+1026814509+1026404739+1024874970+1025250472+1027139404
1070+1028532824+1029315854+1031572552+1036762632+1043333552+1047411657
1059+1047526390+1045809593+1045701295+1048165770+1050075233+1051333750
1047+1053397636+1052499367+1046963860+1042676243+1043402304+1044327540
1036+1041741031+1039229203+1039653793+1040455548+1038597269+1034661152
1024+1030874541+1029203652+1029231847+1030286491+1033712420+1037104733
1013+1036851410+1034149590+1031246139+1029051398+1029557899+1033513970
1001+1036618836+1036788947+1036648043+1036611028+1036956961+1038500105
989+1039993509+1040315512+1040047802+1042065709+1048133237+1053625222
978+1054414686+1053420843+1052896991+1054134036+1058443703+1060804579
966+1058310463+1056708399+1058894465+1061328141+1060907672+1058890055
955+1058279448+1059839653+1062477492+1063684318+1061247604+1057779093
943+1056931069+1058411966+1061838474+1066538247+1070291241+1072961323
932+1073005495+1068564467+1064580779+1064612372+1065113740+1063761890
920+1061629251+1059020475+1056382420+1054599184+1053593990+1054250937
908+1057273242+1060257520+1060754478+1060312682+1062119341+1065124801
897+1066410935+1066134984+1064713730+1062489204+1060143366+1057281050
885+1053847385+1050146588+1045843283+1041336538+1039421364+1040677133
874+1040572522+1036690698+1032565239+1032327098+1033705336+1030215424
862+1023911997+1022579378+1025400630+1026569428+1026210843+1026200939
851+1025526062+1025304188+1026442333+1025548329+1022222022+1020886005
839+1021679012+1020764983+1019304834+1020662106+1022316946+1020608680
827+1017969757+1017802755+1018502067+1017556879+1014998348+1012646148
816+1012596553+1013957874+1014879856+1015462411+1015780655+1016500861
804+1018028533+1017616016+1013690381+1009380858+1007013766+1005347793
793+1002473259+998493620+995759700+995330266+995431408+994549549+993333904
779+992030130+990310731+989628047+989165646+984619717+976738228+972381786
766+973641676+974868238+972838981+969427438+964860110+958668234+952578873
752+948272821+946570845+946813468+946662154+944803948+941634883+938673161
739+936408656+933867042+931978689+930857027+926983806+919917230+914049960
725+909970336+907033195+908166641+910196403+907392502+902588407+899873213
712+899762601+901387293+904213461+907721229+910158159+911674047+915206251
698+919467336+918884347+914742838+913889537+917536256+921620941+923647595
685+923860577+923382705+924664139+927300604+925776402+921189338+923159457
671+931879933+934958267+928498248+926469714+927101648+924519982+920699899
658+920773062+926649368+932592765+934631203+932750152+927493416+927572145
644+933849257+932326357+920701489+910717363+909205163+918512026+930465910
631+921447432+895945048+885563298+896280931+910551084+917795363+919808570
617+916159031+905667609+892449570+883295322+882200626+885343664+889383671
604+891718086+887977961+885208761
##END=
