##TITLE=Sample description
##JCAMP-DX=4.24
##DATA TYPE=INFRARED SPECTRUM
##DATE=12/9/2023
##SAMPLING PROCEDURE=Instrument type and / or accessory
##ORIGIN=Default
##XUNITS=1/CM
##YUNITS=ABSORBANCE
##RESOLUTION=4
##FIRSTX=4397.6552
##LASTX=599.8556
##DELTAX=-1.9287962
##MAXY=1.9740748
##MINY=0.34035391
##XFACTOR=1
##YFACTOR=1.8385005e-009
##NPOINTS=1970
##FIRSTY=0.34879273
##XYDATA=(X++(Y..Y))
4398+189715879+188996474+188197428+187531257+187089515+187327495+187906716
4384+188021953+187747386+187499339+187998967+189446580+191151691+192498136
4371+192811024+191931998+191040376+191338723+192438775+192861259+191786674
4357+190135008+189493557+189541134+188803054+187934419+188429881+189549450
4344+189765158+189158753+188833027+189086732+189364395+189545186+189724746
4330+189940924+190213108+190506609+190992783+191098943+190581467+190557249
4317+191062827+191166766+190900142+190622576+190374885+190669359+191665017
4303+192233457+191806791+190957396+190227843+189969908+190331394+190849972
4290+190868160+190755272+191113419+191674500+192044010+192036796+191545840
4276+190695830+190120516+190352499+190946471+191004827+190476523+190173945
4263+190074026+189734148+189677412+190356406+191280383+191284160+190388907
4249+190400044+191536082+191982038+191342824+190946390+191462358+192049667
4236+191605526+190333144+189479519+190013789+191346504+191729825+191182150
4222+191001099+191210858+191598880+192084292+192089576+191880320+192158145
4209+192349635+192133068+192267563+192367223+191746132+191378989+191991262
4195+192697261+192921918+192989708+192786368+192415951+192310650+192297649
4182+191974290+190994436+190026011+190139223+191003206+191720245+191645500
4168+191332466+192091781+193214608+193386856+193038225+192950512+193308043
4155+193493778+192555131+190998246+190540277+191648564+192848745+193007539
4141+192731611+192690080+192603016+192275701+191965131+191864969+191816484
4128+191678423+191656263+191774403+191893239+192036504+192262684+192345972
4114+191892153+191371338+191228819+190985213+190547815+190396866+191046228
4101+192050656+192389707+192338920+192331431+192218009+192193807+192348338
4087+192522111+192571892+192461485+192182720+191840881+192058469+192839392
4074+192976708+192266672+192013826+192419614+192378133+191921396+191738351
4060+191521752+191182523+191349049+192075765+192646005+192570482+192306257
4047+192435452+192930720+193405952+193428873+192915855+192098930+191330602
4033+191100224+191499674+191764985+191420374+191226890+191962732+193257500
4020+193987668+193869788+193865882+194211919+194239282+194073274+194089176
4006+193954454+193723654+193741015+193608368+192941418+192146830+192048338
3993+192671196+192930379+192568245+192539375+192835809+192610019+192137072
3979+192115140+192356476+192301491+191908817+192028237+192971715+193553010
3966+193033459+192621090+193397198+194217528+194185708+193961862+193390828
3952+192144464+191523989+192322175+192741774+192084746+192356265+193533979
3939+193792628+193123280+192378149+192331253+193118368+193417104+192610375
3925+192237396+192966722+193193551+192783824+193075606+194014318+194264278
3912+193354079+192170870+190760541+188887347+188374329+189878629+191683788
3898+192932551+192767208+190924133+189869113+191438724+192445340+191836860
3885+191335222+190280672+190136791+191839827+191575845+189839870+189049351
3871+188983408+190243632+190990351+190204355+190892021+192777242+192627299
3858+189518472+185125820+185530668+191348125+194288966+194078429+192539731
3844+190671741+188873406+187503505+188326072+190793220+191854643+191962781
3831+192431885+192625191+192257140+190638446+187815955+188049543+190385892
3817+191131882+193086775+195146368+194438910+191772198+189772274+189370652
3804+188362739+188927419+191911589+193080647+193319033+193860338+193920234
3790+193939881+193868394+193470565+193371408+192986401+192278376+192919032
3777+194256578+194383909+193015515+191742971+192161371+193353399+194468947
3763+194210558+192203906+191408573+192282525+191604375+188548037+186542050
3750+188700882+189871383+188868041+190759309+193036393+191588051+188536463
3736+187319958+189218990+192820102+195216866+195016557+193996276+194012178
3723+194653678+195773165+197458078+198763350+198344188+196969035+198700957
3709+203423031+207214758+209191663+211270985+215789638+220889425+224043202
3696+225315907+224371603+221495473+220277152+222584485+224244337+223312546
3682+220820677+217539408+213388984+210732955+212159008+212471118+211219745
3669+212836510+214883784+214966926+214523676+214202229+213298612+212828097
3655+213466646+212323622+209509706+210035481+214365190+217563561+218455604
3642+218370614+218772447+219292808+218945150+218075655+216881747+216287354
3628+218713685+221078629+220598485+218627042+217606372+218944112+220235411
3615+220044423+219556369+219286973+220107286+222261806+223484925+223083822
3601+222791699+223226795+223166364+222910179+223500876+223629292+222636633
3588+222879606+224844079+226193183+226809362+227342886+227550554+227393121
3574+227331523+227106818+225872514+224597750+225415259+227137731+227952857
3561+228227359+228450718+228599754+228585149+228514862+228534719+228622594
3547+229052065+229934350+230620071+230798026+230856560+230961521+230834596
3534+230416877+229956039+229652164+229685184+229933572+230038452+230136474
3520+230466999+230758359+230616877+230101639+229753867+229955731+230496177
3507+230620395+230116892+229845016+229942342+229932372+230171229+230650886
3493+230672673+230150739+229611736+229466396+229635192+229869072+230140900
3480+230349297+230271148+230013196+229980144+230287228+230601575+230663546
3466+230397943+229937965+229766818+230049118+230472542+230796048+230940853
3453+231044987+231019148+230594426+230259736+230593567+231358928+232033334
3439+232143515+231732750+231429151+231572513+231910721+232138911+232301450
3426+232509620+232692552+232843289+233181676+233888016+234638512+234926631
3412+234919320+235068875+235242793+235389592+235908203+236668004+237189175
3399+237511206+237826493+237931534+237845377+238068607+238544488+238880945
3385+239213350+239665013+240117534+240644461+241325999+241890387+242021122
3372+241861630+241976139+242577778+243109924+243382092+243872026+244546789
3358+245157311+245797141+246249809+246250700+246038218+245907451+246239142
3345+247106805+247798994+248064710+248340299+248915110+249748634+250225131
3331+250027335+249809471+249900280+249837774+249588495+249784329+250593247
3318+251414127+251639270+251282323+250809538+250281461+249711075+249758425
3304+250250516+250116572+249631776+249997103+251427549+253062535+254173966
3291+255162686+256642638+258216755+259455209+260779527+262097102+262721873
3277+262913574+263306913+264248413+265744802+266767110+266661063+266610666
3264+267311429+267695318+267286741+266667482+266238271+266112383+266251449
3250+266676057+267033264+266962263+266753590+266327799+265712657+265535789
3237+265818461+266188570+266374760+266260981+266194066+266237849+265766086
3223+264873313+264594078+264962534+265329353+265877822+266262035+265911750
3210+265632028+265668306+265370348+264810515+264176910+263551556+263235264
3196+263240548+263041601+262470503+262223168+262195255+261540106+260540509
3183+259729581+259045157+258661431+258664122+258675469+258434117+258100480
3169+258086247+258445642+258641541+258415410+258076521+257762353+257497058
3156+257372013+257276471+257279194+257485500+257526350+257155105+256669255
3142+256310298+255938357+255484328+254903827+254275085+254046490+253943588
3129+253379946+252693155+252270476+252062208+251739562+250982873+249966239
3115+248916050+248129907+247910471+247719743+246898230+245637358+244380084
3102+243336541+242381505+241350233+240652631+240500126+240330568+239897255
3088+239474965+239087932+238615780+238057876+237398529+236812258+236564145
3075+236534870+236478653+236392026+236442829+236699095+236774682+236289141
3061+235615172+235433181+235827314+236210554+236193971+236080322+236127931
3047+236083418+235702026+235158193+234882604+235142971+235584260+235398459
3034+234469797+233561657+233173392+233260052+233548641+233630956+233348073
3020+232952319+232669160+232533093+232628651+232881351+232850552+232307431
3007+231691414+231484897+231384946+230903278+230303244+229998413+230144660
2993+230868588+231764230+232358137+232904499+233481190+233689523+233517015
2980+233340584+233355773+233510595+233601875+233354978+232949174+232796572
2966+232817305+232767523+232592519+232357877+232080311+231668963+231371896
2953+231424125+231532409+231601318+231808921+231958508+231790928+231473291
2939+231520073+232087979+232422296+232011597+231360890+230834271+230560531
2926+230794200+230999825+230476238+229627347+229031592+228703175+228564643
2912+228528203+228676785+229151693+229471049+229259750+229023779+229001344
2899+228823632+228613338+228819385+229279769+229499238+229447819+229435970
2885+229552780+229716616+229970645+230420492+231024043+231477975+231574410
2872+231511352+231446090+231366093+231382125+231484832+231400199+231093017
2858+230848001+230749655+230650951+230357937+229812531+229380628+229484665
2845+229874211+229924138+229691036+229686497+229945405+230275346+230683615
2831+230986501+230899306+230663319+230607087+230781524+231133202+231290797
2818+231148294+231062153+231157826+231328518+231400459+231403312+231509812
2804+231681980+231964587+232422556+232817661+233029771+233205586+233388112
2791+233570476+233698519+233658562+233528848+233412151+233313253+233284237
2777+233359177+233441119+233452417+233524633+233677608+233709364+233654120
2764+233618571+233538007+233550521+233713287+233782812+233817518+233992523
2750+234201422+234382084+234587369+234719871+234633017+234530504+234586218
2737+234523599+234371904+234526241+234921930+235260722+235529729+235776998
2723+235892333+235861874+235889772+236018172+236061080+235998266+236010926
2710+236159589+236367387+236598187+236722113+236691346+236740349+236922584
2696+237061261+237169383+237390781+237613200+237712665+237877506+238061377
2683+238051538+237937321+237890490+238051603+238357293+238531422+238516752
2669+238470505+238449237+238434664+238476162+238524955+238401352+238099812
2656+237884363+237960291+238194106+238328034+238265819+238153046+238207155
2642+238313656+238179760+237862949+237605030+237450564+237363742+237307639
2629+237229376+237189824+237182270+237010102+236655084+236339149+236209176
2615+236227704+236292950+236391070+236476676+236433492+236268781+236024608
2602+235766007+235590744+235438774+235320521+235416290+235624088+235669622
2588+235598719+235565845+235482395+235217052+234904358+234805444+234903175
2575+234958516+234818655+234538042+234376411+234453538+234494972+234307745
2561+234125527+234037927+233777738+233333386+232967945+232815975+232852286
2548+232892050+232715651+232386634+232114936+231959027+231917092+231890620
2534+231796521+231754326+231778106+231795759+231720155+231400556+231015031
2521+230856025+230865152+230920979+230931321+230758230+230482739+230280615
2507+230164680+230125435+230157969+230200553+230172136+230106567+230152587
2494+230274941+230396306+230579092+230770728+230917543+231062623+231238455
2480+231510671+231719247+231570033+231261749+231135974+231083405+231046835
2467+231209925+231524336+231781299+231913461+231945589+231870293+231758378
2453+231760405+231869645+231983278+232074881+232156839+232300980+232581545
2440+232930354+233276084+233570849+233659615+233547846+233484530+233568725
2426+233653796+233686637+233793041+233998228+234237214+234470316+234578065
2413+234525722+234602623+234977579+235315966+235416258+235506321+235690160
2399+235893289+236071017+236195868+236325224+236473077+236479172+236245146
2386+235790144+234976558+233359695+230597004+227000723+223189042+219500573
2372+215853004+211965605+208127226+204769266+201806266+199720120+199309177
2359+200545766+203280771+207567393+213274216+218966888+221705313+220047908
2345+215942257+213115227+212479774+212937305+214040793+215285049+216118201
2332+216763186+218024253+219936285+221682845+223085572+224851730+227327649
2318+229972298+232058120+233491241+234824783+236341678+237820349+239237649
2305+240655014+241896823+242864405+243620850+244326574+245052756+245614210
2291+246003301+246470331+247023647+247468356+247760300+247966542+248057254
2278+248073140+248242876+248527315+248652571+248660449+248777713+249053544
2264+249337789+249493811+249614982+249826427+250064683+250244664+250403686
2251+250570245+250694317+250742137+250764296+250870213+251077686+251316008
2237+251538378+251703916+251826416+251959485+252074755+252135316+252175647
2224+252237991+252373572+252605977+252875503+253069603+253058677+252908669
2210+252902784+253078243+253196398+253264367+253433196+253612010+253740896
2197+253912967+254108153+254222937+254276074+254367823+254452326+254522289
2183+254734480+255029601+255187893+255233768+255331742+255445958+255472300
2170+255498544+255637060+255882092+256164796+256375593+256474069+256532199
2156+256586746+256676210+256855396+256995111+257001061+257054878+257269403
2143+257543192+257745121+257777331+257708649+257731116+257873262+258032462
2129+258195795+258428589+258646161+258690853+258677690+258766084+258846616
2116+258846891+258900498+259077869+259268209+259383284+259500548+259655550
2102+259737783+259752616+259797583+259913258+260108104+260247365+260205818
2089+260109044+260101166+260101782+260067222+260172020+260408137+260558616
2075+260563430+260576641+260806274+261115644+261175832+261107312+261251290
2062+261561925+261743884+261699014+261601445+261635195+261754728+261809454
2048+261776288+261708562+261633071+261637383+261812177+262041955+262174489
2035+262199712+262218386+262361279+262582417+262754050+262830643+262867942
2021+262959789+263056547+263150015+263336982+263549513+263679713+263832234
2008+264138460+264449824+264592068+264678062+264851819+265061756+265160540
1994+265094517+265079166+265347719+265793400+266215252+266494277+266658405
1981+266851516+267070920+267252765+267419032+267652134+267888721+267926312
1967+267892287+268054404+268343528+268620348+268865786+269100379+269397786
1954+269743127+269999052+270119461+270163374+270120433+270009410+270204515
1940+270843681+271455208+271872116+272185409+272384502+272624736+273029989
1927+273321966+273252716+273180224+273334901+273551825+274059850+274780974
1913+275192549+275337306+275604675+276109037+276652401+277086508+277510986
1900+278007470+278348985+278496724+278746619+278901815+278911995+279382996
1886+280209388+280913621+281524937+282112749+282661267+283123580+283433485
1873+283324261+282628133+282360796+283597402+285313762+286397020+286935942
1859+287361263+287915876+288537340+289129204+289600043+289769277+289519252
1846+289210611+290089427+292026569+293295855+293828325+294471380+295070572
1832+294872030+294521308+295234423+296438382+297777403+299325697+300545995
1819+301447213+302267737+302836518+303010226+303298734+304293160+305569967
1805+306415973+306633643+306667003+307349806+308517454+309032385+308922966
1792+309921964+312265397+314126352+315132968+315779687+316303242+317163967
1778+318323574+318674264+317842652+317505125+319312489+321951173+324000587
1765+324924240+325198321+326106931+327414699+328478861+329302335+329347562
1751+328815351+329230395+330981737+332822202+333977822+334680239+335784375
1738+336776370+336530917+336983536+339764350+342540756+344808163+346417245
1724+347265910+347596434+346769685+345295439+346284289+350006069+353406370
1711+355384297+355832118+355569611+355947177+356126980+355548700+356409879
1697+358953993+362876973+366970970+369099651+370006348+369786507+368192273
1684+369115116+373836282+377504731+379002319+379725356+381191983+382445091
1670+383607130+386942201+390480709+392107622+393790265+396863024+399181785
1657+398896811+396657156+398143203+403498606+405474361+407084254+412353355
1643+417661133+420495960+421203370+420652161+422483386+428256719+433095085
1630+435901252+438141978+440383125+443233124+447589077+451395668+453797392
1616+458157365+464729533+470035042+474057066+478364356+483422790+488414633
1603+493358073+498893895+504644470+509980973+515310991+521032258+526926713
1589+533031349+539232792+545412804+551993402+558947092+564804458+569409949
1576+576293482+584889776+591013961+596338339+603698708+611847279+619163881
1562+624025297+627108139+636003348+649490496+660397770+669989236+679324064
1549+688628481+696093438+700986302+704782195+711281288+724877952+738012367
1535+746448635+754111550+763010455+770421141+776411106+782928808+789902728
1522+798217550+807105108+814456334+822772777+832691688+840790396+845126669
1508+847571480+855831576+869471618+878613416+883815828+888379497+894098948
1495+900553236+905712336+908523884+910939647+916531297+923706028+929223047
1481+933016865+936417165+938883374+939791270+940651639+942884227+947321587
1468+951527142+951977394+950965882+952096182+952056694+948031720+947693188
1454+955145825+960473315+958778190+952872128+947175566+941557072+936213112
1441+933609247+932893279+930267109+926370324+922859471+917663347+913527107
1427+912599369+912045696+912211493+913148374+913175023+916391307+925862104
1414+936437525+942388327+943180872+943745050+947186978+951437597+955131819
1400+958496458+960691179+962949898+967930491+973038561+974064467+973068128
1387+972430487+972364350+974305804+977669340+980433620+981732635+982742266
1373+985857917+989344002+990746826+992113145+993793811+992302803+988049591
1360+985604844+986161954+987476725+988073906+988228356+986131803+982252915
1346+981139020+981308967+978462015+974283239+971609801+970067115+968294052
1333+965474333+962631272+962345131+964854977+966842403+967004115+967961031
1319+971052302+974784651+976524257+975430722+974801704+977634974+982356465
1306+985137150+985749309+987414673+989964006+991917262+994560550+998319029
1292+1000942411+1000246218+1000076077+1006611870+1017513762+1025488366
1281+1028570948+1030480241+1034228541+1037438275+1036093743+1032929721
1269+1033641345+1037631046+1040277122+1039502797+1039084511+1044259885
1258+1052936322+1058568433+1059883852+1060189705+1060562473+1059979621
1246+1058285080+1056865138+1056732344+1056661733+1057031583+1059787240
1234+1064297739+1067984051+1068892207+1068111009+1067812224+1068538697
1223+1069448539+1068571052+1064850505+1060317635+1058129527+1059101033
1211+1061930867+1064205990+1064013219+1062356674+1061083272+1060511378
1200+1060195864+1060768536+1062633802+1063234614+1060304018+1055867372
1188+1053124165+1052772924+1053936098+1054222693+1051720498+1048552845
1177+1047614343+1048881716+1049636848+1048585006+1047886544+1048743735
1165+1050609650+1051952757+1051045119+1047914814+1043261730+1039977429
1153+1041508508+1046073798+1048895008+1047295199+1043256284+1040588227
1142+1037626183+1032545217+1028650248+1027184269+1027191207+1027810434
1130+1027370556+1025292742+1022924961+1022974953+1024628970+1023945745
1119+1021211097+1018204184+1015566797+1015030436+1016636276+1017618609
1107+1016163329+1012738195+1008810481+1006963176+1007883911+1009628574
1096+1012177000+1015061495+1015700563+1015465451+1017516161+1021129593
1084+1023905285+1023845502+1021778970+1022575471+1028907405+1038193602
1072+1045039073+1045745446+1041534898+1036261939+1034300644+1037041322
1061+1041853006+1045338896+1045362238+1043182171+1038908534+1033101483
1049+1031561197+1035107843+1039664898+1042766219+1041686884+1038774444
1038+1037595643+1035678050+1033031196+1033516916+1034035381+1028298164
1026+1021025329+1020103686+1023864565+1026638571+1026830110+1027432414
1015+1030170693+1031208335+1027988097+1024756317+1025096729+1027145624
1003+1028295311+1028011180+1026775125+1025663046+1026551102+1030162328
991+1035154269+1040848691+1044682386+1043173029+1039949418+1039509605
980+1040815428+1043436151+1047420535+1049538550+1046775048+1042123002
968+1043053463+1049989451+1054023114+1051156580+1048067190+1050195384
957+1054531009+1057408566+1059457915+1061503438+1065145010+1070641799
945+1073741823+1071304144+1066382815+1064728734+1067474859+1070456290
934+1070399036+1067655894+1063649853+1061198882+1063796133+1069575497
922+1072858825+1072232531+1069840694+1066560089+1062687296+1059260864
910+1057694772+1059431525+1062408936+1063583327+1064782422+1065194743
899+1063019474+1064057635+1069399714+1070266307+1064659679+1061149020
887+1061774795+1058210578+1049772495+1045931927+1049209355+1054160835
876+1057849676+1059859861+1057956727+1051688467+1044229799+1039774997
864+1041548450+1048170870+1051288919+1045867929+1039809946+1040877416
853+1046079504+1048296790+1046172096+1044200232+1042060236+1036471050
841+1032357698+1033997709+1035444365+1033678304+1034649875+1036092835
829+1030380322+1024373887+1023983612+1023051789+1023532582+1031161456
818+1037899097+1033900448+1025286647+1023562733+1026793540+1026076015
806+1024053770+1026536059+1028010661+1022854869+1017365926+1016827101
795+1018902840+1022681031+1025249818+1022042482+1016687889+1013086194
783+1010457495+1009031263+1007948621+1002931912+993788429+987963742+988435457
770+989988192+989920888+989226186+988849852+989476276+988850760+985026078
756+981664358+982379419+983531569+979674208+972075355+964728278+959046500
743+955078326+952117709+950476012+952411890+957206586+959992717+958560131
729+954858128+948336211+937738226+928016495+923545548+922271886+921986004
716+923272764+925922147+927884804+928163359+928394385+930041658+931881767
702+931917624+929639064+926335829+927299424+934775858+940780023+939888207
689+937583322+937750545+936817491+933250355+931051808+931896810+935310792
675+939072967+939207771+936513972+934080054+936555924+942502381+943022143
662+938151389+934882650+935683106+936946069+937786597+939638701+941339467
648+940688339+942356166+955020553+965919009+954600387+937100325+932337855
635+939304253+945899505+937315919+920379840+906780777+899661809+897940294
621+890525653+879985765+873904050+862541401+856924982+880034525+922028604
608+953733340+968336069+963909278+939408776+921494189
##END=
