##TITLE=Sample description
##JCAMP-DX=4.24
##DATA TYPE=INFRARED SPECTRUM
##DATE=12/9/2023
##SAMPLING PROCEDURE=Instrument type and / or accessory
##ORIGIN=Default
##XUNITS=1/CM
##YUNITS=ABSORBANCE
##RESOLUTION=4
##FIRSTX=4397.6552
##LASTX=599.8556
##DELTAX=-1.9287962
##MAXY=1.6720978
##MINY=0.11293765
##XFACTOR=1
##YFACTOR=1.5572624e-009
##NPOINTS=1970
##FIRSTY=0.11471668
##XYDATA=(X++(Y..Y))
4398+73665605+72662635+72523198+72903161+72891784+72938810+73120498+72963617
4382+73050201+74026277+75338813+75693548+75085254+75027166+75853673+76969455
4367+78155361+78754321+78459406+77530288+76488287+76278495+76701781+76841204
4351+76578927+76512783+77231487+78262542+78616650+78020207+77519863+78104527
4336+78954358+79382811+79595478+79244518+78565510+78415537+78735428+79190196
4321+79524482+79664216+79940994+79961366+79429325+78881295+78908470+80144255
4305+81785111+82157366+81650611+81633416+81925782+82052176+82814400+84053294
4290+84327440+83599483+82779933+82413256+82651395+82869344+82549975+82360053
4274+82678829+82901591+82850934+82687211+82441091+82222913+82146094+82786641
4259+84455069+85878957+85832501+84829028+83986925+84153432+85456178+86435375
4243+85931662+85106840+84968561+84965968+84886202+85109385+85711953+86212306
4228+86386449+86648893+86824079+86721903+87026967+87723979+88096952+88170967
4212+88121467+88205013+88850784+89392800+89143168+88607755+88479016+88917679
4197+89546303+89997597+89962135+89457380+89396235+90157559+90650707+90278757
4182+90056244+90451274+90860360+91171432+91237161+90651348+89806689+89673979
4166+90536015+91312218+91134736+90817951+91163806+91612096+91432078+90820917
4151+90775542+91761226+93053160+94061589+94679821+94714536+94316110+93826990
4135+93479623+93663947+94351658+94634311+93804762+92789443+93105262+94537169
4120+95613976+95655180+95137851+94687944+94765528+95305229+95546727+95532230
4104+95687762+95650147+95503036+95930226+96833695+97256990+97038515+97023645
4089+97278338+97146518+96865693+97281066+98243736+98896349+98821904+98454471
4074+98467647+98674439+98786863+98818794+98515778+98007932+97996306+98832295
4058+99760356+100120564+100341987+100724577+101020617+100885046+100483309
4045+100522034+101148763+101773607+101819250+101465940+101331556+101417005
4031+101478495+101731159+102219513+102470360+102265874+101724719+101209324
4018+101342168+102046921+102758831+103159315+103178979+103514519+104611775
4004+105335446+104960750+104406448+104084486+103509074+103047111+103433653
3991+104218363+104460378+104347619+104523235+104853991+104975304+104744390
3977+104336863+104070554+103950522+104223990+105071930+105831656+105952262
3964+106012105+106748665+107291112+106786787+105994479+105326136+104679925
3950+104791746+105872209+106106540+105494968+106411249+107862217+107702781
3937+106335866+104863598+105111258+107219566+107940442+106359453+105424608
3923+105795515+105168308+104635851+106634078+109456334+110244891+109383879
3910+107661473+104024633+100206885+100609273+104268752+108030389+110857735
3896+109876367+105386065+103714306+106206830+105829302+104627114+106522802
3883+106217653+106295151+109094001+107867183+104690814+103206461+103183524
3869+106133830+107013176+105421508+107711900+111336224+110441339+103764677
3856+95420734+99863288+114288769+118899543+116071076+110924258+106411833
3842+103747549+102702088+105735490+110674914+112076631+112266017+113376459
3829+113555233+112934925+110231963+106235145+108616125+112597146+113238161
3815+117246386+120396067+117927437+113365972+112107815+112589309+110241417
3802+112308933+118555247+120290045+121577644+123584761+123354086+122517599
3788+122098418+122059664+122672882+122307774+122136406+125006506+127506254
3775+126354906+123346613+122777115+125813502+128469672+129993927+129539016
3761+126871870+126992466+129293423+127359277+121486559+120667764+127817777
3748+129550173+128099847+135230453+141130615+138027515+132761067+132701510
3734+138714900+146139413+150117161+150042563+150360965+153876894+158710649
3721+163515679+167432981+169093592+167969333+167987877+175381531+185872209
3707+192703924+195677970+198637280+205941159+214569707+220934598+225579475
3694+228108532+230026181+238128884+252468332+262566211+267442672+271546795
3680+275233852+277237601+284684572+300312328+310407910+318857061+333236699
3667+345155542+353164911+361249070+369149201+375420451+383639377+394915502
3653+401826179+405731405+418004984+437344408+451685005+460744455+468877913
3640+477698335+487261756+497398885+505330479+507974305+511793565+527892183
3626+545430832+554366041+558927306+565338950+574753365+582314454+588603043
3613+596976946+606471816+616385189+625375591+630243287+632885391+636596408
3599+641176504+646317256+653556947+662779374+669431157+672447096+677526607
3586+685577352+691824259+695935559+700561126+706200834+710977053+713736776
3572+712952057+709542495+709119400+714571254+721402471+727221231+732156981
3559+734839159+735455468+736717863+740765549+745791628+747153999+745448223
3545+746078923+749634772+753911881+757094240+757561581+758855209+763676439
3532+768463068+770265757+769888439+770323246+773676926+777679830+778738754
3518+778142119+778781469+779197062+776628026+772714302+772348850+776435042
3505+780462596+782658295+786066631+789673464+789929219+787758245+785239120
3491+782892616+782207795+784419111+787648089+790626747+793490350+794930725
3478+795782656+796704937+796343772+796718181+799179510+799479206+796346987
3464+793205659+790100539+788923727+792416652+796206287+798153121+801071916
3451+802495450+800178495+799772547+803734957+806705883+806846813+807727680
3437+808878771+807319283+806056964+807141380+807593334+808536513+811298227
3424+811917368+809895209+810191306+813344117+814466731+811403484+807432807
3410+806273756+808363279+811171689+810509068+807263095+807018899+809661730
3397+811430889+810667068+807148652+803030003+801730328+803426688+804667266
3383+804588572+805238945+805844460+805003246+804010309+804752007+806400447
3370+806308739+805506949+806742092+808779561+808459656+805630272+804374919
3356+806489016+807554906+804894927+801612287+800448106+801893457+804819295
3343+804958388+802736891+804013448+807227575+808236435+807898464+806619841
3329+804542488+802337144+799747898+796887817+795909730+797746637+797063270
3316+790129475+783292822+782440049+784756622+787541378+791615245+793489968
3302+790114701+787579576+791102126+795419424+795185179+793145796+791656123
3289+790226235+789612835+790203576+789256569+785318733+782325300+781620805
3275+781379135+784658714+792099350+797490805+797531530+794034701+789827943
3262+786711034+785558872+787078783+788870754+787133057+783379860+781862552
3248+781459973+777188452+770692603+769414591+774389841+779364631+779948559
3235+776838463+772829894+771187272+772187022+771662804+768851868+768754113
3221+772377710+773771312+770659380+768520175+769721788+770950731+770547463
3208+768331784+764470421+761563184+760853331+760511456+759804053+759507419
3194+758628236+756114776+754128595+753897489+753586464+752089825+749489709
3181+746142000+742307966+739975165+741671678+744965112+746409851+745177617
3167+740336254+735271823+734957889+736317503+733972683+729408510+726624979
3154+727329933+729777254+730226759+728719019+728382044+729801291+730206167
3140+727458462+723646780+721044751+718831598+716347992+713337489+709730427
3127+707220717+705826961+703541392+701627092+701828880+701673252+700122874
3113+699377961+698447106+694945531+690140147+686248853+683572876+681824155
3100+680886487+679733713+677844445+676648573+676472200+675369949+672398946
3086+669489565+669180301+670361706+669848817+668053094+666449054+664197014
3073+661452141+659117120+657022773+654991428+652729053+650575533+649093132
3059+647279037+645492347+645294694+644855600+641886472+638383634+637216506
3046+637759555+637525387+635390163+632507346+630556149+629166336+627422476
3032+625177823+622473062+620429469+618940982+616480953+614217009+613599667
3019+613053479+611573872+610039722+608884115+608042595+607104468+605993222
3005+605080472+603957858+602487513+601401759+601302779+602230993+603729355
2992+605705277+608869418+613002075+615916355+616186387+614701000+613066799
2978+611688966+609474626+606783836+604978047+603019387+599486388+595090740
2965+590834224+586726368+582617709+578685844+575816653+574690403+573966502
2951+572549628+571393447+570700091+569968765+569578893+569210570+568082215
2938+566594340+565185581+563808130+562494905+560723526+558713002+557518278
2924+555867083+552151932+547506883+543072233+539186642+536623270+535154419
2911+533503185+531227069+528950494+527186732+525556128+523507904+521138435
2897+518912766+517171624+515928596+515336248+515358562+515080301+513902762
2884+512495304+511386048+510025860+508242844+506324641+504091317+501628074
2870+499239237+497138843+495381855+493802196+492417588+490988122+489129857
2857+486875176+484358998+481412682+477643180+473562806+470572933+468841283
2843+467098304+464739246+462359557+460492757+458913290+457472302+456322398
2830+454940738+453034820+451158337+449465039+447739092+445835127+443657876
2816+441530575+440122083+439105606+437193374+434632184+432813305+431795221
2803+430805652+429512675+427815894+425777314+423871933+422356385+420735006
2789+418659644+416465055+414425174+412506626+410446192+408159474+406384075
2776+405380459+404383006+403192415+402033746+400770088+399285467+397765326
2762+396497266+395458093+394479126+393530282+392502591+391431687+390730484
2749+390356649+389672173+388550477+387438121+386579722+385720136+384729112
2735+383921428+383191518+382225106+381171541+380255231+379471200+378730459
2722+378095701+377532098+376796332+375721142+374382579+373144680+372188870
2708+371260733+370067348+368760286+367701362+366714664+365418166+364018554
2695+363022784+362285373+361203905+359871772+358874931+358266163+357594126
2681+356674983+355681204+354688420+353693110+352743500+351819535+350797049
2668+349792591+349130391+348823117+348660409+348421954+347991702+347559114
2654+347241927+346792958+346141092+345676507+345683435+345957945+346084177
2641+345924531+345717500+345661273+345648451+345493475+345377807+345535463
2627+345595363+345198602+344638022+344308663+344207923+344025886+343514375
2614+342753271+342168616+341931846+341562336+340831852+339935293+338952613
2600+338033624+337225480+336598033+336275947+335826097+334960579+334035810
2587+333197122+332322915+331441665+330699584+330239286+329861355+329239842
2573+328490259+327889452+327549759+327408446+327251747+326859847+326224056
2560+325650004+325248113+324961699+325016203+325402516+325836098+326177667
2546+326306999+326365024+326621507+326868038+326911097+326899347+326932034
2533+327211482+327728581+327954099+327638825+327052907+326507255+326268302
2519+326422399+326540210+326164385+325549110+325069138+324616992+324099855
2506+323625739+323181096+322637166+322025259+321525613+321159472+320903736
2492+320756874+320437696+319872275+319486824+319359903+319196735+319042964
2479+318950357+318667331+318219931+317898189+317710679+317456473+317169658
2465+317060592+316989151+316642282+316010242+315317192+314883380+314760210
2451+314691162+314569867+314358243+314060213+313893677+313904739+313880951
2438+313733686+313397342+312907342+312591074+312476535+312222961+311833300
2424+311648909+311796958+312085821+312247094+312137895+311964412+311982822
2411+312000161+311857337+311810775+311975531+312109858+312022227+311834065
2397+311777265+311844802+311825473+311588491+311213834+310751392+310013751
2384+308770474+306717312+303615637+299848585+296121702+292632586+289044355
2370+285152641+281179036+277434470+274277162+272291020+271914621+272971037
2357+275348927+279355793+284844659+289967058+291835120+289539561+285365642
2343+282790827+282285746+282615621+283286893+283951888+284400493+284893574
2330+285872522+287177919+288328225+289387053+290826778+292759717+294861336
2316+296790256+298229751+299156568+299916715+300784262+301795093+302803589
2303+303721487+304538435+305113655+305391782+305572614+305867027+306291653
2289+306699973+306950141+307071607+307077042+306890278+306616744+306342348
2276+306010406+305636552+305275904+305018981+304929589+304900768+304833863
2262+304821538+304849766+304719075+304489863+304405122+304445426+304490916
2249+304598470+304740203+304768240+304720816+304692416+304606948+304508178
2235+304638391+304881458+304980189+305044109+305157116+305232461+305250852
2222+305314179+305429100+305466744+305474820+305498934+305507565+305618238
2208+305872060+306115146+306272553+306379705+306428697+306501631+306688070
2195+306914392+307079607+307116829+307118820+307180194+307162033+307089558
2181+307098897+307046422+306912784+306851065+306817306+306846893+306971919
2168+306992224+306902698+306901703+307005334+307081597+307131317+307327918
2154+307679629+307999955+308278331+308594140+308887329+309066113+309197626
2141+309496097+309895174+310175540+310409632+310694572+311023969+311299456
2127+311421458+311490545+311607801+311830965+312136555+312356561+312387488
2114+312307244+312375661+312655549+312826620+312849432+313036081+313285521
2100+313298898+313214789+313258843+313386912+313538291+313775923+314080671
2087+314316581+314447310+314530463+314557543+314540893+314630036+314808284
2073+314869390+314787060+314679373+314689248+314854214+314994780+314977499
2060+314992541+315276390+315583703+315590956+315488684+315450792+315322608
2046+315118141+315039352+315116706+315240641+315372825+315531993+315646838
2033+315726335+315868815+316001286+316028729+315968331+315963470+316041150
2019+315991162+315893560+315949557+316126178+316382048+316562669+316576467
2006+316606609+316750945+316917003+316995658+317036881+317069797+316940102
1992+316913290+317366335+317947603+318336690+318580676+318655408+318698429
1979+318990412+319482154+319897843+320230952+320511491+320564062+320544178
1965+320795857+321163108+321367843+321431801+321411744+321403898+321449484
1952+321399305+321243907+320995539+320389737+319558360+319352535+319798193
1938+320007272+319892312+319760243+319616711+319475456+319362984+319062159
1925+318465926+318076648+317964329+317820548+318172546+318976040+319361874
1911+319280443+319327981+319771285+320309761+320727057+321057086+321265074
1898+321322065+321454230+321718942+321614412+321478956+322234280+323293854
1884+323896231+324228651+324486474+324744794+325039245+325237626+324833745
1871+323696319+323215849+324541322+326318443+327359913+327900781+328273391
1857+328579096+328905966+329319454+329762873+329911228+329277428+328325024
1844+329118700+331492571+332961729+333569043+334361839+334887703+334300598
1830+333731215+334589385+335866440+337300576+339084357+340349010+341159718
1817+342028108+342658731+342764486+343146358+344416447+345805380+346558293
1803+346599247+346656316+347637732+348921293+349178159+348899553+350617156
1790+354133850+356498228+357654103+358742767+359853974+361299440+362979112
1776+363498929+362749881+363236284+366453167+370403941+373852237+375988992
1763+377389599+379872861+382733861+385432956+388021781+389267029+389999235
1749+392638889+396929815+401114795+404550345+407688841+411706903+415334710
1736+417196802+421466217+429764335+437517642+444727823+451473725+457834042
1722+463694560+467655247+471484803+479593688+490535861+500155279+507753265
1709+513505044+518928765+525374665+530691024+535801041+544676464+555085769
1695+567242915+579236319+587584845+594818948+601005533+606352512+617476799
1682+632466698+643506396+651218864+658752586+667697134+675373470+682462893
1668+692314642+701421401+707543378+713477270+720055794+724864240+726230208
1655+725180164+728822822+737283418+741011430+742880947+748357297+754255133
1641+757232031+757031928+754399048+753862123+758520683+763478096+766825269
1628+769819314+773491061+779165447+787634999+795374259+801766766+812184070
1614+824935937+833158614+836776699+838147642+839063034+839337621+838546930
1601+836814821+833954050+830422238+825918616+819922106+812747559+804685638
1587+796391310+787868937+779120435+770697425+762512411+753662938+745585401
1574+740518980+735182565+729288862+726945420+727296021+726644040+722552337
1560+714868423+713631749+723527897+732411359+739350053+746395076+754255440
1547+761489696+767640149+774956468+787852173+810842139+832381090+847621997
1533+862411027+876858871+887332363+894147046+897199652+895429268+888869345
1520+880156132+870699001+860815714+852655196+844175998+833343713+821957202
1506+818404950+825906980+832671676+835775417+837959022+843465073+851404054
1493+857295460+862136517+869710657+881063945+892709121+901655430+908326198
1479+913954806+919196069+924058024+928534087+935085360+942606987+946648626
1466+947603823+949247517+950692561+948194181+942707497+942440030+948541721
1452+952878922+951851384+946538623+942539699+941823874+940388322+935959720
1439+928546029+919439193+913757765+911697254+910122915+909736871+908600478
1425+904411479+901742009+904127477+909246488+915300335+922621629+930192785
1412+935812743+939430751+941536733+941823109+943208597+947041024+950205547
1398+951616603+952476342+954057188+955916983+955927011+954649995+954687658
1385+956261461+956794559+955678605+954998147+955260945+955980979+957894437
1371+960566127+962740316+963750018+962963384+961638907+961795759+961801500
1358+960270566+958946624+959086941+959685720+958716590+956017571+953461165
1344+951607340+948773439+944928382+942155568+940847319+940079288+938505791
1331+936239282+934942210+934263360+933937408+934815902+936172148+937228316
1317+939065299+941982717+944375534+945883120+947373177+948334422+948748254
1304+950700752+954252545+956841331+957747613+957553481+956441661+955523743
1290+955992921+957775018+960560999+964077501+968121207+972782217+977254070
1277+980692108+983515675+986499845+989422621+991030489+991442943+991338222
1263+990261998+989009095+989165105+990769375+992683828+993429353+992879032
1250+992974949+993834000+993517999+992676326+992601842+992727921+993286280
1236+995175931+997789596+999812674+1001003111+1001740982+1002846755+1004959014
1223+1006946572+1007507611+1006960198+1007132896+1009552200+1013202359
1211+1016428353+1018933546+1020645522+1021935629+1023425915+1024873256
1200+1026260734+1027469314+1028056534+1028984632+1030950527+1032632419
1188+1033290294+1035045905+1039058531+1042486618+1043085090+1042406316
1177+1043601730+1046939410+1048910740+1048466823+1047996803+1048314641
1165+1049111914+1050954486+1053726764+1055766760+1055490259+1053727300
1153+1053144291+1054955783+1058486677+1061360231+1061571281+1060979775
1142+1061376690+1061470770+1060363696+1059729092+1060637288+1060359180
1130+1058870655+1059488494+1058821815+1055089211+1054461496+1056954671
1119+1058663356+1058235515+1054361215+1050610468+1049670733+1049123474
1107+1048012189+1046362602+1044744935+1043517065+1043535437+1045796051
1096+1047072455+1046763344+1047910224+1048632096+1048692724+1051305164
1084+1054486528+1055505646+1054027684+1051205572+1052116983+1056947016
1072+1058273943+1054299209+1049770326+1048107724+1050830704+1055803504
1061+1057967741+1056598634+1055584340+1055750531+1053547100+1049346618
1049+1048194915+1051398709+1054938942+1055082015+1053248553+1053172079
1038+1053744830+1050583522+1045941956+1044845293+1045199722+1043371542
1026+1039344294+1035906180+1035084180+1034911788+1033834875+1032229227
1015+1031119857+1030227354+1029033701+1029563967+1031360532+1032258623
1003+1032097867+1031561018+1031901438+1032638849+1033312341+1037125171
991+1044218268+1047206112+1043743042+1041001384+1041930861+1043291547
980+1043784915+1045997302+1050773521+1053934140+1053741309+1053845035
968+1054867214+1054662441+1056300929+1062437374+1068049371+1068397753
957+1064462672+1060526060+1060278496+1062456665+1063391347+1062279910
945+1061593404+1063138194+1065393986+1067196215+1069669410+1071091031
934+1069093444+1068253838+1071510681+1073741823+1072053041+1068515564
922+1065861480+1065834305+1067110479+1068439856+1070615805+1072347455
910+1071223233+1068843889+1068091857+1067545745+1065597687+1065003425
899+1066053392+1065127743+1062723214+1060303834+1057313463+1055190564
887+1053059473+1049354197+1046475820+1045325189+1044829371+1043799000
876+1040058052+1034855370+1032333260+1032087762+1030211738+1026313937
864+1022357345+1019210582+1017470206+1017166683+1017770054+1017976817
853+1015724241+1011435190+1007811593+1005417322+1002997330+1002756961
841+1007786868+1014181977+1015293950+1011894034+1009589786+1009173810
829+1007505621+1005338475+1005185527+1006534195+1007557446+1006460094
818+1003117744+999666998+997706539+998011057+1000351283+1001624778+1001440827
804+1003216494+1004185241+999901549+994657607+993933822+996290660+995966085
791+990647430+984863194+981761672+978930833+974781870+971109817+969818180
777+970215630+970244336+970074777+969561352+965952989+959661836+954897636
764+952840876+952064883+950338439+945096104+939065758+934868798+929818759
750+925342312+924263256+923633628+921086638+917682665+914545087+913204840
737+914040083+912814586+907142343+900209773+894367435+890608880+888388761
723+884282819+877420216+871412835+868347292+866900181+866501046+867163821
710+867669667+867216487+865990990+864706165+865076134+868829254+873827699
696+874622064+870194380+865703160+864423541+863812897+861747410+861196552
683+865107367+870650545+872224118+868815016+865092439+864676770+862888702
669+856869763+859255154+869296136+874007669+877077499+880083869+878605831
656+874833190+872062979+869375672+867710774+869094732+871181500+871425772
642+870745774+868081432+863253772+863575590+871894338+874990502+867968520
629+864382816+863453263+856715130+851024592+848523074+842554045+837658484
615+839380489+838895235+834840735+839218355+849672939+854583963+852228886
602+846466620+841896323
##END=
