##TITLE=Sample description
##JCAMP-DX=4.24
##DATA TYPE=INFRARED SPECTRUM
##DATE=12/9/2023
##SAMPLING PROCEDURE=Instrument type and / or accessory
##ORIGIN=Default
##XUNITS=1/CM
##YUNITS=ABSORBANCE
##RESOLUTION=4
##FIRSTX=4397.6552
##LASTX=599.8556
##DELTAX=-1.9287962
##MAXY=1.7690086
##MINY=0.16609074
##XFACTOR=1
##YFACTOR=1.6475177e-009
##NPOINTS=1970
##FIRSTY=0.16886051
##XYDATA=(X++(Y..Y))
4398+102493899+102203467+101875564+101253547+101157385+102262718+103092064
4384+102601937+101711241+101321889+101826931+102853865+103231279+102786673
4371+102523827+103077032+104065174+104685825+104861643+105018115+105317898
4357+105337833+104595785+104081454+104504706+104913857+105123421+105600154
4344+106244908+106721469+106846547+106826232+106860421+106887148+106420790
4330+105520914+105351852+105862447+105498972+104451669+104330570+105076299
4317+105837991+106123665+105442587+104428008+104219701+104798665+105347067
4303+105578745+105628391+105455395+105148185+104599313+104258638+104910556
4290+105817025+106105549+106306004+107093456+107958862+107915448+107175789
4276+106655904+106357622+105745166+105368765+106073051+107105792+107424615
4263+107378135+107526494+107815568+108297936+108665916+107997772+106615547
4249+105831063+105671606+105636043+106089693+106896057+107210004+106882481
4236+106122987+105580337+105918705+106558340+107269807+108164926+108531983
4222+108439647+108287535+107935889+107690481+107646461+107452599+107632144
4209+108637516+109212066+108682404+108506966+109244328+109671822+109488234
4195+109386482+109583013+110319724+111358986+111429633+110342480+109593224
4182+109779145+109778575+109307405+109214797+109412033+109284233+108816518
4168+108711736+109237527+109522613+109413462+109547440+109954773+110397173
4155+110549330+110190413+109651951+109650314+110351479+110933708+110981220
4141+110759554+110360388+109948424+109663103+109411536+109492567+110315907
4128+111119756+111079571+110947257+111378378+111810638+111611765+111010714
4114+110740325+111017344+111363562+111150752+110613918+110619218+111054933
4101+111025819+110424089+110226021+110834308+111512301+111892826+112086833
4087+112035903+111839481+111689684+111781107+112320808+112939134+113064393
4074+112860844+112803058+112934892+113042152+113110729+113041818+112659276
4060+112433522+112801394+113396285+113704598+113589858+113309864+113114247
4047+113135827+113550460+114068246+114154604+113932938+113694631+113229240
4033+112661510+112527650+112767793+112996414+112964387+112454316+111834054
4020+112025230+112876536+113216713+113056027+113235906+113811062+114349190
4006+114520540+114257929+113808014+113546760+113424893+113230877+113472034
3993+114268349+114625539+114379815+114411100+114694142+114564533+114100291
3979+113714873+113357927+112868821+112640743+113196481+114118163+114479079
3966+114068969+113757111+114460719+115226562+114924508+114467683+114248252
3952+113419964+112563005+113055538+113853843+113720462+114060784+115049279
3939+115076440+113800733+112134290+112032656+113945167+114996151+113825117
3925+112900089+113271252+112723863+111748040+112887336+115323710+116274317
3912+115468280+113854666+110905444+107439919+106623262+108586604+111371187
3898+113969668+114006543+111035587+109788343+112174928+112271868+110789139
3885+111820768+111948215+112295664+114686373+113759047+110515042+108320783
3871+107859516+110865150+112742423+111756641+113272410+116169074+115146219
3858+108935391+100812722+102240116+113523651+118739961+117548043+113960588
3844+110734446+108141292+105738003+106827788+110999580+113160782+114106125
3831+115575142+116283353+116016076+113406234+108808396+109486669+113266278
3817+114645057+118119518+121146859+119546216+115247745+113114591+113442675
3804+111424243+111933518+116558852+117971747+118836783+121013966+121807315
3790+121809060+121525087+120761477+120301522+119370235+118642107+120733574
3777+123392239+123323798+121120892+119999468+121521876+123024982+124027559
3763+123953882+121914937+121607763+123294294+121700941+116195421+113688752
3750+118164823+119812968+118916946+124951729+130845055+129185558+124564448
3736+123444761+128156100+135194682+139687259+140424974+140466977+142421970
3723+145683702+149799671+154116403+156698351+156163235+155245080+160315871
3709+169593076+176774336+180604477+183984938+191354435+200877545+208397508
3696+213371630+215824746+217047542+222124121+232634866+241345444+245649053
3682+247645814+248127910+246895364+249142101+258098493+264042414+268831357
3669+279147969+288105646+292556102+296097069+299952299+302833642+306728687
3655+312012007+312712133+310611756+316955178+330805919+340703187+346297461
3642+350829970+355169323+358812385+361931546+364519825+365452687+367997733
3628+377817108+387576210+392024351+392854430+393464362+398428047+404687100
3615+408223689+411450916+415474973+419511186+424459096+429180349+432369407
3601+435795036+440024334+443041038+445277265+448106818+449407795+448551632
3588+449962049+455077068+460002547+463681643+466299516+467795351+469373455
3574+471008902+470861728+468610343+467113170+469894135+474206896+476863915
3561+479230926+481337091+481919383+482019344+483467025+485930489+487244309
3547+486814762+486160403+486363545+487350746+488554223+489323051+489437122
3534+488837030+487773745+487157336+487495207+487850733+487736300+488097289
3520+488757618+488912570+488918974+488873208+488182778+487007196+486248136
3507+486123609+486115903+486091447+486457464+486962588+486651706+485292880
3493+483444016+481897930+481317953+481266326+480672782+479582834+478565098
3480+477661903+477690918+479143447+479978337+478383735+475692420+473995904
3466+473365747+473065141+473214268+473404494+472862324+472061840+471277527
3453+470097386+468328114+466448173+465800796+465879665+465035586+463865755
3439+463314830+463013608+462408306+461470705+460352719+459483640+459162267
3426+458465253+457545886+457594763+457661657+456861462+455894773+454715211
3412+453410688+452790300+452647142+452547868+452855964+453625588+453946455
3399+453353743+452773007+452114052+450221847+448171903+447901035+448836755
3385+449203134+449065149+449578702+450222534+449887666+449508552+450270760
3372+451418811+451638378+450474264+448422765+446585406+446122647+446775089
3358+447099067+447274279+447517978+446811919+445998446+445936400+445957239
3345+446328575+446853596+446689310+446073408+444878940+443659907+444154286
3331+445551063+445302590+443561719+442047035+440890917+440030086+440154540
3318+440795695+440554204+439258291+437731380+436493462+436259278+436528012
3304+435276780+432962734+431643125+431606548+432412315+433801350+435345736
3291+436312425+436461914+436671098+437508810+438585553+439205797+438813441
3277+437683226+437081036+438133286+439883636+439834433+438098374+437353098
3264+437717813+437327086+436329609+435411002+434984856+435882118+436750907
3250+435744025+433923236+432589119+431381771+429715066+428327550+428477654
3237+429572089+429914337+428713357+426679441+424891212+423496894+422760373
3223+422589141+422309264+422276848+422605168+422760373+422615985+421885795
3210+420560542+419318608+418689537+418445043+417852730+417062158+416956517
3196+417501581+418034345+418246930+418083910+417309944+415999488+415207650
3183+415099585+414570512+414010469+414214479+414424206+414183945+413219572
3169+411256420+409670321+409305642+409282813+409171854+409267365+409806026
3156+410177506+409555635+408272421+406893660+405480675+404371696+404139720
3142+404321047+404056510+403132946+401607518+400595896+400522707+399921783
3129+398782812+398180550+397715620+396609319+395232910+393994051+392430491
3115+390760023+389683714+388877875+387836768+386662125+385291541+383563079
3102+382111491+381348379+380613739+379606929+378578665+377506335+376429773
3088+375526542+374851018+374218184+373317304+372490518+372135644+371578966
3075+370305593+368930305+368280359+368429848+368546307+367632692+365750182
3061+364148562+363425319+362795560+361670049+360549529+360135141+359971362
3047+359131008+357892186+357073793+356888378+356805602+356162132+355312951
3034+354819947+354300027+353600155+352956395+352242413+351722167+351832041
3020+352406266+353144342+353662382+353631847+353477763+353714659+354310048
3007+355392435+356869204+358049598+359198300+361225054+364159995+368180687
2993+373949089+381235972+388703893+394785925+399213517+402870291+406207500
2980+409165052+411188007+411546391+409944807+406428080+401966046+397891809
2966+394392123+390992144+387492964+384147614+381588640+380330787+380344861
2953+380930879+381575688+382841355+385071033+387417459+389141290+390521679
2939+392016718+393455318+394228741+393693264+391817483+389223922+386224041
2926+382650152+378676419+374848340+371007527+366744041+362487790+358707467
2912+355476912+352834040+350528495+348125305+345615895+343392186+341656995
2899+340355548+339313464+338263022+337161135+336329537+336080086+336218216
2885+336216805+335961964+335668376+335121828+333972221+332461336+330858667
2872+328984912+326919702+325123007+323801300+322724339+321580521+320274117
2858+318617651+316411995+313732835+310532706+306943659+303598852+300834095
2845+298319873+295741977+293203968+290786198+288530652+286578390+285032630
2831+283952648+282897829+281390617+279880980+278870154+278094723+277246411
2818+276333647+275203884+273886391+272955339+272562549+272215688+271651341
2804+270902248+269938218+268969016+268427298+268096825+267403176+266401431
2791+265376296+264401287+263536875+262698493+261691755+260569735+259455782
2777+258359665+257432050+256655371+255742914+254667057+253597260+252690502
2764+252033085+251561679+251015457+250211771+249587258+249433066+249295805
2750+248983548+248608595+248019393+247227772+246543077+246107777+245798470
2737+245482867+245094220+244594993+244118613+243865292+243776727+243716002
2723+243610071+243323140+242898423+242419221+241833257+241360766+241202648
2710+241103175+240837101+240519526+240269732+240004960+239645998+239268837
2696+238913221+238538286+238157254+237704083+237100264+236418500+235746376
2683+235193805+234764312+234276807+233653416+232965972+232302133+231656094
2669+231008518+230405695+229827328+229298760+228886398+228475176+227974520
2656+227554850+227278700+226957255+226579027+226260114+226020450+225798441
2642+225486203+225148260+224939908+224856951+224810479+224809937+224845573
2629+224727920+224493050+224382090+224352008+224330825+224459603+224713449
2615+224790219+224725912+224900618+225121325+225031096+224950725+225095457
2602+225197119+225119317+224971835+224958106+225078725+225066478+224880087
2588+224696463+224507141+224171640+223664454+223126228+222659670+222176163
2575+221606606+221076772+220744329+220503326+220090349+219567733+219122647
2561+218658062+218101619+217565490+217136233+216859251+216798073+216824700
2548+216661590+216351179+216145396+216108476+216143080+216166994+216188828
2534+216221298+216310894+216490484+216612405+216597518+216621884+216773417
2521+216972435+217268375+217661309+217966872+218131665+218220845+218254744
2507+218197745+218036208+217893864+217916819+218113829+218360458+218518142
2494+218549364+218527023+218486341+218370606+218301650+218418361+218579012
2480+218619586+218432507+218098508+217885000+217790068+217678440+217494653
2467+217233987+217006316+216861168+216781919+216667758+216355339+215969822
2453+215737610+215627501+215502360+215321178+215146147+215020191+214873343
2440+214625774+214361237+214161152+213923315+213582188+213226427+213023973
2426+213037087+213063462+212982928+212949608+212946659+212782988+212571833
2413+212540755+212658064+212794674+212863594+212878445+212935408+213000276
2399+213012215+213079597+213251734+213406524+213474937+213457572+213265482
2386+212679264+211377889+209111399+206016025+202505847+198877853+195249534
2372+191418181+187185899+183072011+179588532+176880032+175347494+175140228
2359+176142389+178615747+182633383+187886259+192869607+194776428+192561836
2345+188416636+185749560+185242302+185819421+186738932+187469375+187827252
2332+188145623+189031633+190547746+192058106+193254274+194728618+196868013
2318+199124681+200828541+201899152+202875663+204146666+205477925+206646724
2305+207620485+208319417+208867810+209469096+210035343+210426161+210681942
2291+210924646+211232470+211586331+211934350+212128827+212006164+211670700
2278+211389919+211291097+211266387+211182471+211090904+211055883+211030468
2264+210980939+210919345+210879640+210875515+210856323+210823690+210848020
2251+210913249+210928462+210868442+210848508+210925478+210990056+211036111
2237+211121456+211154505+211115216+211157834+211276318+211345510+211397082
2224+211480853+211613302+211760386+211798717+211724425+211636203+211648595
2210+211874547+212230145+212453782+212464672+212456948+212613890+212946696
2197+213291223+213485809+213581230+213692677+213823607+213910182+213954229
2183+214029499+214105672+214094077+214028033+213949345+213838422+213827135
2170+214059834+214343871+214452190+214512481+214627709+214630224+214545910
2156+214632177+214872638+215039239+215100019+215171689+215302781+215497096
2143+215761705+216080672+216400436+216673981+216924372+217163186+217328395
2129+217441977+217609610+217758611+217789272+217865934+218075390+218267334
2116+218366662+218372071+218340469+218408828+218533119+218557088+218561628
2102+218727289+218982094+219130353+219201462+219361461+219652752+219989483
2089+220273158+220539812+220852086+221131764+221316581+221456755+221651612
2075+221927418+222190201+222371581+222488112+222595851+222783545+223107342
2062+223463990+223745512+224006015+224274622+224483281+224618299+224808092
2048+225149291+225488862+225607002+225617114+225858696+226312500+226720901
2035+227079086+227473214+227850465+228181389+228539664+228898609+229250661
2021+229625651+229878719+230121061+230683183+231441176+232037831+232473402
2008+232986738+233593903+234171094+234752554+235408017+236145714+236820732
1994+237147260+237356462+238036382+239061625+239975764+240730664+241446256
1981+242122974+242752696+243421418+244074024+244629164+245038252+245145412
1967+245251886+245848613+246586382+246986534+247161819+247199697+247103228
1954+247053663+247107117+247074954+246784839+246160200+245411197+245298049
1940+245893311+246255277+246165663+246007400+245927988+245943563+246031784
1927+245905142+245319503+244799347+244589946+244393534+244797014+245888626
1913+246604833+246672234+246789235+247422303+248215136+248795457+249297632
1900+249793114+250068504+250292883+250778018+251033655+251190308+252276186
1886+253798901+254887239+255782023+256726425+257684033+258581747+259315627
1873+259324310+258253247+257846004+259952223+262861097+264736715+265818397
1859+266717431+267733738+268862235+269860380+270548006+270853171+270578360
1846+270021248+271126735+274069509+276270805+277440816+278644093+279567639
1832+279276384+278862720+280114368+282030722+283994073+286361627+288345835
1819+289685884+290916097+291980684+292434868+292918864+294356451+296162805
1805+297258469+297387699+297544659+298898819+300623572+301003229+300395485
1792+301595796+304996317+307547875+308660146+309472714+310243387+311235907
1778+312457400+312449441+310709619+309794847+312180418+315821092+318529267
1765+319467663+319367630+320270355+321761196+323012139+324170609+323862007
1751+322145593+321815862+323765266+326057858+327461257+328116268+329179299
1738+330053516+329018197+329072609+333133134+337447994+340942652+343508066
1724+345165944+346088350+345107913+343220520+345213084+351334768+357025169
1711+360663636+362048620+362303750+363256221+363827659+363592680+365906256
1697+370992296+378533152+386526384+391453311+394800360+396964339+397930484
1684+404153432+415839616+424906877+430475682+434939923+440286121+444550404
1670+448258948+455005579+461562309+465171002+469219950+475548755+480760551
1657+482014207+480373659+485428947+497379089+504165190+510905128+523233117
1643+535290817+544303703+550980039+556863234+568503435+586257144+600811266
1630+612321514+624851416+639000737+654304369+670875259+684659467+695114607
1616+707890739+722766669+734898245+743810591+749880467+754080713+757544584
1603+760449713+762798781+764187744+763564968+760882770+757054076+752362816
1589+746767239+740404389+733410732+726463238+719944460+712696396+703430948
1576+695388984+692128944+688787067+684397463+683690536+685815514+687260988
1562+686344081+682921382+685975929+698901333+710706508+720917949+731633863
1549+743777089+755286180+764671812+772980990+784928925+807573816+829608304
1535+844833717+859657188+874971673+885976146+893258363+899021736+902398633
1522+902587556+902187929+902829156+903343976+902601666+898901623+891582794
1508+881990221+878708546+886281637+893077181+895802794+895652653+896682726
1495+901803642+906049400+906839755+908715970+914303515+919846271+925019067
1481+931428659+937398177+940213656+939365272+937872910+940841136+946975193
1468+950129737+949614556+950721472+953008529+949769400+940914216+938459797
1454+944501744+948490708+948708503+947236039+945963571+944573160+941342497
1441+936761002+930771369+922136657+915690959+912974680+908877398+903297378
1427+899462751+899655365+903200202+904461962+903183994+907295459+916135303
1414+924043334+930755595+935965799+937730512+938041285+941132517+945884774
1400+948922751+951545906+955260421+958455413+961262788+963727626+964017271
1387+963193705+963980586+964629411+964228336+965778728+969785998+973426853
1373+974965523+974761911+973302399+970725987+967587578+965202912+964757265
1360+965686690+966368798+965390822+963892962+963530382+963104127+961820732
1346+959957614+957432865+954010455+950368153+948101283+946657184+944359056
1333+941457689+939720616+939983489+941142140+942372787+943436867+943738089
1319+944007546+945910533+948784767+951395983+954171522+956571094+957171150
1306+957096550+959547568+964681508+969117276+971349414+972144182+971444274
1292+969826880+970148940+974950762+982439702+987851348+991094385+996501183
1279+1004742635+1011515965+1013673359+1013862427+1015743997+1017519346
1267+1016450634+1015428882+1017905080+1021220763+1022073200+1022021610
1256+1022587441+1023579020+1025092148+1026588923+1026964310+1025851678
1244+1024408447+1024747512+1026323735+1026827266+1027097519+1027677171
1233+1026660701+1024973627+1024541150+1024344628+1023223892+1022046283
1221+1021939412+1022312991+1022193530+1021233643+1018721194+1015567807
1209+1014209379+1014843298+1016019242+1017289613+1018388642+1018037421
1198+1015805138+1013308029+1012114791+1012055820+1012000467+1011393393
1186+1010700358+1010452174+1010898182+1011904594+1012427228+1012130637
1175+1012713906+1015041990+1017002500+1017332882+1017339394+1017453067
1163+1018040822+1018909394+1018622933+1018351884+1019608362+1022295625
1151+1025507114+1027293896+1028018406+1029450060+1031470265+1033023406
1140+1032816899+1030356402+1028634670+1030519350+1033330923+1035640193
1128+1039323739+1041706524+1039233438+1034581974+1033027385+1033267176
1117+1030727810+1028527871+1030944881+1032926664+1027417554+1020597770
1105+1021749186+1027093829+1029813870+1027333982+1020927501+1018683858
1094+1025240117+1033909850+1036468391+1035181089+1035099760+1035360100
1082+1035865802+1038156405+1040956690+1042024678+1040424070+1035542077
1070+1029978482+1030126018+1036173898+1041394304+1043120523+1044144663
1059+1045990922+1047312521+1047489433+1046737717+1045167790+1044347986
1047+1044871199+1045838104+1047809757+1049736984+1047706215+1041035414
1036+1034980805+1035017056+1036943124+1032242096+1024898810+1023152693
1024+1025785037+1027415962+1026503180+1025687573+1024922109+1021853959
1013+1020322742+1024348029+1028288586+1026381475+1022593374+1020084471
1001+1017591196+1017610732+1021502159+1024879563+1025698354+1025734098
989+1026686894+1029109982+1031480033+1033143084+1035531947+1039118535
978+1042639784+1044817727+1046076158+1047422793+1048629055+1048715232
966+1048801915+1050794842+1052221286+1050728346+1049495312+1051049828
955+1054059296+1059298588+1068304418+1073741823+1069278704+1061579350
943+1056738745+1055597821+1058850915+1063791156+1063991078+1057334170
932+1050958007+1049633513+1049947615+1051317838+1055838191+1059076235
920+1056581369+1052704413+1051999657+1052281197+1050811194+1049521215
908+1050807504+1052313975+1051634399+1050823785+1051345261+1051575500
897+1051301051+1053063954+1056383328+1055763663+1050499843+1049153353
885+1053794615+1056182465+1055339724+1054095692+1049531418+1042197249
874+1036562093+1034576330+1033680189+1030373479+1026329161+1024337176
862+1022721156+1019797575+1018194436+1020054081+1023133880+1023570626
851+1019444257+1014013509+1011911830+1012440976+1013824729+1015073393
839+1012616441+1007192350+1004758626+1006528837+1008872044+1009198518
827+1007577289+1006520372+1007635753+1009704003+1011499106+1011115397
816+1007728081+1004611596+1003906334+1004745095+1005011947+1002289518+998957410
802+998706549+998987077+998344475+998957483+1001997269+1009010752+1011870876
789+1000950264+987240656+980958195+978341769+975764126+974219885+974092754
775+973175992+971744483+971127206+968830742+964141797+959916733+956590486
762+953700261+953954668+956650614+955397320+948708285+941756595+938698358
748+939177650+939642833+936658544+930530131+925644448+923457894+921648972
735+920947037+921511710+919069737+912537572+906340782+902406085+896995236
721+890194048+888269426+888918034+886150092+884820751+887397670+888582298
708+887369740+885812475+885301925+886215720+886912372+887580950+889638564
694+890864217+888673178+885482672+885114086+886072815+884717425+882870660
681+882713211+882755902+884196311+888988147+893059381+890104759+882508586
667+882867911+890070317+894737121+898043181+898707996+895097024+890469004
654+886531630+885069804+888315156+893374496+896670787+897809034+896391200
640+894067747+894145893+881291688+839483503+809448873+830511535+879168663
627+903114387+897822854+885805818+874736007+867556971+868338136+872174789
613+867397641+859006121+859616813+865172377+867401838+871521117+881430396
600+886578735
##END=
