##TITLE=Sample description
##JCAMP-DX=4.24
##DATA TYPE=INFRARED SPECTRUM
##DATE=12/9/2023
##SAMPLING PROCEDURE=Instrument type and / or accessory
##ORIGIN=Default
##XUNITS=1/CM
##YUNITS=ABSORBANCE
##RESOLUTION=4
##FIRSTX=4397.6552
##LASTX=599.8556
##DELTAX=-1.9287962
##MAXY=1.8641472
##MINY=0.29365429
##XFACTOR=1
##YFACTOR=1.7361224e-009
##NPOINTS=1970
##FIRSTY=0.31167802
##XYDATA=(X++(Y..Y))
4398+179525378+180729420+181455028+180427607+178753370+178619595+178872708
4384+178205379+177869388+178004828+178371718+179744622+181397642+181950817
4371+181630825+181326884+181070114+180396863+179401473+178631680+178742487
4357+179507113+179765771+179811930+180052855+179517052+178783290+178751962
4344+178742779+178879489+179293482+178733148+177352897+176997217+177966754
4330+178813382+178675316+178113489+177904750+178008845+178245788+178577315
4317+179078460+180073214+180905612+180650250+180318397+181009535+181662548
4303+181142091+179964502+179263802+179438174+179438466+178602687+178201259
4290+178944823+179839842+180282708+180775425+181139173+180649924+180316920
4276+180986670+181138074+180117897+179335058+179156497+178944754+178948754
4263+179342834+179696918+179792000+179361785+178248534+177162663+177168173
4249+178231025+179260351+179696008+180101349+180771219+180887691+180206903
4236+179513070+179139794+178853894+178831372+179490428+180090672+179832770
4222+179243580+178851697+179023786+179817046+180180862+179492985+179021778
4209+179876835+181006205+181087143+180296888+179709947+179904610+180217924
4195+180196998+180376349+180827266+180848346+180301866+179526665+178691761
4182+178404144+178636418+178559772+178561866+178996149+179240696+179246138
4168+179361064+179616134+179611946+179093446+178617535+178707777+179017435
4155+178760597+177855570+177386027+178124819+179216956+179779057+180055190
4141+179981101+179655325+179835327+180021785+179310785+178581178+178686543
4128+178658099+178019728+177950601+178874888+179653831+179403636+178618497
4114+178354294+178725166+178726333+178020827+177513125+177434968+177197888
4101+177136382+177988263+178988854+178851319+178157829+178054146+178174137
4087+178094246+178510299+179563383+180078999+179427154+178610909+178494352
4074+178419250+177770254+177153840+177106667+177316024+177466639+177545277
4060+177423981+177263857+177683068+178473856+178424932+177445405+176793164
4047+177081674+177803660+178221961+178559016+179179980+179381681+179006655
4033+178606274+178250766+178091637+178066986+177753106+177647929+178147066
4020+178290540+177755818+177188498+176769818+176776084+177365136+178008450
4006+178310006+178133007+177573532+177119353+176806451+176457774+176662565
3993+177700011+178643816+178841998+178763258+178616419+178122930+177645955
3979+177938430+178804902+178835784+178039572+178055073+178490060+178216005
3966+178135530+178986622+179770680+179276882+177933109+177088609+177065692
3952+177677026+178813966+179613817+179338096+178596507+178230510+177959287
3939+177575489+177575506+177968162+178577607+179196477+179146335+178158910
3925+177322753+177555782+177673026+177119302+177085244+177802458+178138311
3912+177665010+176971279+176072122+175077111+175203007+176173694+177008735
3898+178008416+178433292+177399554+176563363+177312007+177145583+176061754
3885+176136770+175770395+175431813+176544669+176237466+174504401+173303637
3871+172546152+173285510+174532793+174554440+175030402+176439355+176704227
3858+174372291+169951335+169143777+174625610+178400848+178717647+177078790
3844+175020892+173279605+171850190+172192292+174332809+175412003+175656722
3831+176510217+177144415+176982677+175391936+172418471+172350648+174649505
3817+175493267+177333448+179228869+178369692+175493833+173421791+173491399
3804+173341196+174507353+177512026+178445051+178712103+179568482+179459306
3790+178909632+179026996+179556277+179867891+179391225+178791238+179685520
3777+181323553+181835788+180951154+180335734+181657656+183458681+184431909
3763+184310802+183292565+183534263+185260839+185650594+184019546+183933493
3750+188211439+191815394+194738975+201713960+208276000+210742329+211618157
3736+213227111+215925920+219876269+224121925+227052681+228699881+229978304
3723+231392441+232753896+234039185+235742947+237762273+241416954+249710376
3709+260742758+271072243+280133571+289947508+302673954+315010147+323745148
3696+329092846+330748819+328906973+326840320+326886772+325829310+321247835
3682+314096949+306407050+298889394+292469918+290382770+289549291+287207690
3669+286552686+286810657+285851008+284977291+284806163+284210433+283760512
3655+284432888+283809933+281490888+282101673+287042364+291619033+294079714
3642+295192210+296393385+298269632+300184159+301529255+301468418+300878113
3628+303090985+305541951+305046505+302314085+299423944+298656760+298572441
3615+298008571+299111385+301923352+304731954+307389839+309619912+310860432
3601+311336892+311623874+312065212+312653320+313330657+313755826+313498507
3588+312702862+311764567+311373250+312027584+312800502+312386560+311473705
3574+311773527+312997396+313606515+313705186+314377648+315099479+315555306
3561+316195530+316411479+315850424+314997307+314131556+313766469+314459118
3547+315851866+316511488+315791442+314915528+314769239+314581065+314002330
3534+314162145+315089008+315762294+316171806+316556703+316232471+314862485
3520+313334640+312634541+312816535+312923102+312656616+312693077+312825221
3507+312789722+313113885+313616197+313289871+312091923+311243406+311370641
3493+311722235+311430069+310549761+309808669+309708969+310101728+310134652
3480+309221248+308130862+307834199+308161589+308329027+308133128+307925831
3466+307759458+307488200+307327046+307418472+307464477+307095236+306222618
3453+305288477+304928437+305232516+305572678+305211024+304188581+303276344
3439+303080720+303346965+303332614+302938551+302702175+302841014+303273975
3426+303735020+303886734+303878254+303662923+302865836+302079632+302084095
3412+302387934+302195502+301638774+301276227+301336995+301618518+301770540
3399+301609832+301260057+301107760+301272348+301393540+301225828+300895176
3385+300567545+300218251+299905623+299834315+300028051+300371784+300579836
3372+300433169+300189412+299941981+299616650+299701210+300360179+301054820
3358+301390931+301131964+300609877+300694848+301431855+301820734+301434979
3345+301234857+301678736+302221938+302687446+303040826+303116666+302879363
3331+302632687+302729675+303059228+303373229+303422564+303142277+302704647
3318+302164707+301375447+300227932+299526494+300199471+301383137+301867734
3304+301770987+301224935+300525008+300456103+301101718+301998539+302794562
3291+303741612+305008980+305884275+305960905+305878782+306241706+306601163
3277+306565595+306511591+306788994+307428463+308084857+308566433+308787291
3264+308457978+307819882+307206334+306646825+306724896+307543715+308087398
3250+308069991+307763440+307193151+306457758+305617584+305058693+305139648
3237+305517712+305710349+305719001+305565228+305280855+305221598+305296030
3223+305319582+305444757+305625240+305367269+304374832+303407527+303068738
3210+303077287+303155598+303132458+302820620+302414335+301956345+301111433
3196+300297729+299975043+299738392+298989026+297973381+297490089+297369205
3183+296916743+295921011+295146377+294875565+293911075+292245764+291309976
3169+291962834+293217842+292968385+291100584+289882518+290447898+290962089
3156+289854846+288609794+289053227+289803073+288535843+286220764+285917955
3142+287964798+288440091+285594118+282907601+283209087+284637095+283301887
3129+279857884+278744513+281283729+282932920+279900181+275636673+275124696
3115+278047933+278728720+274760124+271252916+272100368+274387724+272473660
3102+267299597+264692695+266668969+268922370+265955480+260660482+259605406
3088+263378636+265795699+262220959+257201596+255981469+257809308+257952953
3075+254440767+251466272+252250004+255275843+255936666+253065717+250601568
3061+251001056+253534263+254565324+252401374+250115340+249988827+250995768
3047+250669717+248865859+247502345+247250004+247426849+247141446+246204456
3034+245151457+244546612+244390075+244033074+243236999+242701436+245047878
3020+256415890+276940175+290154359+283794569+269099867+258025582+251506647
3007+247243361+244198726+242182713+241145182+240507137+239249812+237827658
2993+237725486+239331282+240942760+240493834+238678732+237729417+239054188
2980+241582847+241897139+239735834+238064360+238295964+240001581+240598512
2966+238536958+236224042+236193006+239180238+241770351+239646467+235752869
2953+234496659+236327193+239152789+238990056+235863418+233702782+234371450
2939+237172568+238468946+236003510+232985877+232430951+234557513+236864575
2926+235696582+232308712+230406922+230973538+232664787+232336452+229553547
2912+227630918+228080205+229947010+230933318+229540055+227510395+226628491
2899+227080318+228392266+228742573+227416017+226261842+226493171+227618009
2885+228278678+227714431+226915782+226792135+227357172+228152165+228216383
2872+227487874+226857263+226787980+227153308+227338443+226914923+226348032
2858+226159481+226269687+226209829+225444911+224229470+223324185+222970617
2845+223187990+223610051+223633191+223381674+223215404+223285527+223650614
2831+223998467+224082666+224141065+224265313+224116106+223590173+223002751
2818+222567902+222384311+222468064+222595367+222598457+222493384+222353532
2804+222302772+222428342+222668666+222799677+222712577+222570700+222534205
2791+222602302+222646608+222546599+222386010+222363111+222461730+222396774
2777+222099252+221936037+222013336+221918768+221502029+221048022+220776695
2764+220720151+220759272+220811748+220899415+220929387+220909252+221001982
2750+221129200+221098970+220915483+220792076+220910556+221021225+220768833
2737+220353192+220206097+220364453+220579990+220723446+220841377+220895072
2723+220753813+220532492+220482624+220553331+220536234+220454266+220426835
2710+220437804+220436465+220453047+220494846+220421616+220271602+220332748
2696+220512562+220491070+220349794+220282829+220287241+220361587+220460102
2683+220488426+220494658+220467947+220336404+220215418+220148247+220027330
2669+219904421+219884423+219818230+219577889+219350920+219209660+219038721
2656+218900620+218812233+218665669+218525337+218491571+218506557+218403303
2642+218063622+217663053+217449096+217393718+217312248+217028270+216617196
2629+216416181+216469963+216405504+216055455+215722760+215616193+215601104
2615+215510536+215247827+214940143+214795056+214692094+214426227+213999789
2602+213592696+213380661+213306487+213287931+213361178+213420555+213264070
2588+212935581+212636583+212415055+212232426+212088901+212001114+211949135
2575+211880196+211753974+211570349+211395771+211205331+210928392+210630132
2561+210407248+210305110+210208294+209956194+209649986+209478017+209377802
2548+209259253+209276779+209388341+209324106+209158986+209053827+208833570
2534+208464174+208276464+208343016+208400780+208326142+208162636+208010665
2521+207937194+207910844+207857578+207716268+207508490+207316883+207205269
2507+207187348+207219517+207276731+207438504+207649921+207682536+207563232
2494+207434041+207305656+207308351+207534170+207768487+207868513+208013738
2480+208246801+208352955+208317336+208326039+208478422+208692276+208707777
2467+208471573+208346827+208506574+208711073+208771360+208765404+208833879
2453+208862752+208804336+208888656+209093584+209272145+209482995+209657573
2440+209696695+209750905+209877316+210036393+210239399+210347682+210331924
2426+210304389+210332421+210529299+210813997+211012539+211142280+211245568
2413+211312893+211355482+211478460+211719419+211893122+211920262+212001097
2399+212326170+213030921+214530476+217879688+224720350+236579379+254186658
2386+277124040+303622926+331215151+358379014+385242576+413017447+443157590
2372+475464396+507665527+537634491+564144844+585318382+599569961+606737326
2359+604887309+590163253+564539388+535408469+508565404+493037944+497156417
2345+515857189+525445651+517271807+505139752+495749352+491321066+493732893
2332+499002966+499004751+493858720+490857686+491392752+489406574+480510212
2318+465952872+451455613+445725903+449916576+452720337+444296522+425756321
2305+404617492+388612953+378576252+369878433+360062624+348688758+335188640
2291+320882198+307934551+296711369+286786178+278357110+271595189+266175754
2278+261573165+257372346+253423268+249901932+247066997+244750305+242569464
2264+240523995+238798019+237282826+235768233+234321119+233069407+231987827
2251+231049429+230167439+229252867+228450939+227877182+227448357+227091356
2237+226726217+226297204+225889614+225629497+225511566+225388486+225212208
2224+225109074+225180966+225359698+225436019+225340181+225255707+225361999
2210+225676291+226055746+226344033+226533031+226683783+226847272+227040579
2197+227244580+227488389+227753655+227913368+228063124+228374997+228657738
2183+228793007+228935004+229113599+229295903+229480111+229587468+229499011
2170+229318991+229293534+229375021+229365734+229222586+229005110+228760511
2156+228456089+228101302+227861612+227788571+227708886+227502568+227230006
2143+227165667+227498173+228089886+228687178+229063543+229300005+229620941
2129+230003641+230352283+230626012+230889820+231238650+231618466+231952414
2116+232278894+232554409+232726687+232959407+233255453+233434683+233513492
2102+233640933+233898921+234286272+234757463+235264719+235867418+236527606
2089+237150029+237824311+238584525+239409044+240370153+241543553+242825890
2075+244148721+245716906+247598286+249655136+251885123+254366798+256935231
2062+259541703+262556109+266048640+269653711+273127480+276628234+280347614
2048+284149648+287818869+291233518+294441025+297289692+299627122+301762816
2035+303810276+305522656+306662995+307313656+307754514+307962326+307707925
2021+307008753+306232780+305383714+304090426+302498860+300993331+299526700
2008+297873578+296076569+294289723+292593582+291027938+289517602+288062095
1994+286844303+285822941+284712849+283514540+282445749+281530817+280658885
1981+279872338+279322373+278998742+278751088+278457325+278171511+277993001
1967+277863243+277812587+277978668+278316169+278652400+278969594+279379622
1954+279813562+280211625+280732940+281372872+281961409+282609598+283481152
1940+284367983+285132781+285879108+286603686+287287701+288010906+288754984
1927+289401045+290039964+290729283+291111262+291228643+291653159+292258536
1913+292568417+292753295+293070352+293345866+293511931+293814739+294231771
1900+294504676+294645541+294829045+295035312+295094158+295151801+295553795
1886+296159001+296620664+296972876+297420360+297861081+298051933+298039127
1873+297896168+297511477+297189134+297554118+298303243+298767790+298793436
1859+298571480+298302248+297929401+297466193+297232770+297232735+296732449
1846+295506280+294859017+295113830+294941243+294314751+293939433+293593607
1832+292458417+290975513+290556044+290833962+290964046+290966380+290935825
1819+290970294+290749780+290065679+289248370+288622943+288470166+288555069
1805+288613502+288769301+288623081+288162619+288033428+287558426+286476538
1792+286615977+288179545+289400324+290075910+290311943+290187249+290391799
1778+290821774+290463759+289003068+288067519+289831843+292669937+294176393
1765+294277707+294245916+295057903+296115124+296848045+297435295+297729211
1751+297652410+297738927+298691951+300253853+301295694+301377404+301677981
1738+302292662+302196704+303131703+306113373+308477719+309830230+310689836
1724+311474014+311975915+311313237+310282520+311639667+314958615+317600329
1711+319114475+319555677+319513380+320044153+320282486+319753807+320653856
1697+323213517+326936210+330767186+333032655+334406521+334585837+333394035
1684+335102672+340593981+344477486+345773864+346429915+348214598+349959387
1670+351905019+356167206+360373432+362622147+365136112+369260044+372860892
1657+373931640+372855708+375450250+382117638+385533231+388587239+394799830
1643+400712564+404323953+405859626+406008386+408356768+414119437+418470269
1630+420532630+422055291+423845467+425961386+428851767+430936513+431387430
1616+433223748+437350324+440668379+442857494+445311721+448485238+451703834
1603+454844427+458234237+461834708+465622941+469906791+474715373+479598799
1589+484323713+489158593+494495442+500450062+506861710+512420413+516700590
1576+522779080+530195662+535549505+540905477+548597985+556866826+564263907
1562+569032252+571631978+580912687+596393765+609150526+620156558+630452604
1549+640455384+649355283+656914377+663070114+670367048+684863483+699417939
1535+709622798+719981946+731289208+740198650+747666970+755374585+762668635
1522+771061586+781687494+793227939+805484482+816942049+826598626+834555422
1508+841006621+850014459+862450215+873148289+881309911+886643395+891985943
1495+899537278+905668708+909355078+912795631+918787123+927414562+935838824
1481+941187140+943614210+945941786+949208481+951788466+953738595+957348404
1468+960825829+961734667+960798432+959744782+957571906+952684258+951823759
1454+957463554+960466647+958316637+953644457+951313722+952306605+951890020
1441+947270162+940193090+933680093+930627836+928458943+922596058+915818980
1427+913065069+912625275+911891736+911277330+913716554+921443394+930943622
1414+938099727+941619449+943765134+947510211+951255701+951996655+951986768
1400+954327046+958563759+962579717+965843665+969315391+972232379+973654962
1387+974546154+976070222+977710402+979404071+981476903+982243331+981632289
1373+982983324+986648065+989128350+989512594+989754841+990127138+990270783
1360+990156114+989117638+988890223+990328118+989686520+986961860+985686012
1346+984430214+981594524+978233210+975260398+974223844+972832229+967673563
1333+961850504+960393795+964011638+968124687+968744449+967610804+967203077
1319+968269842+971372979+975615940+979059926+980690630+982471365+986553103
1306+991019497+993451717+993849762+993197728+992995100+994078414+995880709
1292+997221788+998635788+1002624211+1009558050+1017115290+1023717069+1028933825
1279+1032473322+1035171203+1038615258+1042809673+1046523028+1048385267
1267+1047935586+1046476199+1045304240+1045627099+1048430105+1052808609
1256+1057172694+1060608851+1062207420+1061412221+1060262304+1061136260
1244+1063625334+1066304951+1067578464+1067713526+1068962458+1069900341
1233+1067879419+1065129902+1063975109+1064167231+1065980376+1067372266
1221+1065773491+1063745634+1062926608+1060977852+1058614502+1058943678
1209+1060706972+1060803034+1060688433+1062661840+1063696470+1061031548
1198+1058480470+1058027562+1056395553+1054082809+1053579776+1053641024
1186+1053542148+1054384450+1056234399+1057326982+1055827289+1053003615
1175+1050443611+1047114432+1043232163+1040855218+1040451336+1041898226
1163+1044764060+1045117337+1040355343+1034711909+1031695632+1029595953
1151+1027468601+1027490849+1029852482+1031542992+1032093198+1032836418
1140+1032113797+1029248375+1026380069+1025288035+1026922653+1029332077
1128+1028923594+1025159427+1020712397+1018211238+1017333642+1017845670
1117+1019923858+1020733271+1018953703+1016531714+1015262939+1014788607
1105+1013124601+1012042592+1014758738+1019505968+1023393112+1023804204
1094+1018750938+1014232565+1016992587+1024194216+1030852780+1034966378
1082+1034417546+1030595496+1029315528+1031958135+1033520999+1032451075
1070+1033034926+1036572020+1039268322+1040475574+1042868381+1044331476
1059+1043245690+1042802875+1043366333+1042988337+1042284187+1043714597
1047+1047966622+1051252062+1051177356+1049794598+1047396436+1044120746
1036+1043351158+1044688323+1043205453+1039051343+1035496191+1032320201
1024+1030857587+1032303310+1033007460+1031918516+1031922567+1033328602
1013+1034230299+1034594768+1034998101+1034519993+1036306290+1041586216
1001+1041704181+1035018700+1031671325+1034773158+1038596238+1040542110
989+1042370635+1044527306+1046910980+1048009125+1046405956+1045424952
978+1047058745+1048565373+1048013383+1046289913+1046721536+1051705863
966+1057431763+1059847435+1061247771+1062922763+1063564292+1063922993
955+1064801413+1065753853+1066380001+1067384351+1069815815+1071332606
943+1068031510+1062909030+1062033357+1064651725+1067833620+1071531663
932+1072398547+1066954994+1061635037+1063267594+1068910891+1072732255
920+1072232723+1069386115+1068147346+1069072664+1071046757+1072441119
908+1070492088+1066561343+1065409640+1068385130+1072636812+1073741823
897+1071705932+1071259341+1072217274+1072254696+1071904509+1068768962
885+1062792233+1060882341+1065061375+1067873308+1063732176+1056087389
874+1050575584+1047121161+1042401602+1038459184+1038773048+1040895249
862+1041967851+1042722058+1045195888+1049306602+1051499390+1050496277
851+1048481672+1046333035+1043804547+1041731441+1040789850+1040244314
839+1039867622+1037161776+1030472038+1026285587+1026544520+1025522798
827+1026255101+1032363597+1034915361+1030775671+1027731379+1026157735
816+1023456901+1021350355+1019638421+1020475094+1025858359+1027638614
804+1021263838+1013674188+1010340821+1011945707+1014519512+1016052988
793+1019791062+1021593288+1016800397+1011250414+1008590092+1006918876
781+1005146587+1003309685+1001193595+997813261+994210524+992456499+991743010
768+990409279+987211935+982000672+976846676+974275342+975782932+979290363
754+980154226+975651577+967883195+962666439+961775317+962163063+963119760
741+965166019+964070964+956516127+947933526+943194260+940958214+939329432
727+936946445+933090543+930223130+931208254+932688583+930171701+926441454
714+924309915+922248412+920390842+921192152+923187050+925213122+929672101
700+934537433+937947499+941950479+945115963+945505906+942869204+937661032
687+935249755+939839126+946580705+950316994+951472542+948433400+942627232
673+943844235+954305280+960765405+950308754+937205995+931212648+930316170
660+931326905+931412942+930632437+929709248+931318734+935844248+939824295
646+941519131+944682143+951762511+953741616+946971198+942228912+945284533
633+952274951+952310382+943154572+941087302+950873448+952259158+934397908
619+916985858+916885471+924018161+922135322+914290654+904412499+898342042
606+907012465+921448750+923580427+919464563
##END=
