##TITLE=Sample description
##JCAMP-DX=4.24
##DATA TYPE=INFRARED SPECTRUM
##DATE=12/9/2023
##SAMPLING PROCEDURE=Instrument type and / or accessory
##ORIGIN=Default
##XUNITS=1/CM
##YUNITS=ABSORBANCE
##RESOLUTION=4
##FIRSTX=4397.6552
##LASTX=599.8556
##DELTAX=-1.9287962
##MAXY=1.7784386
##MINY=0.17981768
##XFACTOR=1
##YFACTOR=1.6563e-009
##NPOINTS=1970
##FIRSTY=0.18885992
##XYDATA=(X++(Y..Y))
4398+114025192+113944303+114149121+114299959+114249641+114714282+114966755
4384+114467540+114048323+113919077+114168491+114677639+114721327+114968258
4371+116456997+118169826+118629429+117944541+117048923+116406589+116139317
4357+116322722+116730865+117023571+116988358+116977328+117420458+117892864
4344+118060624+117906728+117522957+117114653+116533352+116395307+117255667
4330+118254511+118899248+119003141+118199137+117085783+116453390+116555538
4317+117434817+118319584+118130366+117312040+117315971+118316372+118842686
4303+118257696+117893889+118263094+118336417+118145247+118374437+118669779
4290+118833518+119185827+119359418+119207320+119051129+118588422+117872405
4276+117339686+117073079+117621183+118807653+119338060+119342738+119713571
4263+120181505+120245381+119977479+119595175+119128932+118514614+117943416
4249+118209393+119370753+119796556+119097273+118585750+118518617+118813501
4236+119678619+120424478+120073464+119012444+118889657+120262484+121689938
4222+121679826+120854176+120958816+121811078+121978560+121575195+121627376
4209+121745655+121154035+120578528+120445953+120448427+120825009+121397268
4195+121748561+122315737+123158229+123022550+121689615+120792333+120920418
4182+121240384+121288948+121329631+121769973+122314486+122274694+121707788
4168+121435531+121610705+121291459+120445755+120170700+120609197+121247204
4155+121830781+122016688+122085962+122569029+123063602+123158175+122957693
4141+122633715+122406009+122403364+122553734+122627975+122459332+122005118
4128+121320401+120827222+120884630+121387138+122187687+122841043+122774278
4114+122382699+122313937+122328422+122119754+122010390+122253597+122494986
4101+122399649+122289772+122595218+123103538+123441965+123647431+123645721
4087+123384935+123317892+123606604+123906768+124212250+124713607+125144330
4074+124979827+124193123+123764585+124231854+124245106+123184274+122644268
4060+123395767+124314020+124494871+124286652+124297322+124376952+124058434
4047+123590005+123613765+124040981+124438318+124713858+124810671+124690998
4033+124517407+124469518+124446208+124211575+124047980+124573025+125328366
4020+125291651+124853639+124897678+125257023+125429614+125506365+125864351
4006+126079254+125359000+124356205+124519189+125523791+126063276+126136266
3993+126151380+126075439+126093837+126256866+126259520+126175554+126061863
3979+125460230+124728649+124698168+125152310+125650932+126012625+126125695
3966+126125083+126104202+126186179+126210200+126088350+126163921+126103041
3952+125412143+124717484+124924353+125052034+124418921+124984685+126486982
3939+126553144+125251454+123521802+122634785+123845231+125315870+124888367
3925+124135958+124319247+123463413+122013476+122980671+126000524+127829625
3912+127532025+125825152+121926209+116694347+114503356+116393652+120140255
3898+124316332+125389984+122036076+119760111+122173419+122929318+121093163
3885+121053038+120367142+120409561+123631750+123609465+120178266+117154985
3871+115389292+117382843+119468691+119100206+121301184+124968572+124726355
3858+118905105+109413021+108565887+120878863+128492436+128472508+124797842
3844+120495758+116658747+113904043+115459340+120140723+122402716+123265568
3831+124859982+125499195+124828350+121853956+116117949+115359252+119432192
3817+121725367+126214986+130686756+129841718+125218769+122266381+121986702
3804+119479019+119506684+124550353+126866668+128401444+131272870+132539897
3790+132369104+131534376+130438485+130316013+129792282+128881199+130864125
3777+133770063+133598047+130383182+127565304+128299224+130736364+133148142
3763+133340563+130087732+128476638+129977352+128418816+122116992+118759934
3750+124023068+126855737+125728798+131107935+137603844+136383655+130501596
3736+127207983+131685457+140617778+146557550+147232012+146553016+148421990
3723+152610383+158135428+163564748+166324688+164874499+162430089+167183779
3709+178694856+189077825+195568858+201354589+211143635+222365992+230915712
3696+236270935+237396309+235148117+236296522+244966455+252896324+255210875
3682+253996974+250968952+245939066+243603102+249188946+253643424+256514221
3669+264660729+272499209+276508173+279260502+281282734+281582665+282592162
3655+285679724+284910384+280000549+282145982+294771205+306023305+311676083
3642+314895843+318409217+321815063+324157540+324849491+322963972+321977326
3628+329597998+339026134+342214836+340919714+340194943+344478071+349528434
3615+351666219+353988436+357234214+360856483+366011387+370713112+372939964
3601+374462090+376914507+378761556+380004858+382468178+384157858+383197915
3588+383856146+388868507+393419664+395594839+397301649+398821652+399536310
3574+400290590+400921183+399232619+396272611+397681020+402617269+405984753
3561+407794233+409241975+409639735+409153807+409464336+410399916+410006834
3547+408775876+408721032+409842879+410794689+410896460+410902289+411413767
3534+411816170+411855251+411534215+411210335+411244414+410969836+410123935
3520+409163524+409122715+410231031+410553723+409566934+408991184+409014935
3507+408075648+406026174+404734938+405091169+405819251+405883271+405700927
3493+405613047+405006853+404073468+403426932+402602730+401973324+402204682
3480+402064406+401134188+400325785+399362711+397925621+396693511+395906519
3466+395143099+394387956+393905771+393392638+392256000+390502012+388779081
3453+387400361+386100344+385098045+384830700+384706114+384502754+384848118
3439+385017327+384100100+382954609+382323620+381541199+380245321+379190589
3426+378513644+377851166+377832885+378556108+378831478+378490433+378329537
3412+378339793+378421518+379009324+379833382+380323627+380592124+380619545
3399+380463975+380684825+381070170+380882716+380454511+380799838+381908874
3385+382480702+381741141+380706849+380598385+380987077+380557936+379350045
3372+378764975+378798154+378596629+378914247+379913056+380407296+380207930
3358+379532677+378607425+378191672+378366279+378424037+377905146+376865349
3345+376180667+376561262+377589328+378673641+378977476+377709019+375279562
3331+372895592+371777128+371932158+372159990+371782274+370924353+369679756
3318+367823098+365585270+364052419+363870327+364456765+364974469+365119639
3304+364621548+363561562+363371732+365031004+367165334+367825869+366808923
3291+365671350+365432039+365781109+366701143+367698836+367462404+366343436
3277+365839479+365910409+365839947+365842538+365603479+364675132+363947302
3264+363566708+362672944+361842013+361992797+362189572+361257014+359782678
3250+358286535+356276430+354521002+354142099+354268880+353940178+353505891
3237+353041844+352161755+351267847+351031775+351060600+350540738+349555100
3223+348682244+348149318+348037652+347988638+347369776+346462373+345841244
3210+345486056+345018302+344290761+343624360+343291304+343578513+344202593
3196+344287846+343923193+343604244+343189066+342537816+341581040+340051177
3183+338467585+337694089+337129351+336159727+335510024+335234403+334733001
3169+334341575+334112520+333307823+332251688+331782278+331731069+331718222
3156+331598314+331094538+330222150+329117684+327861175+327022975+326813353
3142+326635111+326185818+325269599+323681077+322143801+321250289+320328203
3129+319229964+318610742+318339331+318063205+317514337+316426066+315275106
3115+314368998+313247799+311953468+310936414+309813416+308151194+306549033
3102+305484765+304718142+303974010+302897650+301385816+299892911+298790713
3088+298142342+297552629+296651362+295580814+294431131+293660838+293657221
3075+293733549+293354555+292774973+292395458+292046478+291065932+289606351
3061+288549945+288378577+288704328+288696105+288215917+287740444+287465704
3047+287331402+287288236+287061808+286342580+285505765+285091235+284820292
3034+284210192+283488283+283074131+282813282+282450033+282003690+281591770
3020+281585832+281948991+282044175+281926985+281977636+281803767+281101326
3007+280616946+281144582+282055835+282550327+283417083+285419109+288132878
2993+291290795+294744089+297968706+300838838+303309373+305062210+306334985
2980+307438371+307733785+306537877+304193457+301450358+298804460+296476755
2966+294377565+292526647+291255762+290571566+290104927+289736640+289656570
2953+289795676+289743838+289584039+289759078+290194660+290559852+290613796
2939+290233076+289436314+288280927+286897206+285355323+283961615+283017452
2926+282117534+280867179+279180504+277128295+275146799+273553887+272383170
2912+271518538+270802530+270045047+268964783+267769955+266859278+266094940
2899+265344655+264773907+264487075+264367294+264103548+263685545+263459927
2885+263298923+262894649+262411439+261855715+261130477+260307211+259285605
2872+258187509+257191327+256145340+255150004+254396534+253605620+252513300
2858+251280974+250066066+248873991+247634197+246112467+244346765+242934632
2845+242154856+241499612+240695958+239921652+239230025+238712933+238434631
2831+238280500+238056861+237728178+237386736+236752598+235789200+235132246
2818+235057808+235102324+234808457+234229882+233666529+233343153+233226917
2804+233140423+233096627+233027659+232690608+232215369+231935896+231748946
2791+231469060+231119882+230612542+229971495+229298779+228634232+228223408
2777+228125381+227901904+227302259+226642804+226189480+225789561+225185885
2764+224444939+223881514+223535179+223299647+223171876+223058518+222940860
2750+222898324+222765317+222399801+221977570+221625927+221355541+221137210
2737+220892231+220710787+220657796+220597591+220402166+220042335+219691574
2723+219583848+219627931+219584369+219413901+219206384+219146628+219221246
2710+219139611+218972795+218973155+218960128+218738054+218468820+218232244
2696+217994444+217819118+217619878+217299975+216957814+216716649+216557912
2683+216289812+215832728+215255287+214694435+214353138+214120826+213678605
2669+213080993+212580707+212151296+211664541+211201753+210865080+210567237
2656+210294153+210138007+210018657+209841045+209554466+209162337+208854724
2642+208648556+208331388+207924146+207632132+207481582+207388862+207309404
2629+207198943+207081663+206981008+206854821+206765592+206821281+206859625
2615+206666053+206481982+206582582+206785241+206832473+206711504+206588898
2602+206646674+206856872+206969133+206896619+206779897+206658514+206556564
2588+206486048+206302084+206023242+205809032+205562145+205160553+204723585
2575+204413578+204267131+204163759+204006102+203753080+203307907+202704430
2561+202171864+201834687+201579686+201358908+201235096+201133865+200910083
2548+200558745+200271788+200160409+200134769+200122084+200092682+199990696
2534+199779563+199591227+199624964+199781308+199731161+199486830+199402549
2521+199549104+199794875+200047015+200140509+200055490+199980314+200105530
2507+200392523+200607129+200712462+200792244+200829671+200921670+201149196
2494+201320816+201346510+201343344+201315472+201246216+201241627+201370783
2480+201489809+201463503+201400832+201392411+201379024+201282130+201127622
2467+201019626+200947113+200902651+200952655+200981264+200837444+200661109
2453+200627246+200633957+200601101+200643242+200788538+201023602+201328859
2440+201520794+201520038+201414705+201287816+201266980+201343254+201351962
2426+201309516+201377657+201569124+201797837+202014782+202164720+202223504
2413+202173195+202100052+202271619+202689459+202976992+202958351+202889977
2399+203007419+203252812+203478754+203589917+203579408+203518663+203392152
2386+202863778+201343470+198518682+194610642+189993828+184995538+179925419
2372+174913813+170092721+165565262+161209711+157412654+154949406+154214163
2359+155332682+158449627+163684277+170841099+177909934+181111808+178774584
2345+173477245+169798998+168796861+169227855+170584137+172087946+172888666
2332+173333353+174513498+176509604+178479818+180159691+182223524+185107204
2318+188196584+190612078+192270396+193833943+195659652+197521276+199276002
2305+200902220+202229712+203147317+203854958+204602868+205361862+206022504
2291+206624561+207244178+207837400+208287880+208540506+208615485+208546030
2278+208403973+208388769+208596016+208832196+208940534+208989619+209123652
2264+209367911+209598243+209725294+209756674+209818230+210048130+210314179
2251+210435598+210491359+210595864+210757966+210877442+210899933+210992383
2237+211163643+211257928+211361588+211563005+211731530+211772573+211734427
2224+211702075+211793391+212041591+212275864+212409662+212498387+212531297
2210+212535903+212600985+212727064+212850426+212949588+213068937+213274385
2197+213567424+213848443+214038003+214146323+214233770+214373164+214556894
2183+214736971+214886550+214965342+215036884+215180830+215323175+215454347
2170+215660802+215889407+216017483+216097805+216239647+216371106+216447487
2156+216553504+216722875+216959595+217219994+217387764+217463588+217555048
2143+217655486+217725804+217823076+218002164+218277839+218549466+218668978
2129+218683300+218724019+218814292+218931446+219035825+219087250+219142364
2116+219270584+219480548+219784545+220102343+220264625+220228710+220160803
2102+220251849+220474697+220689465+220848742+220960876+221083392+221277234
2089+221484193+221622850+221690757+221769297+221972064+222253048+222476974
2075+222637996+222795744+222993274+223171786+223173369+223116511+223310443
2062+223640998+223864151+224061519+224249298+224348189+224453720+224653301
2048+224877480+225007374+225002030+224997405+225157960+225419079+225683329
2035+225942468+226143148+226309586+226526945+226738528+226833479+226894242
2021+226986674+226991478+227060914+227443758+227905916+228205073+228490861
2008+228838474+229068932+229084046+229086817+229305454+229616936+229670125
1994+229325697+229123596+229638870+230530079+231274444+231713445+231976633
1981+232289303+232613507+232883118+233129411+233359311+233378762+233024204
1967+232889740+233557130+234467178+234985313+235209132+235296669+235339889
1954+235490079+235696391+235794922+235703228+235253755+234522651+234607094
1940+235929098+237089487+237415454+237474688+237706891+238090833+238452372
1927+238465705+237880941+237397946+237392440+237402984+238088602+239563585
1913+240433778+240412348+240453894+241113223+242022785+242730228+243264180
1900+243687634+243783143+243775964+244032512+243890167+243565208+244531377
1886+246146241+247090961+247671372+248247482+248762918+249236394+249557880
1873+248932541+246808089+245315687+247097349+250293879+252286602+253096553
1859+253645277+254338434+255043825+255626449+255946910+255669417+254398603
1846+252592075+253088042+256547562+259277994+260296073+261023975+261441311
1832+260352950+258976210+259754402+261515192+263435564+266084234+268242837
1819+269377963+270252582+270817770+270529859+270332347+271550836+273367171
1805+274228528+273665302+272835720+273570747+275226456+275267966+273595920
1792+274172173+278387593+281851467+282992117+283290626+283514769+284323514
1778+285717510+285484821+282632161+280500655+282947422+287680347+291523268
1765+292851265+292349971+293125896+294967044+296438303+297694830+297043400
1751+294510842+294005392+296757433+299804294+301312817+301663399+302682270
1738+303741932+302063156+300960346+305377057+311038868+315631517+318560720
1724+319760011+319753461+317077028+312571503+313071897+319981868+326753939
1711+330641682+331317439+330184328+330017566+329634884+327562307+328200385
1697+332814087+340487442+348865488+353190361+354497035+353706121+350409099
1684+351916434+361611123+369835578+373513087+375185421+378267604+380979412
1670+383255890+390045702+397784553+401601043+405265813+412086357+418004358
1657+418615087+414392164+417243097+429765614+436384022+441989766+454519661
1643+467094179+474930914+478374222+479173701+485586806+500394438+512505736
1630+519984476+526730457+533718555+540986018+550623812+559626621+565610225
1616+573833097+585253452+594220815+600504079+606585783+613191919+619141228
1603+624081328+628438228+632181557+635018167+637375075+639842174+641923208
1589+643300416+644506328+645827109+647226845+648440458+647819041+644590321
1576+643791346+647408145+648619743+647851716+651109657+657441288+662736000
1562+663262916+657357583+658136838+673436551+687815870+698962727+708962258
1549+719406584+728139242+732701842+734305190+739040022+757575293+778409893
1535+790781014+801632349+814645472+824161487+830086900+835395575+839137464
1522+843127589+850384292+857758311+865304058+873930268+879580888+878987684
1508+874324466+878542962+894701531+906473764+911266246+912212479+914784659
1495+921654937+926811604+927781300+929824117+937163804+946303831+952590406
1481+955376491+957014242+957280183+954292070+951379816+956033247+965868535
1468+972033548+972775016+972208658+970621504+963528901+953699730+954889736
1454+963267134+966427767+964945838+961530563+959471049+958945932+956928450
1441+953039160+946237760+935271484+926880555+923609802+919703310+915088962
1427+912879455+913173106+915707140+918293930+919149404+922541575+929821669
1414+936740890+942053883+946287709+948308718+948701764+951676562+957496751
1400+962440017+966317720+969023122+970557592+974231323+977851793+977396994
1387+976170210+978297451+981315793+983414605+985845862+987734440+987636052
1373+987648432+989010957+990016279+990008722+988768695+987147786+987889470
1360+989983244+990607180+990715931+992019439+992773071+990099049+986025939
1346+984059198+983316578+981151406+976757368+972366712+970233065+968797198
1333+966033210+962571369+960085413+959915556+961850556+964029978+965955623
1319+968220405+970408679+971677424+972282359+974110408+977742250+981911444
1306+986190254+989992384+992351595+993788325+995498626+997283778+998224325
1292+999647308+1002697678+1005266835+1007397747+1012927811+1022138444
1281+1029654322+1032449475+1034071032+1037248579+1040975282+1044369613
1269+1046675851+1047364059+1047404221+1047385004+1047486990+1048850163
1258+1051378943+1054250172+1056927289+1058049352+1058221872+1059466217
1246+1061755902+1063352413+1062909489+1062407044+1064010536+1066014775
1234+1066271000+1064782953+1062538035+1060954552+1060616997+1059967151
1223+1058602394+1058106786+1058795211+1059767353+1059413533+1057234543
1211+1054168338+1051711532+1051545273+1051616743+1049019372+1046070700
1200+1046133965+1047537515+1045966699+1041567838+1038418361+1037614635
1188+1036472636+1035323295+1037481053+1041543079+1042676298+1040406478
1177+1038892664+1039511922+1038881868+1036032879+1033970846+1033349573
1165+1033123649+1033997404+1035299472+1035435645+1035247147+1037003295
1153+1041226325+1043822328+1041830900+1038524377+1036704606+1036075128
1142+1036026546+1035188561+1033538790+1034122853+1037434990+1040861636
1130+1042736827+1041333133+1037142851+1034600396+1036189061+1039595339
1119+1040230287+1036533237+1034124221+1037407928+1042431733+1044812104
1107+1043362203+1038328826+1033538574+1033102345+1035741028+1036690499
1096+1036317030+1037653789+1038176027+1037114205+1039246917+1043455696
1084+1043205949+1038859269+1035831714+1036209142+1039159829+1043846295
1072+1048246164+1051061685+1052664889+1051649059+1049998280+1051368003
1061+1054203029+1055765425+1054558002+1050599689+1044804547+1040023580
1049+1040986438+1046690966+1050146401+1050800782+1055347620+1059896041
1038+1054552747+1046192767+1045049184+1046897817+1045853989+1042303836
1026+1036093121+1030569822+1031723337+1037368847+1040436275+1039352501
1015+1037283414+1035926143+1034840211+1034109754+1034874326+1036636663
1003+1037101034+1036126948+1035197486+1035177477+1036169484+1037514880
991+1038726118+1039727482+1040401583+1040651187+1041899203+1045903722
980+1050664177+1052319706+1051821291+1053911898+1058464853+1060648018
968+1060116639+1060520913+1060883586+1059130390+1057907565+1057831345
957+1058188764+1060420798+1064056671+1067163828+1067358947+1064981023
945+1063422443+1063685073+1065664337+1068407526+1069060035+1067435455
934+1065891125+1064135050+1062825712+1065523702+1070335473+1073092264
922+1073741823+1071486397+1066889754+1064322108+1064893288+1065598410
910+1064838516+1063319737+1062589496+1063159380+1063201485+1062094032
899+1061893227+1064403510+1069048735+1072831145+1073471491+1070256303
887+1062783320+1055129109+1051803657+1049214564+1045794323+1046066454
876+1047406380+1044153333+1039116501+1037303135+1037537192+1037558280
864+1038018693+1037956436+1036467526+1035031587+1034410098+1033650637
853+1031748528+1029370316+1026645840+1022535736+1018806514+1019116359
841+1022687312+1024764028+1023591872+1020894170+1019289239+1021158816
829+1025254813+1027041909+1025069770+1023355223+1024609285+1024771585
818+1020329684+1016438378+1016852728+1017619100+1017631551+1020536247
806+1025330745+1025204432+1018166600+1011834538+1010826480+1011127329
795+1009559247+1005886309+999681855+994625374+995170716+998961475+1000702507
781+999063101+995062036+989800432+986471741+985981963+984222433+980765126
768+978678694+976896780+973418385+969143462+965970809+964391572+961984643
754+958139760+955058009+952360308+950087177+950139357+950093511+944915683
741+936583700+931783876+931026430+929692981+925258566+919684669+915745358
727+913953224+913899316+913131073+909181469+902407275+896407801+895317407
714+895888154+895285306+897440905+900861434+903176957+908009457+913276099
700+912255519+906090794+901373955+901664008+905772744+909736095+910314976
687+908000676+905507307+904381501+905006733+905689399+905077987+905595834
673+906515364+901854521+891269415+890122306+901442978+907492329+905872787
660+901269450+896906360+896992224+900058428+901319760+903105128+907376020
646+910443520+911134176+910520891+908508951+906448573+904260227+903708480
633+909817497+916339209+913197073+907012124+905524797+904079934+899110037
619+898078804+902406052+897067004+885360124+883675446+884397050+883085121
606+891983606+901497677+895358215+888485058
##END=
