##TITLE=Sample description
##JCAMP-DX=4.24
##DATA TYPE=INFRARED SPECTRUM
##DATE=12/9/2023
##SAMPLING PROCEDURE=Instrument type and / or accessory
##ORIGIN=Default
##XUNITS=1/CM
##YUNITS=ABSORBANCE
##RESOLUTION=4
##FIRSTX=4397.6552
##LASTX=599.8556
##DELTAX=-1.9287962
##MAXY=1.9534166
##MINY=0.32615438
##XFACTOR=1
##YFACTOR=1.819261e-009
##NPOINTS=1970
##FIRSTY=0.33728722
##XYDATA=(X++(Y..Y))
4398+185397930+185559452+185990484+186505585+186201593+186224887+187657602
4384+188132224+186185424+184228631+184703942+186585462+187358606+187214956
4371+187351005+187056284+186372927+186587772+187363962+187477847+186969920
4357+186048835+184818662+184702943+185918061+187017148+187813816+187804167
4344+186755175+186657131+187600578+187672476+187390550+187946441+188354178
4330+187673901+186938091+187166368+187562048+187187680+186471954+186723558
4317+188293796+189499413+189121343+187747209+186694055+186726196+186799487
4303+186297245+186224773+186334808+185824719+185850618+186929425+187216152
4290+186204984+185645554+186355366+187740394+189166081+189948595+189850862
4276+189713044+189839821+189500772+188604161+188035622+188097938+187942657
4263+187139420+186546048+187238447+188587058+189185608+189239306+189228036
4249+189185952+189185526+188872441+188611139+189094985+189681199+189681068
4236+189370064+188986310+188997384+189630367+189909033+189791217+190169926
4222+190459339+190207145+190317851+190755304+190793211+190667204+190585952
4209+190269591+189726871+189149322+188411694+187663335+187876263+189146226
4195+190055239+190132445+190580218+191302678+190641453+189191800+189070609
4182+190139243+191080659+191501320+191109261+189935572+188800887+188233282
4168+188583667+189638017+190245379+190213091+190212420+190163062+190019674
4155+190199347+190356397+189975428+189401598+189021251+188945995+189353420
4141+190071407+190473525+190466186+190474476+190655443+190785774+190274031
4128+189396324+189067529+189143802+189352405+189801669+190281337+190412602
4114+190001835+189456051+189371505+189797491+190276898+190285629+189838707
4101+189434017+189297821+189304800+189320788+189404498+189843245+190476196
4087+190650725+190342571+190566999+191682369+192377914+192024007+191481548
4074+191234285+191193691+191366124+191426195+190538937+188939589+188046483
4060+188457480+189486275+190251293+190512677+190540952+190521261+190358527
4047+190535759+191544076+192432628+192554114+192282639+191868366+191435565
4033+190973884+190692448+190581332+190449019+190676575+191129820+191250060
4020+191273666+191399132+191177293+190612212+190289757+190735729+191842696
4006+192409874+191901456+191305446+191045733+190600646+190021624+190056877
3993+191009284+192072447+192240227+191495423+190540346+190284728+190901362
3979+191526450+191934662+191969194+191096270+190251867+190243086+190448298
3966+190555417+190735172+191115830+191653390+192093219+192140496+191866613
3952+191743686+191776039+191857406+191606769+190733337+190587852+191344434
3939+191403506+190537086+189334991+188931300+190065838+190901444+190022459
3925+189094854+189588004+189877384+189092200+189259423+191205273+192834402
3912+192926254+191604524+188513866+184615514+183322567+185172979+187497882
3898+189538532+190003375+187993374+186908113+188898423+189347949+187736381
3885+187550417+187219428+187289508+189556846+189627828+187258744+185325884
3871+184030873+185002463+186425414+186048917+187166188+189821638+189933884
3858+185938505+179593995+179278502+187234253+191692460+191378983+188901142
3844+186015662+183611358+182015008+183063526+186165422+187859029+188993714
3831+190761366+191024044+189333926+186294722+182266596+182034224+184882386
3817+186052275+188674716+191749714+191580837+189038305+187617401+187609358
3804+185284717+184408583+187840813+189691126+190508090+192184448+192985571
3790+192798953+192090090+191170413+191001486+190501571+189323819+190353236
3777+192862726+193263845+190941170+188806997+189433772+190796013+191554593
3763+191002011+188335634+186882033+187943820+186988497+182457982+179552959
3750+182177955+183102006+181598310+184850016+188927696+187805511+183532808
3736+180747092+182953507+188167134+191328675+190824467+189412754+189655807
3723+191229403+193634789+196101179+197284255+195898621+192902910+193968579
3709+199949091+205070899+206973928+208217583+213051632+219581238+223440388
3696+224192465+222406974+218759637+216569784+218860646+221599609+221221441
3682+218304001+214033149+208340674+204219091+206013281+207457085+207045302
3669+210033576+213630622+214731249+214602883+213933910+212257438+210980561
3655+211164739+209176608+204385298+203775806+210082623+215847406+218066403
3642+218445521+218685593+218718356+218269108+217321550+214993551+212757501
3628+215890277+220661814+221424392+219105501+216642305+216943611+218526020
3615+218870606+219247676+220070751+220416222+221360750+222494255+222191098
3601+221557639+221993176+222572755+223286352+224594632+224337131+221787686
3588+221062048+223934685+226544217+227552535+227839409+227863195+227761842
3574+227707291+227419713+225925879+224056433+224968377+227826991+229682137
3561+230669191+231258108+230923891+229919342+229496730+229871245+229711935
3547+229394067+230647469+232590878+233189477+232476568+231657064+231323061
3534+231410784+231617208+231643451+231447708+230933278+230550949+231207915
3520+232325006+232587782+232123693+231560413+230866572+230499380+230725560
3507+230565578+230166441+230774803+231866027+232281234+232299238+232433484
3493+232344369+231490644+230352912+230134776+230737043+231108905+231377333
3480+232060509+232458925+231951572+231305467+231255323+231430786+231494494
3466+231546374+231463205+231276930+231461485+232012904+232397560+232476666
3453+232424835+232076350+231485713+231401086+231819602+232079839+232414023
3439+233079475+233667114+233940850+234131203+234427349+234661015+234713354
3426+234545722+234294707+234373241+234643962+234748313+234967662+235446069
3412+235910502+236305936+236653782+236936528+237338908+238028244+238684702
3399+238884377+238828532+238750130+238615736+238550619+238638784+238981110
3385+239623119+240485068+241392442+241984471+242336724+242710469+243003486
3372+243150543+243105477+243111457+243628704+244422259+244954496+245279686
3358+245864377+246852185+247874164+248463704+248243748+247498502+247215953
3345+247674440+248277773+248703579+249037893+249457048+249947872+250266936
3331+250599400+251224651+251927600+252590152+252984259+252832812+252467470
3318+252126848+251856651+251787046+251632912+251211578+250942462+251014230
3304+251102035+250996587+250913450+251293109+252095789+252912131+253824125
3291+255135976+256836971+258430765+259466686+260356712+261509793+262549334
3277+263154780+263663247+264485650+265479928+266230679+266535638+266749810
3264+267214670+267339563+266798578+266441362+266661923+266989489+267336466
3250+267532341+267238406+267149176+267709180+268113018+267874650+267195110
3237+266722322+266848001+266875309+266511000+266072629+265578087+265484368
3223+266188431+267121196+267392409+266869084+266292290+266000469+265594878
3210+265138848+265322469+265980696+266018964+265218659+264325832+263798886
3196+263510620+263249269+263112024+263080965+263034031+262936954+262363698
3183+261231471+260319559+260172698+260551489+260721840+260407610+259927712
3169+259156419+257899118+256823686+256924023+257918334+258550580+258612191
3156+258518521+258428488+258326284+258094288+257953227+257751177+257282058
3142+257067558+257098814+256961799+256635953+256097917+255517322+255101395
3129+254531349+253811413+253465467+253387950+253146223+252591216+251649375
3115+250494083+249498608+249020988+248910052+248418687+247428553+246464089
3102+245490845+244091581+242516593+241503050+240982444+240438347+239973373
3088+239613339+239164125+238691877+238185638+237647356+237240193+237062764
3075+237139217+237299510+237142870+236663038+236322056+236187023+236094418
3061+236084818+236158339+236315929+236416643+236347071+236223635+236096842
3047+236199981+236557049+236616498+236201553+235624021+235173103+234914454
3034+234575635+234146602+233940637+233939424+233977069+233912722+233626242
3020+233308046+233265569+233434545+233347575+232939937+232685384+232512607
3007+232144481+231779009+231471936+231200625+231043067+230968482+231061906
2993+231477785+232142450+232847479+233553082+234112659+234346555+234584268
2980+234917239+234981275+234862689+234802323+234607661+234099570+233578522
2966+233360320+233321381+233314484+233325804+233195440+232845808+232518521
2953+232417824+232524762+232719310+232804658+232739246+232705615+232831769
2939+233115891+233311536+233096217+232601035+232119384+231734909+231495411
2926+231315968+231058826+230669945+230147111+229714081+229570562+229545629
2912+229432220+229383517+229569317+229746009+229768730+229877782+230002150
2899+229912445+229816466+229776151+229728431+229967929+230456673+230776392
2885+230796066+230716829+230760944+230811154+230708769+230679659+231019936
2872+231609230+231981239+231986104+231829611+231622237+231495313+231641649
2858+231929129+231909815+231478751+230929478+230381744+229990110+229996204
2845+230167768+230230133+230387363+230739091+231002982+231038284+231059219
2831+231217547+231410391+231486860+231385704+231266806+231273556+231302174
2818+231339229+231450689+231558415+231614783+231725998+231923281+232097384
2804+232286181+232552414+232849527+233172555+233445963+233553115+233551132
2791+233635858+233815432+233882597+233870982+233948876+233978969+233847540
2777+233768941+233747711+233590776+233485967+233550395+233501529+233342972
2764+233478824+233994188+234441716+234500837+234384511+234390834+234462471
2750+234499477+234674661+234980947+235131232+235119568+235115554+235051863
2737+234936946+234992594+235216448+235463777+235649102+235666417+235629100
2723+235738627+235905899+236060049+236294895+236447424+236365729+236401064
2710+236697341+236907762+236984149+237047382+237103898+237327736+237656432
2696+237737209+237671323+237773675+237991942+238262189+238621240+238877234
2683+238909784+238935225+239055908+239163600+239245033+239215923+239037364
2669+239015626+239251225+239359180+239118895+238766724+238576911+238540036
2656+238474740+238322981+238242433+238372928+238623844+238742938+238615703
2642+238362051+238135347+238124748+238348864+238439519+238237354+237975954
2629+237771512+237632531+237555931+237430334+237216964+237065565+237054295
2615+237094839+237175207+237227333+237044171+236691149+236420378+236297664
2602+236221637+236095679+235996685+235980304+235936926+235940415+236113830
2588+236209269+235978191+235593994+235343864+235290903+235300469+235247344
2575+235190942+235184930+235111934+234930164+234810579+234863704+234863311
2561+234548343+234039532+233625685+233463982+233529443+233571396+233337369
2548+232977516+232847446+232868775+232709907+232488281+232440971+232392301
2534+232277368+232250371+232224210+232086916+231834526+231509942+231274375
2521+231208226+231263727+231360919+231381297+231218399+230937144+230813119
2507+230883249+230862723+230714601+230640736+230675383+230756914+230877368
2494+231002064+231121125+231250769+231318458+231326550+231431048+231688926
2480+231909979+231922658+231852103+231802287+231732354+231738251+231795423
2467+231748572+231721067+231852201+232032874+232120187+232021423+231750210
2453+231534153+231640503+232014952+232337423+232490115+232642824+232957252
2440+233373687+233666966+233791745+233912673+234017892+233956543+233837400
2426+233883956+234056241+234262944+234547753+234844210+235005896+235079417
2413+235187944+235301714+235379003+235458813+235596173+235810558+236026451
2399+236223079+236446179+236613336+236647148+236686840+236846593+236871559
2386+236345203+234930689+232338963+228608080+224152216+219291350+214167396
2372+208993266+204010570+199258019+194738496+191057577+188928188+188408647
2359+189701741+193136216+198423461+205398088+212540855+216043494+213941085
2345+208667404+204890620+203952006+204650073+206223063+207921011+208888080
2332+209288543+210563520+212953081+215177483+216921135+219060239+221985788
2318+225129523+227812297+229831143+231554647+233420637+235392861+237283113
2305+239017051+240467736+241610644+242618290+243597563+244515962+245283094
2291+245881954+246491135+247207959+247851836+248225417+248301968+248265454
2278+248369313+248618214+248863053+249048623+249137755+249132825+249164015
2264+249354025+249665372+249974050+250239595+250484647+250724800+250918529
2251+251015032+251123675+251349036+251621166+251852834+252006952+252084813
2237+252141133+252277198+252503378+252704741+252875125+253057763+253213863
2224+253320949+253374206+253420336+253502064+253609133+253742119+253823633
2210+253793737+253757763+253883655+254189892+254458714+254556479+254571697
2197+254600398+254703978+254893464+255105588+255271534+255373312+255423816
2183+255476352+255617528+255790436+255896736+256013421+256172896+256284077
2170+256361857+256484457+256626059+256713307+256772625+256917650+257142995
2156+257326501+257473591+257624187+257728832+257845567+258012413+258107983
2143+258176245+258313785+258398494+258452995+258616024+258774696+258861993
2129+258973126+259100132+259231299+259356061+259417017+259463786+259530426
2116+259594462+259698878+259846820+259999201+260096196+260078488+260071902
2102+260208688+260374355+260488633+260576962+260559958+260489943+260569983
2089+260790266+261019559+261209618+261336198+261364014+261274636+261139390
2075+261161390+261477178+261832936+261855542+261678916+261673019+261818651
2062+261906882+261925229+261974489+262143596+262429486+262657256+262685039
2048+262615630+262605490+262612223+262538604+262465116+262528087+262750155
2035+263019353+263187199+263272842+263357403+263389495+263357436+263349851
2021+263366217+263349344+263415656+263761716+264231769+264507519+264650236
2008+264880871+265182030+265415844+265536035+265588882+265646021+265664237
1994+265512429+265459796+265861438+266469161+266953204+267243960+267409332
1981+267536780+267672714+267939537+268278848+268491907+268496706+268316886
1967+268284729+268661472+269128789+269455076+269754204+270007282+270195687
1954+270381175+270533884+270665460+270791926+270694046+270306655+270355095
1940+271173436+272001671+272504585+272836164+273082133+273403293+273834734
1927+273981120+273608161+273317012+273315865+273312376+273938921+275221777
1913+276009500+276051273+276126792+276697198+277407993+277940099+278393573
1900+278805799+279016564+279158363+279431279+279399237+279287941+280102202
1886+281330983+282100719+282606418+283058614+283530141+284034070+284365141
1873+283980863+282593280+281714737+283123518+285472207+286957227+287611965
1859+288101774+288755693+289505706+290256931+290825273+290850402+290114150
1846+288982381+289317220+291668464+293641524+294532124+295278172+295800253
1832+295110524+294079894+294735353+296282788+297861085+299806034+301419290
1819+302398612+303190561+303727025+303687381+303671262+304605371+306065786
1805+306966674+306907864+306653524+307421131+308792168+309084972+308255017
1792+308962766+312067267+314642841+315722483+316227789+316565576+317261432
1778+318455811+318604097+316898777+315722876+317889697+321568372+324331023
1765+325228044+324985990+325752057+327336350+328704374+329802069+329440200
1751+327714174+327487879+329778348+332394581+333858142+334350833+335167388
1738+335956783+334987781+334700678+338130975+342084893+345256951+347385931
1724+348359978+348376032+346391341+343105824+343367831+348213855+353008572
1711+355698685+356015996+355006761+354744853+354335445+352487049+352449076
1697+355477174+360755245+366469983+369348091+369993393+368849076+365663028
1684+365837917+372013042+377160946+379035848+379424385+380640748+381550646
1670+382321955+386475825+391268904+393050660+394418422+397905269+400717130
1657+399648626+394843818+394462030+401158121+403987248+405777130+412442850
1643+419287948+422449555+422219427+419867789+420953428+428375025+434672193
1630+437635387+439661195+441779232+444389174+448906355+453020517+454989940
1616+458963417+466194497+472326375+476863116+481347828+486333358+491364821
1603+496581789+502549393+508799316+514374909+519617662+525387376+531429025
1589+537405835+543515565+549939395+556835505+563845762+569121081+572561732
1576+579111405+588589903+594837762+599519676+607309171+616596398+624011345
1562+626995867+626002031+632602356+649143532+663229900+674456376+684064223
1549+693132331+700574340+705065638+706904828+710345740+724255646+740341284
1535+749795406+756940123+766194456+774820262+781248187+787007745+792084847
1522+796962291+803931398+813646511+825677059+836898359+843932467+846247574
1508+845333024+851897048+869881111+883637030+889520236+891190237+895052287
1495+902427263+907045681+908082961+911199847+919173405+928045130+934510406
1481+937971763+939378807+938988140+936774140+937613858+945468027+952432481
1468+953576504+952303264+952100067+951621201+947846760+940615811+937664248
1454+943576220+951658879+956345969+954415829+949503460+946701493+945136530
1441+941814286+935088806+928160588+926308751+923758274+915773446+909576632
1427+909708995+912152795+915121657+916897155+916232261+919501691+929364697
1414+938162116+941034786+941865789+944631127+947726782+950223396+952721911
1400+955277106+959029530+963384927+966965017+970897180+974529429+975644816
1387+974959084+974741800+974508788+974777708+978510147+985518110+990640753
1373+990670175+990169816+992583016+996109440+997418523+994235063+990128142
1360+990423337+992151133+990661460+988979467+991247395+994376927+994388460
1346+990892177+985270880+980639618+978911626+978912412+977179375+971699155
1333+966370629+964652073+963450256+961964253+963874735+967987816+970440331
1319+971473811+973718346+977715183+981225422+982959246+983946726+984511234
1306+984806495+986491699+989076774+990014847+990637149+993043665+994674416
1292+995089525+999106478+1007053498+1013413407+1017024492+1020727902+1025100598
1279+1030017161+1035137576+1038611842+1039243383+1039124060+1041082704
1267+1043660637+1044077449+1043107661+1043700477+1048513574+1055078449
1256+1058024836+1058993313+1061462275+1062539985+1060660431+1059736577
1244+1061787810+1064991255+1067651292+1070377838+1073364654+1072905905
1233+1068554506+1066059726+1066307349+1066227670+1066057826+1066084888
1221+1064694225+1061819459+1061526229+1066266985+1071603244+1073741823
1209+1073492430+1071156355+1066873758+1062436650+1060289553+1062455260
1198+1066689695+1067256169+1064152258+1061591428+1060104572+1059038461
1186+1059568306+1063079135+1067589370+1067282969+1061526557+1056340484
1175+1054722249+1054647811+1053345739+1051243331+1050284879+1049661855
1163+1047370797+1043595111+1040801138+1040040182+1041278628+1044923458
1151+1047515479+1045390595+1040487988+1035257817+1030946847+1030033018
1140+1033569010+1038046482+1038420309+1034487818+1030525317+1028789069
1128+1028543280+1028487189+1027272006+1024220450+1020540628+1019761325
1117+1022112799+1022047273+1016639787+1010998111+1010365979+1009609414
1105+1005767350+1006737203+1011363813+1011482284+1009853564+1012774133
1094+1019219685+1022175835+1018236989+1014640844+1017292559+1021009337
1082+1021284613+1021277733+1020359186+1016130255+1014595173+1019882090
1070+1028509206+1036043083+1035733537+1027647864+1023935411+1028040628
1059+1032484813+1035172371+1037126297+1036724097+1034242226+1031232607
1047+1032079206+1038362711+1041899620+1039557975+1036404198+1032931702
1036+1027765418+1023313174+1023121182+1027076606+1031739780+1032247477
1024+1026287540+1018786885+1016636380+1019774037+1021776912+1020585645
1013+1019673061+1021628691+1029016117+1039164555+1042292318+1036362392
1001+1030820119+1030613319+1031382531+1029673738+1028414652+1031081176
989+1035266466+1037788636+1040853952+1044161716+1045378145+1046449564
978+1047959026+1048405914+1046781520+1042857744+1039392914+1038556407
966+1040408964+1045444654+1052408125+1058080860+1060233462+1058591375
955+1055331315+1052955596+1051471952+1051913861+1057051509+1063157635
943+1063803724+1060643263+1058157330+1058888209+1061047494+1059083870
932+1055406539+1055960891+1057921239+1057974970+1060188773+1064917735
920+1066607197+1065701101+1065027164+1064211624+1064467308+1066155656
908+1067728351+1068504247+1067821791+1065611002+1063868529+1064240128
897+1063916887+1059457697+1052537670+1046375191+1044523683+1048667954
885+1053411200+1053877288+1051476276+1048998271+1047542082+1044160471
874+1038265077+1034394509+1033932156+1035700315+1038623505+1039648467
862+1037867661+1036953766+1037757708+1038253807+1040536609+1045810880
851+1048254025+1042519563+1032651512+1026098235+1025378822+1028384182
839+1031584417+1033951617+1034191967+1031130189+1030782638+1036612440
827+1041281904+1037526662+1029405736+1026475797+1029172200+1030395247
816+1028721970+1027122409+1026946930+1027770136+1025344421+1018652163
804+1015191330+1014776222+1011423442+1009362708+1011750155+1013134790
793+1010808150+1007769831+1005037125+1002177430+1002309859+1003709302
781+1000338961+995138080+994579403+994698137+987976457+981314079+985241983
768+994200989+995230341+989343924+984265904+978570955+972143947+970094811
754+971147621+968468647+961679214+958089360+957467647+954336411+951844056
741+953590788+956789909+957872206+954492953+947732286+943201607+942585595
727+940617187+934305112+926402323+920094441+916284026+914788325+914833341
714+915707199+917713612+920880101+924284777+925639991+924011074+920315003
700+916361347+916779011+922695570+930737275+937892083+939040168+934483409
687+932642515+934544414+932693167+925885386+922805130+927128615+931232915
673+928851365+918194378+901706998+898265561+912459326+924157788+927320017
660+926450878+927354025+928202655+928474458+934473580+944646067+943392747
646+927328470+918824019+924651003+925262298+915631451+908762927+905456867
633+904424895+919853108+941288438+921584704+874217964+847078643+850241462
619+874255773+897328209+904045498+909452787+918400458+912410641+891623431
606+876024391+869909550+862773155+857816817
##END=
