##TITLE=Sample description
##JCAMP-DX=4.24
##DATA TYPE=INFRARED SPECTRUM
##DATE=12/9/2023
##SAMPLING PROCEDURE=Instrument type and / or accessory
##ORIGIN=Default
##XUNITS=1/CM
##YUNITS=ABSORBANCE
##RESOLUTION=4
##FIRSTX=4397.6552
##LASTX=599.8556
##DELTAX=-1.9287962
##MAXY=1.7962965
##MINY=0.17431748
##XFACTOR=1
##YFACTOR=1.6729315e-009
##NPOINTS=1970
##FIRSTY=0.18940869
##XYDATA=(X++(Y..Y))
4398+113219635+111737813+111107351+111374336+111685795+111597596+111750230
4384+112316408+112373574+111848271+112089212+113360663+114100853+113559686
4371+112833596+112959144+113468396+113756313+114297319+115119090+115583468
4357+115255549+114007095+112616964+112150253+112781676+113723962+113870877
4344+113397664+113574089+114117429+113838517+113547439+114191911+114602569
4330+114044719+113455863+113178261+112510781+111639762+111796877+113370247
4317+114903402+114764761+113248717+111900040+111792432+112718586+113633170
4303+113855263+113620629+113659278+114132554+114695507+115026455+114719192
4290+113936844+113526738+113852858+114470511+114975996+115079408+114743241
4276+114606417+114572712+114113421+113790775+113792173+113742115+113863484
4263+113973827+113761613+113932141+114650063+114968380+114617222+114074006
4249+113843096+114160727+114540932+114798974+115175125+115239248+114944811
4236+114926124+115132736+115164633+115300566+115884264+116511350+116623447
4222+115944335+115094355+115332605+116537065+117558981+117693667+117177325
4209+116877731+116703755+116208140+115655091+115250418+115351934+116108797
4195+116759256+116916931+116921323+116800505+116581218+116589627+116881953
4182+117146052+117047618+116624668+116330908+116601678+116909111+116469085
4168+116172065+116788587+117190712+116779395+116462735+116705866+116869402
4155+116465086+115922904+115859654+116363446+116896177+116821250+116416497
4141+116391227+116803614+117101809+116797085+116538357+117060979+117538976
4128+117069966+116143313+115813737+116168511+116449766+116567323+116867853
4114+117110191+117029278+116751515+116335825+116096532+116348615+116838530
4101+117208990+117171883+116932563+116890887+117026125+117340211+117543233
4087+117300708+117001666+117148706+117533426+117730730+117993235+118436128
4074+118289239+117128923+116128473+116504492+117296521+117221193+116983041
4060+117554109+118335031+118402138+117889528+117423725+117333361+117284639
4047+116969493+116854064+117285779+117871598+117954577+117473401+117132058
4033+117276685+117481114+117553770+117747877+117878492+117675309+117366870
4020+117135488+117022428+117197330+117860873+118689841+118985935+118784445
4006+118488805+118084489+117669680+117471094+117370122+116987174+116367053
3993+116302618+117080022+117999229+118446603+118334497+117982047+117611382
3979+117156669+116698491+116404526+116449917+116849521+117227223+117309508
3966+117222021+117359762+117847352+117904127+117314175+117084948+117295960
3952+116978649+116354913+116607789+116964050+116398015+116512855+117638567
3939+117770697+116492663+115102790+115011633+116228501+117139638+116947670
3925+116727332+117188771+117062653+116064003+116279469+118063860+118814872
3912+117988015+116719690+114456081+111493488+110543756+112069152+114461559
3898+116918998+117262219+114759105+113456246+115420020+115558937+113818770
3885+114206831+114446533+114625933+116402201+115559516+112749397+111195381
3871+110718632+112104274+112867560+112171443+114128884+117299274+117049969
3858+112245560+104856873+104198817+113013994+118229044+118281971+116141977
3844+113707270+111345869+109170798+109899337+113315263+115247256+116193808
3831+117267056+117070545+116059576+113722643+109322800+108652683+111544152
3817+112994220+116228181+119508192+118813821+115266941+112774105+112258244
3804+110381476+110817368+114950788+116695017+117779168+119685606+120150616
3790+119533497+118575107+117713245+117869549+117738622+117069841+118186201
3777+119872987+119753773+117966344+116471891+117190864+118730396+119938553
3763+119653148+117162093+116053697+117322343+116333090+111667669+108793248
3750+112093246+113724273+112763069+116894405+121624012+120655307+116611957
3736+114735323+118019680+123470157+126541543+126561798+126463159+128225862
3723+130992176+134535689+138233377+140183923+139253395+137913795+142355788
3709+151819321+160511962+167233846+174423144+183895541+191801371+195088829
3696+194490638+190102694+182989962+178492940+179261277+179382023+176025588
3682+170705112+164465251+157225876+152443414+153852500+154143392+152652573
3669+155545779+158950723+159451130+159235077+158898402+157348760+156540430
3655+157512439+155422254+150136053+150230149+157473158+162809667+164195381
3642+164282190+164124818+163073071+161668350+160280570+157493841+154970213
3628+158293691+162955211+163177767+160051904+157166928+158030697+159856391
3615+159691750+159427544+159676376+160290119+161968292+162903727+162014698
3601+161176547+161292448+161229492+161401098+162603661+162714966+160725361
3588+160378728+163051748+164808144+164805454+164545470+164461920+164415050
3574+164612292+164344719+162394448+160396275+161669757+164470881+165801423
3561+166173727+166547491+166811733+166559160+166152688+166099458+165623884
3547+164922601+165718033+167602408+168453742+167987147+167536067+167435434
3534+167147570+166807600+166607900+166357803+166120586+166172996+166380606
3520+166455604+166528002+166551535+166121637+165341276+164951087+165338123
3507+165730593+165619342+165799374+166277175+166078010+165519670+165436601
3493+165487800+165169581+164930778+165061447+165034547+164868374+165074612
3480+165342487+165339637+165248089+165164967+165277803+165336609+165034084
3466+164765140+164569288+164483208+164712747+164889983+165079315+165593279
3453+165938879+165530162+164851094+164859449+165283682+165555922+166036146
3439+166592686+166676895+166561529+166734329+167085184+167195741+167146697
3426+167346647+167624142+167866703+168411914+169108369+169573237+169831261
3412+170183434+170649086+170880442+171017417+171497801+172229261+172750476
3399+172848687+172822767+173011529+173492091+174121154+174741666+175466197
3385+176122694+176398123+176682602+177324527+177902481+178061706+178262261
3372+179018038+180029007+180947876+181773681+182317877+182573247+182868093
3358+183399729+184224056+185234170+186038367+186441169+186665506+186965092
3345+187582504+188362901+188923842+189422129+190036015+190776258+191575876
3331+192095007+192311915+192624469+193177536+193618319+193752515+193892340
3318+194279412+194900013+195487961+195660529+195601475+195887004+196422862
3304+196689277+196762548+197151544+198158220+199422296+200265863+200895674
3291+202048963+203570671+204935221+206163045+207276037+208144740+208813298
3277+209398912+209823358+210106875+210639242+211153829+211134091+211243097
3264+211997770+212565498+212184715+211277925+210850271+211273970+211773077
3250+211540990+210859945+210531304+210909914+211315566+210950816+210123389
3237+209526606+209664668+210225430+210333403+210061680+209567419+208836635
3223+208520945+208779718+209013140+208916034+208626157+208051589+207162221
3210+206587759+206505207+206334188+205945495+205628149+205431941+205172349
3196+204632180+203938112+203447199+203129069+202727977+201941256+200660256
3183+199416203+198603776+198031024+197492013+196971672+196596268+196358018
3169+195951778+195297489+194869159+194881041+194798774+194468174+194465822
3156+194853732+195061109+194846285+194453263+194128631+193970492+193951021
3142+193697896+193069741+192500089+192017371+191446348+191051883+190881327
3129+190667607+190253458+189640481+189013555+188478054+187880362+187071088
3115+186075421+185190953+184637120+184050722+183060703+181720862+180226587
3102+178867382+177835285+177072275+176284058+175238208+174345260+173973811
3088+173725816+173352337+172937207+172362228+171867130+171733611+171531167
3075+171035570+170644044+170505502+170373995+170195994+170080627+169872733
3061+169581984+169589840+169825756+169857698+169813518+170090318+170406507
3047+170200216+169771173+169728810+169877721+169719493+169214668+168647652
3034+168147405+167654729+167324147+167200515+166941208+166588482+166496756
3020+166468288+166230091+165964906+165740088+165396750+164843470+164107021
3007+163415394+163037282+162903264+162730607+162490682+162268198+162031283
2993+161976344+162440677+163274945+163931602+164229050+164413376+164561948
2980+164617547+164729422+165013188+165235993+165058080+164552204+164087639
2966+163731172+163485226+163486010+163487809+163181900+162707662+162302579
2953+161911820+161469113+161266866+161494820+161975827+162411604+162561690
2939+162478835+162246892+161897889+161660262+161553144+161344502+161086370
2926+160933629+160681413+160138055+159422930+158655235+158013007+157681409
2912+157587438+157641754+157797114+157967669+158143605+158227760+158129585
2899+158012775+157959439+157998738+158300746+158729111+159000069+159207482
2885+159459218+159652451+159825429+159996074+159996270+159917494+160024417
2872+160205500+160149118+159905381+159805709+159927898+160057605+160016899
2858+159806047+159629328+159542376+159219525+158533473+157828467+157512974
2845+157677009+158030465+158382086+158732086+158932196+158928918+158941834
2831+159186657+159584578+159787057+159667113+159484426+159471296+159568046
2818+159635171+159698056+159696595+159544229+159519769+159797550+160183072
2804+160568630+160912573+161225804+161565864+161784518+161802796+161836928
2791+161972389+161957086+161745130+161654508+161740748+161781009+161734673
2777+161684811+161664538+161723219+161817706+161723414+161437333+161331159
2764+161575626+161864701+161990667+162099940+162194125+162158193+162158799
2750+162337620+162520592+162589392+162641588+162747156+162870343+162926387
2737+162926548+162960983+163078059+163332895+163594019+163630627+163576561
2723+163651470+163815452+163991049+164049854+163962653+164009558+164242500
2710+164441362+164625385+164810477+164896468+164997012+165168761+165202323
2696+165144177+165339940+165781471+166050290+165938790+165751934+165809243
2683+166005826+166118003+166077279+165923594+165770711+165712547+165751257
2669+165841309+165903927+165844071+165652672+165438899+165344465+165412356
2656+165514147+165452830+165233321+165079529+165017908+164911503+164780870
2642+164637143+164476564+164379493+164321810+164226164+164112258+163978882
2629+163754848+163452537+163154270+162924161+162829281+162838135+162770600
2615+162496454+162198490+162189583+162369152+162413350+162263637+161973030
2602+161635981+161375926+161166446+161017268+161050795+161207313+161225002
2588+161042992+160891570+160829700+160697054+160485205+160349726+160343206
2575+160328349+160178796+159911651+159673668+159546384+159378394+159090994
2561+158814318+158634570+158476628+158223520+157952117+157783486+157672377
2548+157640080+157704906+157697086+157548816+157375446+157240128+157153603
2534+157142665+157148615+157029454+156778378+156543120+156396739+156305031
2521+156268903+156315096+156358242+156244301+155999816+155827533+155803055
2507+155818322+155815490+155843476+155932388+156037244+156079696+156045296
2494+156009133+156068152+156265002+156541802+156812849+157041515+157223204
2480+157390571+157534636+157601885+157622586+157596951+157485433+157324907
2467+157182071+157179523+157350114+157562729+157727513+157802066+157844803
2453+157969522+158118967+158233621+158398707+158615331+158837370+159154057
2440+159529621+159789409+159955528+160082884+160088655+160027873+160101446
2426+160294911+160441078+160567935+160782349+161012779+161139119+161184920
2413+161208934+161270002+161459583+161727886+161964016+162154987+162309349
2399+162504007+162842214+163193319+163402567+163582368+163721463+163613437
2386+163127566+162021076+160026394+157229706+153917487+150208594+146250414
2372+142344734+138509607+134650966+131005349+128017415+126185210+125982784
2359+127495345+130440392+134779764+140616404+146407341+148985784+147009523
2345+142663461+139761659+139213153+139797395+140781330+141805999+142709440
2332+143605595+144890808+146661072+148464026+149960474+151486708+153529827
2318+155947317+158129602+159763667+161132706+162534363+163978312+165441179
2305+166805604+167905111+168828825+169691168+170348770+170824059+171410795
2291+172071408+172545218+172934553+173382318+173695763+173766380+173732924
2278+173743738+173874210+174060549+174200108+174324933+174493280+174685604
2264+174881688+175101785+175332642+175520353+175660731+175801358+175948006
2251+176074186+176194700+176287353+176342008+176439845+176599213+176790504
2237+176978197+177126413+177277818+177406741+177418694+177409502+177558324
2224+177776319+177849091+177807530+177797839+177830030+177839418+177882582
2210+178080875+178317967+178438125+178556092+178692391+178704754+178687527
2197+178808541+179018412+179197020+179328170+179458269+179585285+179696608
2183+179810745+179931188+180028206+180104184+180203820+180268558+180254912
2170+180323551+180570584+180849985+181065896+181249741+181365125+181428242
2156+181487136+181494120+181516780+181662911+181873442+182032222+182092186
2143+182093112+182114953+182210563+182369895+182541412+182643934+182651470
2129+182651594+182733202+182916459+183116409+183233966+183305366+183441397
2116+183630836+183674196+183555962+183553361+183710502+183795976+183739736
2102+183658965+183671631+183815055+183998490+184121178+184182246+184218694
2089+184299518+184445686+184544075+184549170+184550061+184587720+184615315
2075+184601972+184653277+184817241+184867407+184691774+184544289+184639293
2062+184836125+184958652+185065966+185188173+185236041+185171713+185094576
2048+185117913+185162432+185135158+185134695+185255387+185426923+185590904
2035+185728699+185778081+185803769+185887069+185964117+185998142+186047096
2021+186130860+186169428+186228554+186482338+186830397+187054805+187130873
2008+187153087+187198390+187287444+187400548+187543740+187755892+187903413
1994+187750690+187564779+187842880+188440109+188946039+189168897+189198772
1981+189337368+189634513+189900714+190063413+190216439+190326069+190221338
1967+190169106+190558067+191104542+191449697+191694877+191905212+192029111
1954+192188372+192486212+192762157+192821800+192617914+192306250+192533331
1940+193505678+194397771+194802854+195008414+195286854+195646973+195950709
1927+195995173+195685416+195466958+195501357+195579082+196229326+197343085
1913+197898663+197839181+197958359+198664613+199543007+200139647+200489879
1900+200686693+200678445+200737268+201085647+201156851+201040309+201738689
1886+202919500+203732818+204237982+204652845+205034964+205410528+205723438
1873+205392339+204066910+203319987+204777456+206988031+208341608+208978652
1859+209465075+210033034+210628321+211201750+211666707+211748208+211112892
1846+210076573+210572651+212952071+214754571+215487831+216175771+216680774
1832+216027501+215137795+215879285+217370175+218873998+220736372+222252255
1819+223132360+223862217+224418562+224445675+224567027+225583590+226865071
1805+227518023+227406968+227233705+228064623+229417255+229600281+228755075
1792+229652584+232814895+235251749+236224987+236681321+237043471+237802936
1778+238912650+238909853+237243848+236263484+238456333+242000764+244722898
1765+245648571+245426639+246158670+247608818+248856772+249894231+249577028
1751+248082931+247939970+249866477+252054926+253419351+254154464+255291113
1738+256148308+255154085+255062109+258519872+262116463+264845224+266658181
1724+267579348+267729274+265941774+263042244+263778140+268685374+273237514
1711+275664588+275756706+274739912+274659978+274362246+272898879+273537224
1697+276678817+281550903+286735241+289201008+289661422+288532735+285717574
1684+286561907+292928571+297914420+299656369+300010163+301332350+302437486
1670+303465771+307704287+312293997+314119193+315999292+319831283+322615358
1657+321657334+317595928+318636683+325898202+328689474+330886741+337962491
1643+344747651+348025685+348349872+346944634+349001524+356424690+362235615
1630+364964928+366938696+369163576+372013814+376581220+380498364+382336172
1616+386287698+393258164+398944673+403160957+407652617+412898539+418069534
1603+423102895+428783988+435093183+441396534+447788886+454442149+461005021
1589+467525815+474294551+481737171+490110666+498496917+504812061+509396142
1576+516924770+526394351+533024776+539981347+550371329+560662512+568613948
1562+572802690+573967576+583177780+601036319+615910514+628463988+640015150
1549+650863355+659524802+665748594+670441913+677146980+693150895+709401789
1535+719306399+728542184+739953111+749712355+757534529+764806380+770972311
1522+778348270+788896265+799862544+810850414+821577125+829610150+833636212
1508+835405042+844182640+861415323+874687074+881779641+884765482+889628608
1495+899193247+907006728+910054421+912695874+919508397+927471947+933422893
1481+937321546+939390941+939864663+939834378+941461833+945754470+950985143
1468+954289292+954371738+953847780+954760235+954633325+951185306+948851045
1454+951702067+955366210+956781246+954232571+950521968+949608444+949890981
1441+948171389+942378207+932684948+924813535+920734885+916662292+913654789
1427+913970460+915439652+916494195+917309455+919313436+925529889+933039384
1414+937494203+940023852+942587278+944909211+946898655+950505365+955963279
1400+960904788+965054482+968278680+970512824+973038839+974889616+975457468
1387+975847248+976087957+976032233+978032224+982403885+985020326+984873393
1373+984916361+987047965+990744032+993643295+993323348+990364442+988707629
1360+989679798+990921677+991769929+991813895+989654715+986966232+986667306
1346+986367382+983066012+978674826+974679975+970649710+967792988+967272806
1333+967160504+965555994+964066707+964815555+966692198+967781159+968574685
1319+969577566+971037993+973036630+974332737+976266457+981084762+986614433
1306+989649584+990903079+992400204+993924407+994996123+995573239+996285318
1292+998813969+1002322415+1006075773+1011788504+1017689143+1021212695
1281+1024250697+1028432884+1033132758+1038037855+1042292440+1044076876
1269+1043517432+1043783365+1046400590+1048748746+1049816971+1051868766
1258+1055726017+1059274153+1060459882+1060734865+1061788340+1062784736
1246+1063342827+1064581072+1067101957+1070034996+1072624288+1073741823
1234+1071944561+1068795183+1067938380+1070132833+1071940927+1071772830
1223+1071933088+1072639751+1072005415+1070271999+1069373653+1070111313
1211+1070789615+1068935774+1065497162+1064204974+1065200730+1065368613
1200+1064071722+1062982334+1062404576+1060965669+1058852521+1057741257
1188+1057159794+1055356831+1052322464+1050042858+1050485297+1052309495
1177+1052178167+1049611036+1045525403+1040993340+1038413454+1037356845
1165+1036952885+1038985583+1040443658+1037617791+1033551469+1030592705
1153+1028381079+1027214163+1026296577+1024724418+1023643937+1022598515
1142+1019512414+1016573104+1016611512+1017171242+1016123682+1014938452
1130+1013635505+1011623044+1009974212+1009109285+1008082675+1005979931
1119+1005077238+1007446272+1009238903+1007298769+1004391169+1002890624
1107+1001179298+999227549+999921742+1002107145+1002237048+1000710208+999939414
1094+1000710351+1002842810+1005795302+1007825720+1009368236+1012326073
1082+1014495300+1015259041+1017404825+1019113870+1019963689+1023756311
1070+1028583523+1029727423+1027275516+1024596938+1024206303+1025690887
1059+1029056246+1034654538+1038091156+1035675020+1032431582+1033817331
1047+1037803203+1040520617+1041475898+1041108920+1040225253+1040017608
1036+1039693457+1040072548+1041176188+1038787272+1035276974+1033798590
1024+1030369954+1026615456+1026478213+1025912926+1021872399+1020151311
1013+1023971723+1026930842+1026401825+1026968823+1029181232+1029528970
1001+1027171622+1025396521+1026059503+1028067759+1031103338+1034687887
989+1037994032+1040558383+1041333097+1042173297+1046075014+1050190504
978+1051764801+1052612269+1051158112+1046181117+1043256272+1045629083
966+1048893542+1050156086+1052244080+1055133581+1056632202+1057319126
955+1058371674+1061541574+1066288621+1069296125+1069153467+1065310253
943+1060023072+1057985814+1058885300+1059311635+1059953026+1061688864
932+1060455749+1054556464+1049751271+1051105310+1056589376+1059568733
920+1056122495+1050226703+1048616064+1051267707+1052795259+1052744238
908+1054780855+1058451412+1060757739+1060777121+1060126823+1059349117
897+1056295438+1052503529+1050658382+1048128376+1045708393+1046926472
885+1049749418+1051313953+1047061933+1036874359+1031299012+1033027867
874+1036382039+1038587751+1036767757+1032512175+1030569903+1030160527
862+1030405583+1032333318+1033069766+1029839796+1026766593+1027048631
851+1026292302+1022042776+1018388894+1017292807+1016432228+1016201923
839+1019388355+1023439000+1024535157+1023598831+1020970205+1017511996
827+1016249737+1016807329+1015888246+1013481802+1012605189+1013159574
816+1014407796+1015483289+1012667682+1005894636+999346906+996759609+997820494
802+999364649+1000960964+1002769842+1005088426+1007142643+1006133990+1003636193
789+1002040020+999635428+995076573+991236850+991387418+992818059+991645157
775+988586205+984105021+978961567+976297312+975138305+972264125+968752900
762+965255571+960535246+955745159+951959236+949323555+949372723+950717855
748+949355194+945420271+941419649+939404979+939138404+937367721+933731581
735+929639535+925511718+922885871+920083376+914700353+910884003+909399705
721+905254429+901510762+902181939+901671733+896796209+893019834+894963959
708+899809912+903015654+904926288+906943237+907734056+906262014+903166079
694+900071855+899834567+901621853+901350219+899755114+899946798+900497620
681+897990631+896551225+900556265+903239831+901461951+898186874+893229475
667+893482653+902053319+910551515+914173687+911400693+910442348+915640884
654+918066782+913994546+909817632+908481905+907116180+903876305+900020478
640+896555144+894919280+896420182+900703056+904284042+899967819+891051197
627+888669479+889742905+884585271+877570019+877717095+881574062+884009794
613+885948645+882815942+875821782+871504989+870957516+878456679+890615029
600+892804921
##END=
