##TITLE=Sample description
##JCAMP-DX=4.24
##DATA TYPE=INFRARED SPECTRUM
##DATE=12/9/2023
##SAMPLING PROCEDURE=Instrument type and / or accessory
##ORIGIN=Default
##XUNITS=1/CM
##YUNITS=ABSORBANCE
##RESOLUTION=4
##FIRSTX=4397.6552
##LASTX=599.8556
##DELTAX=-1.9287962
##MAXY=1.9723551
##MINY=0.32715589
##XFACTOR=1
##YFACTOR=1.8368989e-009
##NPOINTS=1970
##FIRSTY=0.34490854
##XYDATA=(X++(Y..Y))
4398+187766754+188434561+189136471+189550919+189131652+187994818+186784213
4384+186219836+186712291+187936492+189480490+190384035+190125112+189933617
4371+190143559+189954287+189466537+189056128+188625617+188023568+187742142
4357+187945789+187614619+186668858+186301638+186925899+187998144+188748451
4344+188947263+189325856+190120504+190196239+189030104+188036369+188683278
4330+189977066+190038961+189676674+190166322+190772184+191062274+190879897
4317+189896658+189036189+188876006+188627272+188349724+188737792+189507730
4303+190014106+189666339+188827042+188560380+188676562+188945527+189560167
4290+189870359+189778302+190097531+191060652+191993692+192173181+191751334
4276+191087746+190032163+188837490+188309325+188549201+188801002+188762501
4263+188790099+189071476+189570697+189983491+190179269+190437916+190571360
4249+190512937+190348699+189629153+189022301+189444326+190015112+189905598
4236+189237045+188836484+189395491+190106373+190773141+191717004+192268969
4222+192388769+192137634+191659002+191617014+191490173+190815389+190546472
4209+190880919+191183388+191808282+192356775+191603434+190486686+190692702
4195+191901263+192583801+192449448+192368603+192391317+192130966+191796535
4182+191866884+192072218+191814917+191399057+191204544+191180825+191287629
4168+191566637+191814901+191602331+191338054+191477745+191423540+191028722
4155+190898928+190997231+190759919+190382786+190689862+191554713+192025086
4141+191940704+191806627+191705760+191439699+190963387+190502034+190436699
4128+190770464+191166028+191310521+191147435+191111985+191237723+190901719
4114+190392910+190576633+191247036+191745023+191812013+191501270+191411323
4101+191995071+192784950+192973086+192489360+192144886+192202093+192153988
4087+191917828+191645212+191380172+191374007+191691856+191895860+191872708
4074+191871800+191794572+191798320+192086787+192100773+191562938+191113218
4060+191366122+191953943+192166205+192195425+192288812+192152917+191856954
4047+191791571+191934912+191737187+191298986+191291344+191658207+192082585
4033+192310276+192368197+192834985+193709781+194229590+193802730+192580443
4020+191388284+190867956+190930468+191242315+191415168+191224955+191356744
4006+192228068+192871684+192558572+191915556+191829016+192320417+193023592
3993+193502613+193106287+191935756+191065551+191099087+191439034+191381308
3979+191099541+191181684+191717864+192100708+192123422+192154897+192139970
3966+191938579+191876245+192024940+191904037+191547752+191323533+191014120
3952+190416873+190007697+190532325+191235598+191083106+191359908+192533084
3939+193017200+192388412+191175974+190430566+191312614+192487526+191931894
3925+190725978+190541897+190176770+189314159+190026939+192437215+193975405
3912+193526349+192073856+189677177+186279865+184474397+185849971+188840151
3898+191708145+192184311+189437901+187186607+188731318+189802412+188817145
3885+188660435+188161295+188298536+190589856+190340700+187541074+185493995
3871+184759182+186381819+187600585+186711236+187759810+190640103+191105090
3858+187241088+180019119+178102287+186223113+192329892+193170422+190574978
3844+186745631+183252630+180939213+182156162+185960410+187991590+188850745
3831+190045743+190250947+189409833+187350829+183673406+183280909+185868986
3817+186857806+189771926+193375691+192907832+188740047+185324419+185104548
3804+184208904+184311068+187689575+189702065+191159830+193340955+194045704
3790+193244729+191962737+190789804+190421756+189810556+188838269+190028821
3777+192473525+193056560+191094090+188844304+189085754+190705243+192283896
3763+192391998+189920476+188136943+188467918+186856800+182023350+179116871
3750+182108333+183448083+181884503+185291646+190212366+189310946+184139204
3736+180372872+182311623+187594825+191158143+191286445+190236913+190289415
3723+191405920+193769892+196580858+197493700+195320071+192285015+194007885
3709+199967218+204560873+206382793+208161377+213413754+219756336+223373177
3696+224285159+222514833+218313642+216075814+219180894+222172842+221490579
3682+218370135+213911952+207865836+203755469+206175122+207864019+207180361
3669+210233134+213997730+214785499+214467065+214014538+212252551+210761639
3655+211036624+208715290+203199382+202678567+209820129+216110745+218494835
3642+218892199+219221957+219355256+218699942+217330274+214412097+211185206
3628+213561638+218551571+219942152+217897441+215485219+216103882+217599596
3615+217630877+218124143+219012940+219647357+221544087+223418362+223320010
3601+222509641+222189942+221596118+221356015+222540078+223002031+221330640
3588+221076844+223998152+226320995+226976309+227215715+227388568+227399892
3574+227258968+226528293+224518350+222454284+223538162+226572277+228208672
3561+228838238+229471227+229632107+229327610+229334700+229623687+229293069
3547+228633017+228877371+229863335+230577900+230837651+231229775+231778122
3534+231619206+230818765+230473935+230717883+230762613+230758022+231197683
3520+231660253+231860038+231862943+231410123+230651510+230335704+230713308
3507+231011623+230742171+230601912+230905825+231170118+231464361+231850742
3493+231722570+230968970+230410839+230582459+231117438+231456898+231534758
3480+231516782+231283704+230820209+230645036+231147891+231667343+231571133
3466+231294704+231116692+231055964+231193546+231355886+231516409+231493451
3453+231166727+230879736+230845308+231157642+231606096+231929673+232541068
3439+233485287+234048626+234053980+233837889+233652202+233670974+233780504
3426+233757238+233643815+233822346+234368504+234696331+234905251+235598270
3412+236340108+236423209+236206501+236475094+237212470+237836114+238077158
3399+238047208+237939268+237936867+238352922+239035655+239417087+239650717
3385+239889327+239974699+240244946+240764723+241188046+241505117+242022590
3372+242777569+243207837+243020722+242844965+243479106+244595124+245194724
3358+245316812+245585275+246195599+247036843+247753987+248044791+247988931
3345+247950934+248270065+248846253+249101542+248991688+249219363+249827464
3331+250388207+250935289+251366530+251267643+250721194+250465921+250918497
3318+251392553+251060475+250420380+250370457+250645588+250864178+251194228
3304+251307506+251076294+251127027+251412233+251595535+252175325+253580070
3291+255577130+257417643+258402261+258941328+259798180+260883177+262079878
3277+263308509+264031202+264482058+265302000+266079044+266444139+266952218
3264+267630213+267555209+266723245+266231147+266447838+266838616+266885650
3250+266677314+266869458+267452071+267378851+266258176+265220424+265183368
3237+265594799+265794520+265718249+265453680+265424542+265676975+265757528
3223+265623354+265475891+265371066+265410232+265857583+266253131+265854971
3210+265212912+265100868+265156225+264557241+263411711+262883222+263365748
3196+263955143+263973979+263525687+262891789+262360006+262141904+261956687
3183+261192314+259966571+259161345+258770032+258201291+257851204+257799919
3169+257345266+256975597+257496931+258273667+258388291+257861668+257335856
3156+257188167+257220567+257091795+256604029+256083425+256021659+256266450
3142+256458059+256577421+256501751+255933058+255105248+254423764+253916561
3129+253619820+253371702+252986489+252707237+252485728+251885171+250887573
3115+249816918+249001211+248578618+247999363+246822050+245402979+243994470
3102+242941451+242563425+242181182+241335557+240573374+240116418+239640674
3088+239092586+238650686+238424471+238280497+237952815+237622327+237430767
3075+237008109+236457604+236160376+236056913+236070866+236072635+235886234
3061+235565124+235296807+235365760+235782934+236157325+236150122+235801965
3047+235575345+235729881+235924021+235852975+235558488+235209877+234982105
3034+234797489+234536749+234363863+234227515+233834888+233383448+233291278
3020+233349669+233267477+233208891+233118619+232905951+232693641+232405109
3007+232094820+231882201+231671091+231483506+231268340+230815472+230406101
2993+230637719+231421448+232273789+233099296+233660201+233642095+233467570
2980+233574310+233703066+233713644+233792769+233759575+233420585+233116218
2966+233033604+232979934+232962931+232873227+232539981+232315226+232296390
2953+231982483+231357476+231020498+231168917+231450765+231707287+232042496
2939+232381600+232512205+232334176+231917764+231495252+231140493+230716796
2926+230457841+230491766+230284955+229682970+229166308+228983721+229057087
2912+229187546+229198465+229118690+229081764+229195561+229420835+229517483
2899+229337702+229096025+229121594+229441180+229960583+230505654+230586775
2885+230188356+229989187+230129510+230368218+230938111+231653114+231831500
2872+231540891+231263115+231216828+231295986+231161600+230879931+230854881
2858+231180161+231535537+231481575+230920427+230226158+229879170+229874481
2845+229821558+229717560+229773047+229941358+230203866+230540455+230742820
2831+230714265+230622419+230711961+230961150+231173168+231314968+231307067
2818+231135317+231063411+231108368+231084795+231141109+231394013+231654818
2804+231904558+232201656+232378631+232416660+232555021+232806221+233007077
2791+233164939+233248689+233224044+233226608+233326484+233463514+233592465
2777+233695992+233644334+233397157+233173100+233098550+233144383+233268272
2764+233367240+233389386+233461681+233675306+233958695+234187928+234249044
2750+234257951+234397366+234524224+234454086+234326369+234440361+234797522
2737+235112564+235281151+235353722+235337368+235323723+235407732+235522373
2723+235650609+235861573+236049840+236026331+235838648+235766077+235968280
2710+236313273+236560904+236668065+236816047+236987553+237012409+236965066
2696+236943180+236978403+237143906+237318950+237479748+237855859+238282346
2683+238401854+238341111+238367832+238483706+238610466+238702814+238730347
2669+238710310+238657954+238533563+238336827+238172800+238114604+238109444
2656+238030968+237796706+237593740+237669832+237910535+238120753+238225302
2642+238146695+238003678+237914834+237758141+237530320+237371111+237344925
2629+237379045+237267730+237013593+236849907+236800601+236782511+236831021
2615+236840448+236669152+236475580+236416265+236375753+236240020+236129322
2602+236129874+236050910+235813793+235609416+235578411+235660652+235727383
2588+235779900+235790203+235674248+235497371+235307856+235054838+234832095
2575+234826628+234861689+234644300+234353804+234240332+234247000+234218672
2561+234063601+233819134+233547394+233246872+232977841+232858171+232823613
2548+232758051+232675778+232532485+232319006+232110736+231998642+232070938
2534+232150550+232018906+231747767+231483733+231322074+231249747+231176283
2521+231097871+231034516+230954384+230846006+230702989+230497833+230342129
2507+230386048+230485503+230461507+230467316+230577413+230532570+230303937
2494+230214104+230386697+230643511+230840392+231010147+231148978+231211652
2480+231272720+231342517+231361094+231294623+231160870+231117357+231184476
2467+231233506+231299604+231397144+231433373+231403082+231370001+231455860
2453+231705437+231949467+232052085+232040971+232082538+232350611+232697713
2440+232852411+232888705+233036102+233265708+233424057+233523625+233652056
2426+233803023+233924867+234059805+234260645+234446688+234562935+234668393
2413+234762867+234811053+234912032+235183334+235517814+235619718+235503845
2399+235583993+235912404+236177849+236304366+236359106+236328589+236108474
2386+235532107+234274938+231915996+228393888+224075266+219375536+214433903
2372+209191017+203923747+199103487+194766402+191077152+188733995+188063690
2359+189238440+192739895+198198384+205082045+212093521+215603980+213524306
2345+208335463+204796709+204125885+204928158+206362496+207785461+208626494
2332+209217755+210712545+213102637+215252254+216844341+218764174+221692458
2318+224962084+227540703+229329800+230998887+232942975+234870758+236653771
2305+238446763+240018910+241140201+242031578+242974240+243979965+244862841
2291+245534006+246061830+246519970+247015248+247537767+247867363+247935943
2278+247953367+248099353+248314519+248459126+248570327+248728871+248881995
2264+249045228+249299024+249543929+249701645+249872454+250068475+250279472
2251+250537697+250708198+250803597+251055413+251357022+251502473+251620001
2237+251772931+251841608+251853533+251942247+252077720+252151654+252236929
2224+252412735+252640783+252875337+252964100+252854018+252792918+252890750
2210+253072900+253357165+253639711+253796112+253894091+253952125+253961827
2197+254003864+254095985+254200064+254357147+254545008+254663526+254768676
2183+254918571+255060939+255186742+255326482+255460705+255537608+255587400
2170+255673324+255824112+255989551+256081153+256157018+256323138+256581444
2156+256832969+256994044+257087966+257136444+257161591+257233384+257396324
2143+257567766+257628785+257632955+257752025+258016756+258202670+258201388
2129+258213378+258360970+258557267+258707066+258796559+258826492+258844161
2116+258971359+259184156+259335431+259414200+259450153+259414768+259421858
2102+259573522+259754731+259895639+260013281+260087361+260153637+260265390
2089+260347046+260345959+260381425+260495352+260586176+260640300+260711832
2075+260816609+260970755+261125519+261120749+260970837+260968955+261158746
2062+261225720+261193482+261278838+261413905+261572854+261720624+261749666
2048+261705828+261623165+261552168+261563006+261652109+261839873+262107703
2035+262334275+262439408+262518079+262641562+262704691+262679316+262710483
2021+262843035+262927985+262940153+263064658+263310472+263527455+263768126
2008+264099393+264377736+264523219+264637827+264819442+265073708+265220148
1994+264964357+264591329+264787691+265442859+266003537+266344133+266619913
1981+266911381+267179795+267403885+267568691+267693034+267647379+267317118
1967+267211238+267727153+268324303+268608601+268845329+269109055+269318137
1954+269614635+269983120+270165335+270052479+269710958+269306780+269472624
1940+270444895+271357542+271758525+271996713+272397809+272889177+273220736
1927+273208957+272839693+272632444+272711684+272715610+273234591+274353644
1913+275046906+275160541+275341928+275913606+276619523+277149278+277498424
1900+277772160+277939983+278133798+278511110+278527626+278287053+278964188
1886+280236495+281102578+281689118+282207483+282633467+283039365+283347983
1873+282932123+281399158+280385434+281893154+284511782+286227854+287040527
1859+287601302+288186771+288777302+289306569+289658733+289578812+288727071
1846+287407228+287784345+290456058+292615539+293438109+294058168+294495899
1832+293725636+292700262+293467086+295087208+296762557+298902440+300640577
1819+301549071+302185224+302624187+302505685+302460906+303478524+304989425
1805+305842593+305703032+305366412+306126940+307567946+307798623+306705984
1792+307238172+310436557+313165607+314346896+314909650+315208112+315808669
1778+316938883+317010400+315102200+313582928+315595125+319478012+322638530
1765+323855966+323553481+324034465+325483714+326878546+328106560+327837789
1751+326090241+325775588+327901031+330360628+331777882+332317112+333296992
1738+334255976+333080041+332319805+335875676+340413244+343950197+346046209
1724+346848239+346760369+344545563+340851267+340987940+346045625+350984614
1711+353730083+354052784+352940319+352474163+351797190+349785220+349990002
1697+353346834+358766515+364555882+367393570+367942696+366693039+363136454
1684+362891663+369327210+375021697+377144057+377355265+378307726+379123904
1670+379839069+384040341+388927866+390609933+391893077+395612845+398723295
1657+397755486+392698254+391752412+398304774+401133409+402780301+409562787
1643+416648538+419793448+419244224+416510534+417649607+425492673+432036793
1630+434873799+436482142+438351144+441133799+446081225+450378155+452108277
1616+456083188+463728319+469849342+473882304+477935999+482945986+488345062
1603+493710197+499269829+505133179+510913752+516619402+522600216+528633239
1589+534531860+540455110+546714169+553718896+560986195+566330531+569450456
1576+575160811+583729881+589646284+594863551+603378172+612366411+618960599
1562+621695490+621058006+628131588+644754510+658423707+669287341+679182971
1549+688805579+696264519+699966506+700635010+703298839+717449702+734427480
1535+744843649+753154688+762921627+770811289+776437213+781715159+786535841
1522+792667443+801023455+809758207+820505804+832541479+841281357+844166679
1508+842969978+849054919+865632801+878162797+884029294+886255976+889591424
1495+895989233+901337463+903846512+907230763+915337635+924567421+930920257
1481+934919667+937526321+938230713+937261152+937403017+941775649+947146528
1468+949644479+951251849+953877583+953761418+948191565+939978845+938933094
1454+944762860+948722163+949609889+948680239+946985323+943519303+938691482
1441+934526456+928897936+919835519+914049754+913421096+912853507+913228027
1427+914277542+913088239+912992127+915763879+918407914+922245470+928940962
1414+936055040+941929650+944916860+944655455+944514693+947288912+951019193
1400+952601578+954538560+960823967+968589676+973181401+974177895+972754898
1387+970544764+970521466+973009943+974771962+975358372+976917978+979689795
1373+983100264+984781357+983677848+983617428+985868252+987795045+988483019
1360+987062293+985029653+985322338+986311888+986639748+987388335+987372501
1346+985575047+983273799+980924137+976353958+969140977+963959857+962488446
1333+961523882+960187782+960239959+962136510+964051751+964984841+966750494
1319+968964846+970291666+971739064+972316259+972042199+973524122+976934332
1306+980680253+983609316+986529618+990598857+994566142+995986349+994232636
1292+992674978+994227185+998620390+1006254877+1015724263+1021646831+1022922512
1279+1024933087+1030118361+1035511369+1038668026+1039936568+1040382800
1267+1041356061+1044027612+1046739010+1046902421+1045819744+1047345863
1256+1051532630+1054140907+1054437291+1055027530+1056026555+1057518862
1244+1061174512+1065244789+1065579269+1064088843+1064824970+1065614443
1233+1064380750+1063630865+1064018819+1063346421+1061156860+1059119028
1221+1059205406+1061548773+1063856382+1064216820+1064307806+1068179433
1209+1073741823+1072196819+1063040821+1056986252+1059341560+1063561036
1198+1063773314+1062256670+1061709069+1060854635+1057442284+1052708694
1186+1051005926+1054089962+1057678639+1056791626+1053526007+1051710188
1175+1049746469+1047499409+1047808578+1047834407+1044831232+1042935785
1163+1043664384+1042407458+1038666338+1038809177+1042880882+1043297391
1151+1040969404+1042060388+1042838309+1038229452+1034154891+1035801459
1140+1039770821+1040583981+1036370865+1031826191+1030126667+1028016540
1128+1025005383+1022955091+1022755987+1026028095+1030283718+1030625920
1117+1025540199+1016731595+1009970297+1008254614+1008190561+1008165965
1105+1009969389+1012648728+1012871130+1012724657+1013993459+1011068744
1094+1005316790+1005340413+1012022212+1019208974+1022788695+1023439547
1082+1021468105+1018130321+1017983264+1021495297+1024430200+1025745728
1070+1027708539+1030045611+1030817756+1030540451+1030307665+1029328239
1059+1027625146+1026801798+1027816398+1031712037+1037226987+1039574767
1047+1038541606+1037787892+1039274229+1042745831+1043539067+1041077004
1036+1039552507+1037956300+1036531615+1035858049+1032782968+1028908225
1024+1026948011+1025319290+1024332985+1025365496+1025158669+1022613667
1013+1022329224+1025297874+1026488604+1023241806+1022354728+1027808480
1001+1032530454+1032258210+1030008685+1029013943+1029354328+1029066444
989+1030024195+1034152166+1036512860+1033781733+1032640000+1038167799
978+1044527319+1044648872+1042251964+1044513496+1048900341+1050602266
966+1051345597+1051150062+1048270515+1045909756+1047395379+1050450731
955+1052258957+1051699610+1048742122+1047939151+1050663594+1052448067
943+1053386479+1056023505+1059121430+1060694534+1061928032+1063458434
932+1062864755+1061163285+1061460384+1063201052+1063010904+1057856586
920+1051467279+1051026952+1056496280+1062094882+1065897978+1069832036
908+1071683808+1069070210+1063990914+1057741264+1054156936+1057546768
897+1061703099+1058599008+1056503937+1063521708+1069276388+1067070927
885+1065307610+1062214098+1046662237+1028134718+1026316238+1037015942
874+1043356901+1043224317+1040408889+1036127696+1033492812+1035618125
862+1040883351+1042723182+1040198817+1037289158+1033801916+1031177415
851+1032461857+1033253601+1030800688+1030490480+1033312852+1034601123
839+1033134320+1032487297+1032823918+1031320513+1030421754+1030226284
827+1026659998+1022759815+1022773249+1023042961+1020926799+1018491862
816+1015675525+1013718101+1015008449+1018310475+1020028494+1016900716
804+1010786767+1006064988+1005622845+1008735436+1010828041+1012004884
793+1014329171+1014373431+1010227030+1005504018+1004328798+1005158442
781+1001609807+995659398+993977072+994161574+991896797+988433502+988741309
768+994858893+1001698132+1002319002+995639150+988432918+984045684+986508267
754+996872907+994422266+979247457+973107354+970351112+962998732+959962459
741+962975888+962091990+956083758+953379888+954932095+955232439+948791148
727+937435141+928233585+923964139+924177131+924839210+920496236+913470418
714+909393521+910287024+916052346+923925979+930002289+932284912+930765867
700+929525685+930459942+931995861+935231821+939469663+941156596+939547539
687+936723674+934742887+934468957+932761321+927041491+924791576+929647691
673+931330990+925675993+921713964+925892100+933203984+938771436+937118573
660+925892230+913975447+910958513+918854990+930617318+938691353+944065411
646+948898813+947005766+941007658+940119801+939492701+933268037+929473313
633+924825192+872430441+799863161+794020091+866224727+919683725+908113362
619+914036904+928167000+916189409+905618266+910465426+914093235+913722608
606+918081158+926132998+929645809+932095218
##END=
