##TITLE=Sample description
##JCAMP-DX=4.24
##DATA TYPE=INFRARED SPECTRUM
##DATE=12/9/2023
##SAMPLING PROCEDURE=Instrument type and / or accessory
##ORIGIN=Default
##XUNITS=1/CM
##YUNITS=ABSORBANCE
##RESOLUTION=4
##FIRSTX=4397.6552
##LASTX=599.8556
##DELTAX=-1.9287962
##MAXY=1.9525988
##MINY=0.33421281
##XFACTOR=1
##YFACTOR=1.8184994e-009
##NPOINTS=1970
##FIRSTY=0.33990324
##XYDATA=(X++(Y..Y))
4398+186914136+187225729+186445493+184522034+183784948+185093891+186328398
4384+186301553+186161711+186862005+187326862+186803481+186956172+188263755
4371+188930501+188460416+187531865+187022414+187882691+189041828+188976225
4357+188414872+187879610+187044408+186624274+187209996+188255135+188866439
4344+188614123+187901325+187486501+187635144+187746749+187207226+186378464
4330+185910034+185910559+186447886+187593813+188446797+188156673+187730427
4317+187929644+187842327+187424078+187301001+187222566+187303459+187998852
4303+189017065+189434953+188755932+187899850+187948245+188674776+189283786
4290+189657737+190015021+190093784+189785534+189492558+189459683+189477415
4276+189283540+189250157+189952843+191080792+191535948+190582650+188808096
4263+187703402+188003589+188982092+189489117+189125654+188503599+188153231
4249+187915386+188092529+189051202+189864280+189476760+188415020+188022485
4236+188612271+189383477+189677796+189532710+189357796+189257827+189181686
4222+189350372+189399308+188732972+188114997+188348155+188691034+188764962
4209+189108315+189576532+189972739+190212173+189839124+189313449+189578122
4195+190239968+190347837+190277694+190580585+190686864+190511410+190396576
4182+190053894+189365073+189018605+189696201+190771264+191188349+190900208
4168+190554593+190777525+191480145+191981860+191685066+190907747+190629324
4155+190702777+190543809+190577275+190828968+190693485+190474224+190723721
4141+191248642+191597880+191257820+190316174+189512339+189085339+189065476
4128+189423760+189928441+190771166+191761469+191887479+190991951+190233347
4114+190265124+190531223+190468914+190285528+190449855+190635699+190332792
4101+189899810+189820097+190174398+190541925+190658905+191009683+191656009
4087+191945806+191610138+191302249+191472951+191619299+191519199+191517642
4074+191694965+191643374+191364197+191519690+191961325+191909718+191284140
4060+190738553+190757465+191232828+191979943+192504946+192216919+191493649
4047+191157457+191202345+191178008+191256755+191607532+191933957+192212117
4033+192621615+192877995+192514566+191810060+191360952+191289794+191506285
4020+191612646+191271799+190952832+190956535+191015271+191480735+192744298
4006+194035574+194526768+194345004+193729422+192641985+191547469+191128761
3993+191403972+191907178+192147383+192112361+192184634+192412187+192498472
3979+192188223+191694653+191336386+190960977+190949865+191771466+192487738
3966+192395487+192242059+192382426+192168901+191598289+191393467+191655468
3952+191997921+192238568+192324329+192171753+192108510+192600588+192890057
3939+192180389+191175730+190863515+191616251+193064413+193812479+193082883
3925+192292929+192553652+192678089+192457075+192820898+193188982+192958610
3912+192625827+192168704+191015435+189591593+189478136+190983052+192743708
3898+193856088+193658805+192274852+191648733+192642264+192911837+192535117
3885+192899824+192695903+192587723+193195914+192444374+191301495+191009437
3871+191050195+192159986+192963936+192681695+193010856+193809480+193736961
3858+192013965+189491477+191059373+195732054+196466058+194442138+192604292
3844+192201809+192191091+191635114+191925435+193245276+193713100+193505655
3831+193655838+194109224+194319061+193039798+190874200+191454546+192989322
3817+192838401+193801286+194948049+194057322+192195057+191568577+191839199
3804+191124943+191944888+194320061+194543189+194195853+194521638+194345889
3790+193920315+193591317+193445706+193837717+193950420+193717279+194214192
3777+194489173+193569586+192366382+192351878+193654232+194856847+195614959
3763+195310823+193803269+193345212+194031133+193164120+190925053+190818348
3750+193398835+193827950+192923227+194890099+196662113+195443733+193872657
3736+194451660+196051022+196882357+196748758+196049645+195825222+196580236
3723+198016812+199808164+200919446+200901435+200188146+200017133+202342059
3709+205689409+207915808+209566417+212665597+218570425+224535218+228188114
3696+229684753+229406429+228448788+228706086+230044397+230006605+228044846
3682+225213108+222387991+219808209+219059226+220335064+219687082+218278973
3669+219080105+220026290+220075193+220045399+219954000+219645407+220161593
3655+221339969+220747528+219420508+221452180+225474766+227283162+227353960
3642+227184766+227185045+227283031+227627483+227942075+227522253+227649722
3628+230189270+231839207+231268644+230054115+229705091+231305354+233069452
3615+233473165+233238270+232988231+233514775+234972000+235798337+235657134
3601+235536974+235595317+235658937+236432994+237683168+237717174+236822760
3588+237325360+238990292+239914844+240147347+240127795+239927316+239609463
3574+239573424+239995623+240436881+241115476+242391970+243110028+243034559
3561+243128449+243313523+243158325+243202492+243747177+244107542+244023535
3547+244082681+244527265+245022441+245195733+245267415+245720129+246025757
3534+245805365+245580516+245322661+245009068+245225101+245868166+246098111
3520+245788256+245521075+245359666+245029308+244684611+244737135+245253485
3507+245646955+245483153+245171871+244990369+244630070+244233765+244148333
3493+244258823+244250957+243907144+243418950+243049981+242902895+243005585
3480+243037313+242946619+242761086+242352785+242421944+243144919+243365360
3466+242695713+241871818+241658031+242252471+242974578+243140543+242699646
3453+241982800+241593788+241943665+242637927+242853828+242707381+243010600
3439+243593519+243716760+243475080+243368916+243411821+243417786+243462510
3426+243477997+243319095+243293988+243712876+244366888+244735038+244740856
3412+244916097+245257402+245320694+245244291+245459930+246071595+246570934
3399+246531257+246391808+246468047+246538698+246673935+246994230+247363707
3385+247711797+247969685+248200843+248753936+249604478+250009862+249617704
3372+249329219+249940883+250973403+251545227+251440669+251280259+251570580
3358+252086668+252660918+253358032+254057719+254507941+254482031+254260558
3345+254479081+255218559+255984275+256298867+256209026+256081311+255985718
3331+256058777+256567670+257166355+257129088+256608543+256738896+257688949
3318+258282423+258028976+257447286+256920251+256612148+256660986+256929018
3304+257020203+256673884+256227955+256386709+257305362+258532264+259882686
3291+261387487+262498064+262858036+263064661+263906681+265577218+267118040
3277+267941804+269034862+270640943+271912504+272698607+273033996+272574678
3264+271626264+271179188+271265850+271098540+270723475+270509361+270597891
3250+271277289+272068948+272185945+271788149+271106833+270362668+270309881
3237+270950274+271124139+270342313+269561323+269541477+269846105+269954580
3223+270165728+270581322+270390954+269530841+269082749+269118312+268736576
3210+267892065+267411376+267734376+268320688+268475722+267933052+266834586
3196+266007610+265967278+266180082+266122051+265761784+265312430+264986907
3183+264681607+264223928+263514982+262546574+261923732+261963687+261876107
3169+261407579+261136777+261122535+261150592+261324735+261611320+261612336
3156+261341107+261205395+261222373+261127747+260803633+260506937+260367095
3142+260085673+259812511+259707461+259163907+258248253+257729019+257452186
3129+257064846+256725982+256402557+256055286+255793154+255439410+254646571
3115+253539779+252763919+252467043+252004463+251129371+250102637+248807149
3102+247337928+246237741+245500950+244786874+244163590+243651600+242984903
3088+242366584+242083491+241887796+241652344+241422333+241120179+240552780
3075+239700402+239202505+239408213+239811646+240079581+240080662+239656678
3061+239022839+238639383+238755987+239068858+239251671+239422536+239584323
3047+239516557+239179365+238879326+239010630+239425388+239378451+238569405
3034+237681529+237304924+237294828+237298024+237161345+236973812+236840427
3020+236628918+236222092+236052341+236356084+236395039+235825738+235240311
3007+234973442+234910724+234816343+234558209+234305844+234130717+234061181
2993+234338342+234956529+235673965+236299249+236781560+237218524+237518760
2980+237518661+237402107+237480853+237655308+237558616+237161378+236742473
2966+236498450+236420801+236402266+236292283+236020482+235800647+235796813
2953+235755661+235564081+235531779+235648268+235697318+235731308+235694729
2939+235495643+235214975+234992256+234914509+234871719+234797086+234748282
2926+234602933+234253696+233909228+233624659+233190104+232712267+232408459
2912+232260946+232341692+232666658+232882952+232921186+233142922+233314820
2899+232929332+232381139+232318109+232715495+233274521+233673579+233724120
2885+233638491+233689197+233951034+234307499+234623336+234925654+235197554
2872+235307012+235136064+234809820+234736679+234997926+235155944+235064922
2858+234967296+234829978+234569714+234238389+233741623+233098165+232667150
2845+232687684+232910092+233056653+233113898+233201707+233495273+233893118
2831+234094892+234085436+234028617+233997430+234053020+234173065+234197451
2818+234070686+233960868+234114853+234475923+234724322+234770472+234857199
2804+235205404+235581731+235679062+235697155+235883393+236066107+236099310
2791+236211128+236390106+236347463+236252034+236358214+236467967+236395924
2777+236335238+236503645+236729723+236736049+236502399+236140855+236002520
2764+236375192+236782805+236749832+236569985+236549827+236617905+236733165
2750+236927253+237072093+237105788+237108017+237089727+237175242+237453075
2737+237771715+237944383+237949283+238007626+238113971+238008954+237812751
2723+237795871+237891908+237972801+238129769+238384101+238589628+238751775
2710+238969429+239229399+239436925+239473865+239383171+239339808+239373633
2696+239478224+239725706+240090708+240376293+240428982+240439093+240587146
2683+240722629+240742230+240650471+240557598+240669433+240828712+240732856
2669+240539505+240552255+240676561+240604698+240313771+240093036+240106245
2656+240273488+240399040+240249840+239961338+239916368+240075729+240155164
2642+240069731+239899177+239772183+239720002+239681113+239674033+239717348
2629+239715512+239538075+239136919+238784879+238831619+239057091+239012908
2615+238757544+238595216+238578648+238586694+238461913+238131998+237788742
2602+237661962+237677940+237636019+237600227+237701245+237811506+237824305
2588+237770666+237659143+237477477+237243025+237042906+236904620+236786181
2575+236704845+236615578+236421752+236206244+236119287+236118517+236044851
2561+235828934+235557198+235252897+234862411+234566485+234490918+234440261
2548+234295257+234117459+233944987+233776383+233641851+233608189+233603895
2534+233460595+233286615+233241187+233180287+233064700+232983364+232868465
2521+232753779+232749239+232783491+232734637+232579963+232423978+232390398
2507+232402083+232350722+232283972+232241690+232279351+232381123+232363571
2494+232233250+232217402+232393938+232620541+232752943+232845161+233022401
2480+233194660+233212687+233119962+233028367+233030104+233095641+233053933
2467+232955586+233062930+233328586+233464233+233486243+233564497+233645718
2453+233660288+233697735+233818436+233959114+234115787+234330983+234512747
2440+234584135+234676976+234941059+235246703+235356062+235317189+235313600
2426+235319713+235301997+235396673+235648596+235961041+236222780+236376913
2413+236489239+236670626+236962832+237248679+237392110+237473823+237563598
2399+237612846+237763980+238118248+238411977+238491822+238540479+238592299
2386+238325447+237432245+235893209+233774236+231105924+228057629+224911414
2372+221735618+218442841+215206703+212264605+209826812+208332500+208022366
2359+208836542+211003976+214644482+219505597+224473253+227102758+225996671
2345+222579654+219938431+219270325+219967931+221236083+222330632+223018749
2332+223618614+224750857+226509514+228204289+229422817+230643918+232528209
2318+234864607+236831200+238149386+239179201+240244891+241417662+242642860
2305+243822236+244851559+245666965+246275582+246824790+247470166+248115296
2291+248580121+248921852+249306750+249697171+249995621+250255688+250489961
2278+250651452+250764778+250882185+251046495+251238666+251385850+251524643
2264+251751066+251977881+252113774+252267874+252488758+252682878+252792386
2251+252905826+253113926+253308998+253432517+253580062+253773822+253934724
2237+254020927+254139841+254339665+254537834+254681003+254738199+254804686
2224+254936843+255024537+255091713+255216003+255355337+255451078+255482036
2210+255486920+255586397+255848579+256126314+256294311+256433777+256594105
2197+256718181+256781998+256843356+256943719+257071532+257258557+257443631
2183+257516428+257612186+257771842+257815845+257805209+257848146+257914142
2170+258063670+258313184+258568745+258741380+258789431+258827698+258954725
2156+259078490+259231033+259481334+259620291+259592349+259614391+259777374
2143+260026888+260212880+260257096+260283022+260373519+260509133+260644239
2129+260725460+260800273+260947867+261141988+261312280+261387569+261404219
2116+261498338+261633854+261713714+261775925+261838660+261917881+262061542
2102+262231818+262357599+262430740+262458847+262429610+262449685+262664341
2089+262924179+262981735+262911560+262945074+263100879+263230249+263271548
2075+263246638+263269778+263468012+263664952+263666050+263635846+263742600
2062+263914269+264037903+264096787+264120025+264113257+264116879+264157145
2048+264177909+264245807+264451022+264619938+264589849+264480997+264489535
2035+264629967+264789312+264934595+265072422+265162296+265208216+265299860
2021+265448126+265638429+265969786+266305011+266408373+266439216+266598446
2008+266806906+266924985+266963809+267064827+267263602+267468638+267654204
1994+267849045+268046198+268194907+268322720+268503648+268708274+268963081
1981+269296028+269561094+269656835+269677747+269812591+270054828+270267451
1967+270512720+270806810+271028988+271254427+271569412+271826399+271961194
1954+272134272+272436245+272757458+272968754+273137440+273420287+273824180
1940+274210176+274491975+274670838+274777756+274942312+275284142+275706373
1927+275987336+276201860+276613406+277035932+277268812+277535156+277891670
1913+278249888+278656976+279074585+279402747+279706490+280091716+280477073
1900+280762264+281054109+281473686+281909847+282239615+282628610+283187062
1886+283699265+284086818+284481582+284982707+285573739+286111345+286517056
1873+286740988+286849872+287289606+288202113+289057359+289639836+290120246
1859+290624092+291131444+291629816+292217111+292898804+293534740+293968475
1846+294341410+295164174+296231814+296976405+297524696+298118186+298742388
1832+299209032+299676397+300424888+301299702+302348167+303470479+304452145
1819+305441448+306375161+307016604+307391636+307853200+308689402+309651763
1805+310408023+310999546+311682123+312649695+313700619+314341013+314738268
1792+315842159+317450944+318602033+319466981+320285746+320962883+321809181
1778+322847846+323445236+323528325+324142236+325906547+327826548+329125690
1765+329621899+329999980+331073454+332393245+333585830+334560285+335111461
1751+335657260+336658757+337898802+339098926+340168991+341230239+342587069
1738+343582993+343823673+344870205+346996962+348632723+349943501+351058405
1724+352083926+352963886+353211252+353391722+354952980+357404261+359417414
1711+360761231+361438434+362050148+363152006+363944911+364618704+366359809
1697+368440253+370977311+373451601+374914332+376132877+376912310+377188946
1684+379253428+382686604+384925458+386096017+387301647+389159929+390689362
1670+392244164+394971917+397490358+399168269+401200990+403834739+405922197
1657+406679014+406780491+409714247+414002407+415934601+418355170+422485641
1643+425857885+428170847+429645936+430578633+433283935+438064042+441861893
1630+444563196+447222282+450177736+453635003+457729911+461256567+464505930
1616+469606071+475315434+479772329+484001851+488736760+493704613+498650374
1603+503843535+509398946+515073205+520687974+526474888+532661580+538941096
1589+545132049+551524515+558292471+565279377+572423087+579080783+585424541
1576+593364335+601077444+606671859+612792474+620878321+629017857+636457738
1562+642615522+648634659+659802184+672144168+681101027+689232827+698041469
1549+707615057+716356179+724124681+731042297+738125894+748793048+759077696
1535+767168264+775831311+785187719+793190838+799886423+805813195+811509940
1522+818479539+827336494+837085373+846716975+854934520+861499785+866882920
1508+872085586+880015613+888318836+893377874+897264747+902013914+909100264
1495+916337782+920238159+922125121+924440018+928101583+933502877+940118028
1481+945309943+948071194+950838870+954201248+956095421+956267434+957923451
1468+960656121+961280782+960385908+961991514+964781347+962706443+957501941
1454+957612989+959686910+959528729+955258891+949481844+946222909+944364463
1441+941524481+936863092+930405728+926252576+926563956+925185494+918685652
1427+912783659+912350743+916533525+921626192+926231009+930462236+934533184
1414+940129696+946327336+950103686+952425203+957421572+963872577+966574764
1400+967201457+969973918+973209188+973584024+972551881+972875782+974874251
1387+977236346+978295103+977613935+977061645+979610044+985185055+990540527
1373+993424101+994574699+994840585+994733667+995536634+997525859+998895013
1360+997152335+993747609+992289433+993137632+994399868+994818362+993711423
1346+991267255+987949715+983160824+977811841+975137055+975046395+974502299
1333+972474462+970229905+969106512+968293384+968746098+973017378+977441922
1319+976881766+974440613+975174683+978090838+979587035+980763657+985364213
1306+992013059+996456220+997429233+996588049+997343227+1000870800+1004335443
1292+1006528606+1008282494+1009739686+1012920547+1018730305+1024146021
1281+1027507154+1029985607+1033823839+1039569290+1044261621+1047307375
1269+1050412324+1051606187+1048493241+1043625750+1043183001+1047691388
1258+1050893685+1052835122+1057139441+1061752255+1064743665+1066755573
1246+1068080609+1070040729+1072403479+1072798768+1071139277+1068938247
1234+1068396512+1070828684+1073695477+1073741823+1070268069+1065664039
1223+1064179969+1066484049+1068800519+1068833296+1067686304+1067865658
1211+1069775958+1071003909+1071368387+1070787909+1067217923+1063358779
1200+1063677501+1067939144+1072874220+1073570007+1068105650+1062603273
1188+1062781579+1066132813+1067068329+1064948258+1062243121+1059161116
1177+1056445162+1055522035+1055087021+1053161251+1049565371+1047405312
1165+1047660709+1046274511+1044294529+1045000935+1044845573+1041817715
1153+1038936041+1037952474+1038191548+1037561774+1036704857+1037500809
1142+1037801111+1036590204+1035253958+1033575981+1031324934+1029370320
1130+1028329393+1027362215+1025350111+1021926702+1018869214+1018686253
1119+1020396417+1022671785+1025114052+1026027936+1024594801+1021284473
1107+1018236949+1017395895+1017048198+1015584123+1015271235+1017711864
1096+1019393840+1017639951+1017692198+1023227090+1028107298+1029674620
1084+1033507280+1037013615+1032437182+1024551995+1021641740+1022559754
1072+1025210416+1030130677+1034793771+1036020936+1035153726+1036488333
1061+1039037584+1038185780+1037338040+1042207890+1047857239+1045974472
1049+1039520059+1036731931+1038457500+1039464404+1036908401+1033239559
1038+1031486917+1031731563+1031801705+1031089989+1030979531+1031779941
1026+1034527885+1038308299+1038372018+1034589244+1029813004+1025755036
1015+1024711225+1024956920+1024353302+1025877293+1029605133+1032621585
1003+1034806161+1034549453+1031176520+1031207527+1037694652+1043267172
991+1044895066+1048290286+1051536832+1047820660+1041197315+1039719735
980+1043299621+1047636848+1050061677+1049924867+1049387130+1051109422
968+1054931069+1057726146+1056386950+1052924668+1050221366+1047770511
957+1046638072+1048884268+1054492318+1061845866+1067564308+1068059501
945+1064251816+1061963272+1063315382+1064430515+1063089222+1060855612
934+1060559441+1063205449+1064930624+1062378096+1058705452+1057487203
922+1058365032+1060400145+1063360745+1067745040+1071742305+1070774733
910+1065264096+1061510362+1063873244+1067979460+1067080784+1063787172
899+1061350673+1057682946+1053770704+1052940335+1056394554+1060272119
887+1057249702+1051783051+1053159743+1056143287+1055594603+1057107385
876+1060441444+1058139658+1048227224+1038663338+1038450485+1046502441
864+1053197306+1052798543+1047808664+1042439819+1040365636+1043183460
853+1046250388+1043342952+1037172189+1033381483+1031162229+1029213188
841+1028407599+1028712227+1030504333+1034399728+1038445765+1039076785
829+1036448345+1034020172+1032561800+1030945706+1028329525+1024894119
818+1023885904+1025263514+1027045656+1032544625+1038328883+1035016522
806+1024427246+1017027156+1020432209+1029830048+1033518228+1029930869
795+1025482595+1023716710+1023325879+1020784626+1013910276+1005800239
783+1002434911+1003365379+1002356705+999107473+996528264+993104265+990397423
770+990815393+991359685+991471127+992137348+990053922+985530719+982479918
756+978091100+972834418+973916577+978309918+977168498+970627685+964553089
743+962364580+962972853+963011201+959620373+953643518+949671687+949745042
729+948736302+942758529+935864120+931787272+929230024+925133379+921524650
716+923282864+928533057+931878129+932346641+931805168+931619520+932905617
702+934080601+932621508+930870045+932282071+934254187+933463479+935736159
689+941494523+937886581+926854818+922882004+925501528+926697948+928155992
675+932104093+933342664+927802658+918086557+918227759+929876710+937755343
662+938020179+931395130+926503778+932705875+942420928+941971164+934292929
648+930944645+932616001+931442853+926279322+923851346+927854380+933429915
635+931843910+924926032+927104708+936733558+932923972+921945242+923636264
621+927019292+923331308+925764398+940512005+960596664+968593161+954609648
608+930698557+912845607+906564255+908220403+913723305
##END=
