##TITLE=Sample description
##JCAMP-DX=4.24
##DATA TYPE=INFRARED SPECTRUM
##DATE=12/9/2023
##SAMPLING PROCEDURE=Instrument type and / or accessory
##ORIGIN=Default
##XUNITS=1/CM
##YUNITS=ABSORBANCE
##RESOLUTION=4
##FIRSTX=4397.6552
##LASTX=599.8556
##DELTAX=-1.9287962
##MAXY=1.8465962
##MINY=0.28764534
##XFACTOR=1
##YFACTOR=1.7197768e-009
##NPOINTS=1970
##FIRSTY=0.29662201
##XYDATA=(X++(Y..Y))
4398+172477041+172361317+172764272+172564675+171604482+171596979+172185322
4384+171747881+171439751+172324475+173175026+173346567+173581655+174276434
4371+174606711+174136223+174203998+175077527+174775653+173017504+171864836
4357+171816435+171841753+172165202+172687244+172785951+173457873+174613157
4344+175187134+175568064+175601735+174920975+174283331+174151768+173943263
4330+172973279+172041056+172089318+172444445+172617771+172951358+173552802
4317+174058658+174093386+173832426+173619225+173923646+174420717+174118461
4303+173668769+173593959+173226459+172760962+172571520+172617442+173043428
4290+174118253+175109725+175029231+175106970+175709834+174987987+173690326
4276+173619190+173658857+172902074+172470993+172862685+173514834+173542162
4263+172602938+172239319+173517589+174822095+174705920+173817315+173478685
4249+174273072+175241461+174793485+173186047+172367694+172819258+173207709
4236+173033325+172931897+173106177+173355007+173817089+174304680+174247356
4222+173878591+174066785+175136117+176331380+176724649+176284106+175614507
4209+174903074+173976518+173402731+173429539+173617908+174052697+174203686
4195+173378540+172846707+174138026+176073574+176157759+174277699+172682738
4182+173006240+174342111+174785756+174307107+174008715+174052853+174151612
4168+174435758+174722938+174524709+174212905+174242971+174093212+173752347
4155+174009010+174601113+174634801+174024520+173396129+173429591+174173655
4141+175144037+175568359+174904582+174009616+173865836+174070962+174217532
4128+174132168+173721623+173915640+174947333+175682194+175612358+174898101
4114+174050149+173761463+173988804+174230945+174157036+173492340+172508216
4101+172245125+172952970+173615638+173523966+173197311+173323017+173510380
4087+173417686+173371903+173542543+173976188+174336670+174248673+174048832
4074+173797195+172993797+172196898+172447131+173323225+173794977+173449017
4060+172744066+172721244+173482879+173787959+173145445+172845754+173401328
4047+173862197+173690326+173219250+173405400+174233544+174631699+174500015
4033+174201953+173750563+173541919+173847433+173926748+173338405+172814007
4020+173049181+173751897+173855577+173237688+172855042+172891832+173064067
4006+173512044+173986638+173956312+173609884+173204312+172890013+173151597
3993+173749991+173784493+173193672+172788169+172805013+172942763+173335095
3979+174095829+174762760+174419642+173151961+172380656+172456783+172797302
3966+173299519+173924149+174600334+174965546+174579019+173721259+172951306
3952+172936282+174180257+175657292+175621022+174335873+173416265+173150072
3939+172880014+172727690+173106991+173801684+174414443+174788251+174254443
3925+173153988+172973193+173351454+173667902+174470278+175360513+175372158
3912+174606676+173565591+172210206+171120565+171657527+173310245+174606815
3898+175132357+174498022+172605086+171065735+171576842+172248279+172224278
3885+172672185+172518042+172127217+172647196+172140612+170775957+169867856
3871+169336907+170276408+171484963+171614706+172372252+173654438+173570079
3858+171287168+167479115+167257371+172363431+175530599+175338834+173062248
3844+170645017+169004343+167516580+167429571+169432668+171109058+171903688
3831+172783334+173480089+173353031+171508860+168311557+168233159+170699275
3817+171410517+172704868+174680880+174560944+172585331+171371093+171317927
3804+170006420+170211511+173220619+174564791+174982303+175593538+175413107
3790+175357671+175824571+175991538+175918894+175491313+175268651+176697060
3777+178220313+177854927+176425287+175983116+177381476+178953181+179761120
3763+179615104+178826955+179601604+181720547+182102205+180358734+180929418
3750+186880380+191319943+193181496+198127382+203629172+205948198+207374320
3736+210284392+213902915+217930668+221965178+224207002+225245991+226514001
3723+227499633+228363406+230161101+232824249+235602342+239692098+247888731
3709+258352299+268066587+276908992+286564447+298413205+309789050+318604127
3696+325080354+328219708+327341639+325241931+325009928+323737724+318641489
3682+311080941+303306585+295759103+288856492+285446871+283610463+281706836
3669+282175607+282680926+281636132+281014465+281004033+280296552+279676289
3655+280033894+279156361+277317718+278958358+283977443+287834659+289985904
3642+291661791+293132138+294253162+295510290+296853094+297501205+298311656
3628+301113438+302957991+302040272+299476039+296714876+295505092+295082052
3615+294488285+295312426+297914610+301146295+304101960+305979160+306885095
3601+307518442+308268207+309237254+310099589+310365904+310012943+309353187
3588+309281513+309718555+309518056+308690345+307739424+307090862+307209602
3574+308137856+309112762+309600509+309960678+310241758+310037447+309984385
3561+310602413+311141038+311098720+310725138+310653360+311613951+312792266
3547+312898668+312068912+311161487+310741601+310756954+310628510+310154419
3534+309781737+309831264+310187864+310765307+311603554+311944142+311022957
3520+309898640+309698419+309765725+309329965+308827350+308629867+308403790
3507+308320021+308926161+309555973+309024521+307829917+307193763+307310145
3493+307590150+307369827+306464932+305338466+304748199+305211998+306093914
3480+306193106+305651396+305170789+304650151+304118665+303818766+303720232
3466+303704463+303263297+302519771+302291649+302514953+302807019+302862195
3453+302361729+301760545+301728728+301988077+301655253+300781099+300442591
3439+300923095+301078226+300237622+299330196+299070883+298976785+298784778
3426+298479750+297837599+297495175+297897801+298199190+298182554+298318969
3412+298416463+297786790+296564736+296210389+296917766+297283897+297234405
3399+297523317+298071682+298360663+298066795+297484673+297153339+297135421
3385+297273535+297415010+297359279+297241129+297163252+296850356+296436119
3372+296276691+296393455+296740246+297044477+297134139+297341534+297715221
3358+297834965+297434107+296913850+297172401+298237557+298852570+298533505
3345+298534579+299358790+299919493+299881958+300022948+300409077+300292486
3331+299847576+299876689+300192496+300283475+300339309+300774792+301375941
3318+301330434+300315395+299154652+298899809+299285626+299137600+298268611
3304+297518015+297176838+297231945+298098612+299336851+300069598+300496589
3291+300824561+300969433+301317611+301897064+302517830+303317953+304041723
3277+304357565+304371810+304482196+304884233+305116791+304917852+304728756
3264+304990323+305407228+305236293+304602010+304583018+305398252+306231439
3250+306795954+306759805+305639855+304217961+303684569+303851726+303692055
3237+303193737+303021485+303193564+303221291+303131837+303345576+303474643
3223+303074686+302581532+302737633+303270298+303132600+302208469+301005547
3210+300324302+300424638+300379374+299830213+299371578+299163074+298715634
3196+298245528+298086204+297530388+296381706+295709437+295847724+295309757
3183+293611671+292456646+292469158+292244329+290994653+289452511+288698813
3169+289197651+289744387+288905291+287477418+287224117+287891066+287515248
3156+285598640+284134896+285103320+286581343+285313645+282950897+283217039
3142+285698595+286167384+283247868+280311784+279989462+280954091+279857292
3129+276936355+276013905+278524331+280419000+277723186+273615009+273486843
3115+276752007+277020419+272304975+268506349+269558369+272055158+269994042
3102+264577374+261976853+264003587+266203076+263364764+258270297+257367464
3088+261542254+264233303+260275093+254913392+253995587+256344384+256866477
3075+253485242+250220511+250631941+253634914+254415975+251543022+249044536
3061+249400425+251616204+251979077+249345370+247175480+247242526+248038906
3047+247611811+246187041+245163319+244926256+244931056+244361377+243176581
3034+242165250+241906438+242138181+242075121+241372821+240511370+242285202
3020+253390521+274019559+287327365+281233316+266935684+255961045+249351990
3007+244858204+241527865+239399668+238115611+237119685+235997153+235124074
2993+235416244+237125248+238616008+237976423+236309234+235583038+236471141
2980+238211822+238147808+236055466+234697568+235225779+237023491+237831118
2966+236245532+234440525+234797333+237786027+240134530+237922304+233734759
2953+231894435+233423423+236340791+236375224+233446575+231529378+232372356
2939+235082363+236102688+233498372+230633754+230245095+232193363+234163483
2926+232960214+229785006+228005819+228433503+229925927+229787172+227334330
2912+225382857+225584603+227225260+228187948+227064099+225440199+225036134
2899+225878402+226988613+226663743+225019897+223958588+224327145+225618135
2885+226225523+225165497+223815796+223662866+224633421+225661752+225664941
2872+224971930+224597203+224712183+225102297+225288430+224798083+224017109
2858+223562634+223571680+223567417+222908094+221868741+221146236+220876490
2845+220869679+220885518+220824277+220730075+220600904+220469566+220522524
2831+220908930+221403366+221687305+221672072+221379521+221042191+220898082
2818+220876698+220795354+220517152+220109483+219862854+219860393+219934666
2804+220032888+220147902+220259363+220386438+220419155+220278529+220176755
2791+220362333+220578930+220397217+220076852+219980779+219907182+219720304
2777+219582191+219542663+219477644+219354849+219160745+218859460+218683811
2764+218811978+218998353+218963955+218759453+218612658+218560410+218496691
2750+218511698+218664108+218787821+218868055+218915849+218862492+218842390
2737+218795983+218493589+218156727+218138150+218409681+218689253+218826101
2723+218931116+218953055+218759904+218562905+218477975+218431880+218497193
2710+218572471+218448897+218302586+218362095+218414689+218295568+218184159
2696+218126435+218086509+218154422+218309553+218392802+218356965+218350692
2683+218441532+218433595+218260078+218160920+218163104+218041141+217735090
2669+217432748+217335601+217324718+217220552+217037331+216785919+216553032
2656+216442230+216339624+216128052+216033902+216224904+216347543+216088593
2642+215638312+215385947+215405286+215373400+215176645+215005900+214817030
2629+214542328+214352989+214206609+213984137+213840063+213793794+213676440
2615+213509508+213318264+213048362+212826132+212626309+212262951+211935724
2602+211872577+211869787+211698609+211456070+211345648+211346740+211259990
2588+211024920+210813157+210709061+210546305+210276524+210070411+209943128
2575+209883343+209898731+209739562+209390865+209178478+209131741+209001114
2561+208713432+208421800+208161862+207921835+207808312+207796078+207715410
2548+207523091+207326197+207115110+206886417+206789963+206835469+206875881
2534+206821744+206756795+206713974+206539244+206265166+206111543+206148766
2521+206235515+206224252+206162629+206138472+206065897+205836061+205593660
2507+205567302+205660221+205634314+205524447+205455269+205390250+205323983
2494+205360600+205474435+205550857+205646323+205823965+206061565+206382969
2480+206630863+206575930+206369331+206265686+206225447+206185053+206153479
2467+206153843+206335141+206650896+206854393+206902637+206856125+206771212
2453+206731563+206790829+206912809+207002158+207096013+207310081+207548825
2440+207662920+207794362+208042013+208252805+208377801+208439718+208430100
2426+208441330+208556551+208680940+208779457+208961760+209125832+209176104
2413+209280322+209488151+209660611+209729477+209779610+209878560+209996294
2399+210277252+211022234+212592483+215995171+222976232+235096746+253038323
2386+276294950+303103210+331087306+358675847+385939847+414058453+444394813
2372+477075395+510328360+541835548+569941504+591803167+604840395+610931810
2359+609276388+593941310+567314123+537830082+510744919+494980840+499104665
2345+518426113+529027412+520704484+507374705+497048801+492426380+495463874
2332+501642281+501997668+496904934+494099201+494626043+492241582+483087754
2318+468475096+453578274+447332386+451573461+454807155+446258982+426948140
2305+405131880+388888407+378999372+370658075+360999656+349418599+335599790
2291+321048165+307917533+296463014+286223288+277469712+270435798+264917251
2278+260418942+256369095+252545515+249112951+246214213+243707131+241385835
2264+239207054+237261542+235654919+234387359+233287666+232142467+230939077
2251+229811537+228859783+228012785+227143103+226391779+225920893+225571329
2237+225184559+224832100+224598728+224439612+224227139+224004805+223947948
2224+223936130+223849172+223872185+224025271+224139921+224174319+224205408
2210+224341546+224571626+224803091+225083010+225429160+225657247+225736424
2197+225897412+226215732+226552212+226817401+227026477+227225607+227395381
2183+227490310+227529821+227595290+227734738+227858070+227874394+227801802
2170+227782186+227894808+227963050+227916695+227795650+227527065+227228778
2156+227080302+227013238+226921618+226736699+226484611+226328111+226267632
2143+226324334+226610560+226998248+227402763+227839268+228200009+228440833
2129+228673720+228990203+229369677+229759220+230081941+230357631+230674842
2116+230970634+231131102+231199465+231311845+231501409+231816315+232250515
2102+232642986+232970854+233321839+233733390+234178871+234656568+235193893
2089+235756971+236368292+237115994+237988744+238939544+240103718+241504696
2075+243008332+244681707+246581695+248670156+250893230+253249912+255821770
2062+258664484+261790183+265071238+268447292+271962672+275625887+279376823
2048+283072704+286739975+290397922+293876461+296874270+299262162+301294112
2035+303109379+304674169+305909393+306747814+307209706+307257014+306883605
2021+306276598+305628106+304728825+303415412+301937476+300397951+298742910
2008+296955059+295074531+293257913+291626509+290112407+288601389+287217376
1994+286113889+285095332+283907260+282703246+281692348+280820240+280046613
1981+279350951+278686949+278149241+277806401+277525703+277246946+277114412
1967+277134930+277118606+277098175+277295381+277697123+278136834+278564916
1954+278972516+279376615+279878919+280532991+281239883+281990982+282874094
1940+283735043+284490907+285241555+285954634+286619242+287294699+288004970
1927+288753106+289550785+290284225+290643078+290783618+291230884+291800875
1913+292024387+292087223+292398282+292869185+293179169+293398487+293704798
1900+293984560+294135809+294361470+294710479+294888762+294962688+295229523
1886+295626535+296040979+296550838+297110086+297399102+297372207+297375153
1873+297437850+297257072+296997550+297296790+297972767+298397089+298438229
1859+298231526+297863489+297404162+297068496+297004724+296970135+296417577
1846+295375123+294907963+295048017+294678732+293974509+293658979+293422055
1832+292330975+290788158+290263534+290533142+290727939+290733796+290654845
1819+290630670+290362328+289658538+288836788+288243091+288160396+288291300
1805+288381065+288603832+288549453+288133397+287972478+287594858+286836221
1792+287083335+288324087+289289478+289988052+290276531+290050853+290144812
1778+290558078+290268802+289125319+288733992+290654810+293103995+294148390
1765+294028576+294020154+294923559+296059487+296854584+297457120+297872084
1751+298094591+298373487+299228543+300603267+301561536+301698437+302121789
1738+302914564+303082449+304071703+306630703+308583043+309879508+310978421
1724+311937903+312346248+311587091+310772966+312559362+315989396+318412293
1711+319709382+320039399+319967275+320559760+320997668+320838933+322004875
1697+324554067+328079619+331554674+333608252+334996874+335304016+334424421
1684+336402617+341613605+345135207+346427964+347325338+349236157+350969942
1670+352918123+357060213+361102834+363465217+366163821+370001784+373156596
1657+374224871+373653562+376659794+383076893+386462842+390010541+396453080
1643+402032695+405337474+406809033+407134232+409792979+415579435+419657165
1630+421615882+423421063+425529019+427746426+430637835+432751336+433255789
1616+434922371+438664919+441888702+444297943+446749502+449661463+452884760
1603+456278576+459945639+463802040+467639725+471859312+476710893+481535406
1589+486203333+491263142+496855788+502891681+509222342+514754441+519389095
1576+525868337+533236393+538507930+544071637+552145198+560638437+568026630
1562+572950058+576378463+586449905+601272732+613328920+624590115+635386749
1549+645369328+654544782+662841440+669133041+675957342+689614400+703292877
1535+713082131+723337817+735259809+745885993+755061794+762823742+768981632
1522+777003379+788302906+799560288+810345000+821091310+831206283+839785892
1508+846590160+856000806+868464091+877885551+884034499+888576754+895142850
1495+903838702+910535114+915570003+921113885+927824784+935024365+941645360
1481+946468695+948962364+949630231+949760823+951944716+956675929+960841933
1468+962455003+963151844+965199252+966318509+964019551+958412105+957410964
1454+962916583+965637403+964541020+961831915+958572642+954464933+949085401
1441+942877396+936289604+931124676+929085447+928138373+926456818+923283776
1427+918890413+916603654+917814409+918344266+919594116+927481943+936836720
1414+942553825+945325316+946608091+949391712+954497027+958171784+959053839
1400+960242344+964308879+969906412+973713841+975498954+976890557+977534232
1387+975952771+974186927+975234165+978925141+983868879+987823468+989447836
1373+990626636+993444153+996642634+997995628+997266762+996596677+998098494
1360+999747330+998433016+994242959+990269863+988766938+988707603+989799549
1346+990334050+987312811+982447055+978274535+975112444+973569731+972911153
1333+970209465+965831420+963189691+962945349+964521334+967026926+968976181
1319+971574380+976474241+981011159+982330741+982641142+985610185+991331310
1306+995783315+997009251+997861084+998512522+997880215+997974209+998753883
1292+999498067+1003018595+1010046964+1017398973+1023772992+1029504098
1281+1034200237+1038144913+1041613037+1043833459+1044681134+1045511964
1269+1047319675+1050400942+1054500055+1056967384+1055416838+1052541719
1258+1052501793+1055439921+1059546937+1063270215+1064804957+1064401256
1246+1064101253+1065020046+1067867369+1071180085+1071738708+1071065504
1234+1072117108+1072815405+1072268427+1072564964+1073071253+1072632755
1223+1071174401+1068227886+1065454732+1064851399+1064195593+1061571262
1211+1059888668+1060766634+1061865928+1062424066+1063167002+1062579127
1200+1060049621+1058826736+1060162330+1059597191+1055372476+1051805160
1188+1050608822+1050133726+1049983100+1049994676+1049026252+1046958534
1177+1045679364+1046851440+1049514935+1050156877+1047875387+1045875391
1165+1044678361+1042823515+1040870308+1039546844+1039214193+1039591484
1153+1039591345+1038017440+1034106659+1030444796+1030318085+1031809365
1142+1031514006+1029780949+1028486113+1027960138+1027729521+1027967555
1130+1027423765+1024807336+1021315367+1019234757+1021145472+1025221919
1119+1025942744+1022368011+1017539963+1015043382+1016638568+1019111650
1107+1018764096+1017879129+1018806864+1019391898+1019309827+1020224391
1096+1021595892+1021044824+1017728504+1014689243+1014461122+1017862008
1084+1024548438+1030724697+1033639257+1034419347+1035030651+1036982125
1072+1038084330+1035954851+1034111928+1034530323+1034825543+1035331763
1061+1038387938+1043720889+1047657247+1047642691+1046905646+1049061673
1049+1050984311+1047545716+1041056631+1037905978+1039677298+1042393335
1038+1042703943+1044148989+1050627954+1056303538+1054117981+1047917323
1026+1042284300+1036745755+1034839822+1036646909+1034363131+1028886001
1015+1027505420+1030052463+1032432037+1032997592+1030868667+1026341454
1003+1023666244+1026827849+1033823015+1036816597+1033459519+1030763791
991+1031421607+1033682788+1036591733+1038533572+1041445983+1046813870
980+1050244494+1051210630+1053621743+1054710570+1051259291+1048551086
968+1049989616+1052966492+1056427337+1060687127+1064197326+1065130260
957+1063320331+1060899167+1060352397+1062211055+1065825160+1070429801
945+1073741823+1072667275+1068128832+1063542144+1060593480+1060543156
934+1063017625+1065680635+1067848446+1070387933+1072432291+1071190621
922+1067176212+1064933816+1065621022+1065560786+1064392037+1064031105
910+1062646780+1061393603+1061974339+1061567034+1061770686+1064640884
899+1067048670+1067598282+1066550975+1063266749+1059126184+1058083661
887+1060130861+1060856260+1060196296+1059505069+1058112496+1057638023
876+1057726194+1055749420+1052218911+1048810053+1046135052+1044032190
864+1041308667+1037550592+1035193684+1035982647+1037730261+1036983373
853+1033836532+1034256592+1040285344+1042507777+1036145472+1029549362
841+1027453086+1027098877+1027030670+1027763971+1029247834+1031467495
829+1033313191+1032089889+1028633203+1026946519+1027338713+1028965646
818+1031917707+1034748532+1035367808+1031008133+1023956750+1020834725
806+1021171466+1020726383+1019432448+1018298704+1016817544+1013845936
795+1010380932+1010733754+1015253273+1017464685+1014175814+1009275053
783+1006489214+1006032000+1006360423+1004662510+998874425+992542897+989094459
770+987474042+987347123+987176604+983191031+975868898+970298051+968433639
756+968220768+969608766+970082684+965701313+960037513+956653886+953308176
743+948796281+945617416+945644935+947875201+949596751+948711438+945872918
729+941252265+933855339+926839239+924546172+925708267+925028201+920943436
716+916747071+913602656+912415538+916917382+925418454+931461001+933503279
702+933034560+933389253+938435025+943052004+940291951+935788028+934636677
689+933864350+934559943+938199903+940325431+938405289+934305759+931437156
675+931811743+936165665+943805546+947499920+939505899+933795103+935791771
662+935863791+931266359+928971144+930401910+930983408+930417229+930882137
648+930813790+928253716+925662172+924911679+920542646+913453902+916089948
635+928838472+933023053+909732010+874620803+863763170+877908426+889481892
621+899629722+915627398+918513191+909501116+906450903+909750587+914573922
608+918113442+917645831+913241169+904560290+895039499
##END=
