##TITLE=Sample description
##JCAMP-DX=4.24
##DATA TYPE=INFRARED SPECTRUM
##DATE=12/9/2023
##SAMPLING PROCEDURE=Instrument type and / or accessory
##ORIGIN=Default
##XUNITS=1/CM
##YUNITS=ABSORBANCE
##RESOLUTION=4
##FIRSTX=4397.6552
##LASTX=599.8556
##DELTAX=-1.9287962
##MAXY=1.7461022
##MINY=0.119621
##XFACTOR=1
##YFACTOR=1.6261844e-009
##NPOINTS=1970
##FIRSTY=0.14313415
##XYDATA=(X++(Y..Y))
4398+88018398+87371985+86356392+85455213+85073691+85311670+85625530+85889716
4382+86474928+86994394+87144781+87219975+87887785+89192066+89705695+89037042
4367+88506910+88792364+89358801+89478702+89084123+88333395+87339162+86783831
4351+87287041+88529131+89667163+89741221+88907657+88795187+89509967+89410500
4336+88597462+88475050+88648254+88012470+87437905+88153730+89450168+90077173
4321+90074452+89981555+89840230+89648598+89427965+89442965+90034088+90276868
4305+89354998+88626188+89268213+90322978+90600680+90126829+89706382+89773145
4290+90076101+90499087+90875990+91107473+91281181+91040847+90469764+90158635
4274+90059617+90165022+90623588+90743654+90317178+90143021+90035426+89698721
4259+90025969+91000217+91421516+90819710+89868068+89716406+90442330+90831145
4243+90685147+90765793+90856216+90258963+89245424+89108341+90175999+91091950
4228+91316111+91562301+91910120+91863708+91509740+91400807+91556739+91523146
4212+91209561+91212181+91763810+92054982+91859933+91654052+91371421+91087524
4197+91168308+91430230+91462852+91422863+91718938+92087099+91933724+91543259
4182+91599174+91792922+91622622+91420664+91753346+92486095+92681200+92415126
4166+92560620+92557963+91920474+91545532+91649113+91778728+92191432+92620988
4151+92338338+91974134+92359688+93066542+93376985+93400653+93550061+93535097
4135+93080819+92604485+92483172+92332629+91832590+91577154+91842083+92422191
4120+93128624+93441687+93306299+93153172+93028680+92562444+91703864+91246012
4104+91804706+92830094+93328529+93399407+93610282+93483480+93101390+93352235
4089+93643260+93276656+93103196+93287469+93221044+93237108+93492699+93661587
4074+93489757+92645664+91790695+91897704+92607160+92997781+92589100+91866530
4058+91733892+92095410+92427854+92799855+93261830+93488630+93512913+93614506
4043+93780517+94120666+94461741+94265602+93783165+93518227+93347562+93167723
4027+93100245+93144568+93236457+93199941+92955392+92776351+92956565+93483544
4012+93714083+93387962+93426915+93950908+94038545+93732941+93623348+93502091
3996+93108474+92875030+92969210+93189788+93590782+93925095+93823309+93604811
3981+93534034+93316947+92895657+92529264+92523821+92954806+93499241+94114554
3966+94534709+94259957+93921521+93942294+93747593+93227431+92684104+92205058
3950+91844438+92032202+92222477+91745465+92032230+93279863+93925525+93606800
3935+92299953+91117681+91965301+93127790+92118337+90931474+91388675+91288127
3919+90398071+91324202+93861135+94950922+94041670+92482403+89271704+84151078
3904+81279283+82951093+86961021+91168537+92470481+89555151+87273141+89381397
3888+90085979+88410989+88779114+88332332+87803895+90400032+90312449+86922288
3873+84267397+83163654+85284153+87124292+86401219+88146693+91756379+91563134
3858+85377673+75258989+73559309+85371662+93695775+95086383+92235947+87590529
3842+83095571+79924686+81056689+85643820+88354232+89607739+91136649+91489379
3827+90629673+87715735+82306980+81812283+85667012+87455169+91645027+96250466
3811+95596823+90856509+87763449+87629711+84783829+83819075+88680911+91899316
3796+94289866+97258618+98072023+97545254+96871351+96197585+96168876+95196012
3780+93596747+95273598+98504291+98840500+96010590+93581894+94700280+96988164
3765+98838173+98992803+96208654+94941613+96699979+95579834+89726834+86716124
3750+93051185+98149251+100569755+110452558+121158717+124385845+123563992
3736+124469607+130963385+141422942+149500352+151302556+149621994+148461146
3723+148077013+148054095+147712159+145931131+143052592+143541040+154520952
3709+172111876+187400860+197944407+205730233+214035287+221101814+223555591
3696+221653351+215639536+205495965+197000921+196413812+197156385+193060661
3682+185283943+176089357+165719343+157546057+156785781+156225869+154749044
3669+158937353+163500440+164195913+163452168+162140886+159301904+157197084
3655+157523113+154537977+146977851+145349594+154701175+164241510+168862857
3642+170947316+173169372+175514343+177482045+178266860+175832840+173029540
3628+177874581+184072706+183368894+176855443+169154267+165851001+164588779
3615+161856531+161094862+163682276+168230866+174113482+178484781+179626854
3601+179368193+179391468+179292303+179211795+179304454+177404450+172723891
3588+169975021+171771461+173363835+172826098+171781155+171276003+171163221
3574+170989596+169737142+166165466+162389100+163386394+167457193+169716415
3561+170337923+170817106+170579081+169094651+167809924+167664998+167182570
3547+166266188+166831947+168743459+170073764+169915349+169200156+169081309
3534+169068334+168316268+167144139+166345469+166181263+166628101+167491959
3520+168019195+167996451+167949627+167542485+166438073+165799870+166174098
3507+166099509+165259769+165391005+166411445+166629750+166172228+166040754
3493+166183041+165964350+165640062+166052208+166747608+166784829+166429056
3480+166253855+166089906+165654889+165332488+165584698+165993655+165861978
3466+165281192+164899817+165149021+165854025+166553054+167080015+167341773
3453+167126949+166394053+165591460+165398244+165675249+165915107+166258381
3439+166890335+167519778+167750967+167810254+168154151+168504646+168506406
3426+168311539+168090082+167989671+168230591+168822190+169611367+170475756
3412+171120795+171267206+171218091+171444094+171952802+172459842+172632240
3399+172594084+172731496+172949783+173314023+173930235+174452834+174907919
3385+175346381+175614828+176027743+176712349+177308749+177609231+177655854
3372+177726393+178113431+178783889+179476338+179964026+180364332+180987343
3358+181802507+182495488+183089872+183821156+184469860+184821162+185172152
3345+185925574+187046791+188039521+188678549+189209047+189859767+190453345
3331+190835582+191470816+192324631+192631948+192396288+192368596+192989572
3318+193791028+194022163+193877805+194046684+194593969+195150252+195624268
3304+195821718+195393739+195193265+196280395+198179335+199914363+200940392
3291+201362507+201695024+202220024+202942639+203752800+204586639+205216119
3277+205555930+205833375+206301105+207172898+207861279+207836996+207809818
3264+208113177+208187895+207908525+207419830+206912460+206854364+207027165
3250+206791853+206223290+205657294+205311838+205217457+205121554+204928356
3237+204996311+205591501+206078327+205607757+204589242+204099245+204075567
3223+203808495+203418451+203192247+202822032+202285523+201934423+201666728
3210+201362452+201209481+201030046+200566769+200106846+199855443+199343840
3196+198242397+196989686+196075192+195524645+195230266+194911384+194104540
3183+192892570+191683202+190694046+190129790+189816150+189283068+188600239
3169+188355269+188522004+188244521+187367780+186701262+186615842+186775137
3156+186825131+186662923+186366125+185983339+185527136+185210711+185147832
3142+185005288+184572837+184062535+183441302+182590108+181936236+181718315
3129+181451407+180767772+179914746+179225155+178620251+177800157+176764964
3115+175832034+175164417+174576813+173629386+172199055+170737863+169495159
3102+168398151+167381779+166240880+165060156+164348390+164008103+163400340
3088+162548266+161875188+161262458+160519721+160049663+159946742+159691783
3075+159372846+159223265+158881805+158462824+158416275+158418895+158061601
3061+157713104+157760093+158072322+158288539+158240303+158159795+158164083
3047+158192013+158284452+158285955+158055645+157731064+157261886+156475311
3034+155626152+155110681+154858985+154450999+153848166+153412105+153107692
3020+152816630+152684221+152544398+152241003+152051964+152050645+151737527
3007+151009670+150498360+150212448+149676800+149116915+148780559+148462896
2993+148383148+148894816+149635904+150199821+150615109+150824637+150733939
2980+150520700+150538688+150861748+151049943+150765735+150232809+149903142
2966+149861797+149744196+149372185+148849348+148197262+147642619+147510008
2953+147541429+147426613+147494137+147873002+148033588+147692898+147357476
2939+147518081+147765187+147485038+146800386+146244424+146056522+145992690
2926+145841112+145571996+144994801+144071932+143124350+142477615+142238033
2912+142294872+142636717+143291763+143864329+144063740+144173241+144353611
2899+144417186+144234782+143979667+144034803+144358834+144483711+144341259
2885+144265653+144356287+144426184+144399638+144485672+144763768+144917179
2872+144803683+144544033+144162777+143861388+143716736+143402638+142980019
2858+142814210+142837393+142708227+142253299+141602789+140997207+140562777
2845+140313673+140230480+140351554+140666395+141058940+141455380+141789665
2831+141986419+142074533+142093061+141984907+141773831+141645426+141724083
2818+141894658+141926482+141767847+141591509+141618697+141906927+142231087
2804+142429719+142618583+142848856+143090895+143356290+143540985+143606282
2791+143653079+143680450+143613531+143410482+143211071+143225549+143430064
2777+143649286+143668180+143445366+143207369+143035191+142872094+142815273
2764+142879947+142951494+143048762+143130938+143142585+143219996+143355447
2750+143524830+143815810+144055768+144088151+144029809+143992661+143963787
2737+143866922+143807489+144015395+144385893+144580521+144485562+144314942
2723+144337456+144509442+144613591+144612033+144597482+144677010+144861586
2710+145013494+145101947+145222893+145302119+145297235+145424137+145631309
2696+145600365+145472794+145604864+145892618+146034658+146030590+146021463
2683+145976306+145871726+145775438+145705468+145685464+145624556+145413224
2669+145233972+145239012+145281657+145226211+145088102+144864601+144573493
2656+144360877+144260595+144119334+143956933+143939605+143997325+143958876
2642+143816680+143662976+143596001+143537201+143310630+142938070+142562596
2629+142315810+142205439+142049086+141791992+141659061+141729096+141723708
2615+141433892+141010567+140697642+140547767+140466352+140333814+140119091
2602+139925508+139796086+139686191+139641529+139691992+139716164+139640485
2588+139533605+139409259+139248810+139087876+138917989+138785066+138764559
2575+138747891+138573853+138224742+137869390+137744770+137815355+137763509
2561+137440330+137069950+136851379+136712409+136626402+136578616+136401371
2548+136126024+135946800+135835017+135701362+135614485+135583888+135520158
2534+135454934+135467542+135484036+135362742+135153407+135052483+135057211
2521+135019120+134966000+134951935+134870922+134696160+134541155+134511621
2507+134607203+134667085+134596400+134515021+134518631+134563284+134646844
2494+134803169+134963709+135132708+135385522+135627185+135816434+136093558
2480+136384135+136475740+136457862+136471232+136442312+136353392+136276613
2467+136276054+136404395+136615141+136817585+136945174+136968357+136992649
2453+137093088+137189843+137294130+137482893+137758341+138091655+138381250
2440+138566742+138731782+138940540+139151286+139267238+139274449+139277051
2426+139365422+139574573+139839044+140070141+140271037+140416045+140504636
2413+140601959+140760108+141050950+141428944+141769121+142040033+142235100
2399+142460874+142927495+143724177+145330452+149424379+158716591+176089962
2386+203322970+239819197+282980968+330488162+381859927+437430300+497183961
2372+560701892+625689318+686668144+738235563+775291373+793760193+797659713
2359+789742797+760387870+709071671+645615097+586249959+555112593+564188662
2345+605439708+640756367+643063824+630689529+620213643+614469008+613119882
2332+613976794+611824599+604004338+590553395+571863117+549967602+526646942
2318+501041073+475172842+456743387+447915826+438702125+418529230+388137021
2305+357430292+334689043+318695221+304144834+289261930+273690607+256841779
2291+239878869+224499609+210915762+199193800+190534642+185540057+183017978
2278+181333201+179816919+178438104+177077872+175715459+174549360+173595684
2264+172645765+171548812+170266632+168851861+167437547+166127328+164934766
2251+163826689+162748905+161682411+160729908+159990780+159436971+158930920
2237+158329260+157699139+157230328+156996280+156900084+156808579+156702652
2224+156554702+156409556+156388517+156397332+156338834+156287703+156300586
2210+156396837+156555857+156739030+156912766+156982791+156945607+156990983
2197+157200419+157440460+157629333+157728938+157726097+157772903+157923529
2183+158065816+158231800+158463612+158676163+158797430+158783941+158712486
2170+158762646+158958355+159180308+159353219+159464827+159523252+159570755
2156+159675197+159819629+159937267+160024739+160090568+160198072+160391417
2143+160557602+160619765+160617548+160661825+160844650+161043860+161165951
2129+161329314+161498962+161543148+161585445+161762571+161968305+162094758
2116+162199238+162369253+162618182+162878730+163092601+163301414+163537001
2102+163815968+164187190+164631535+165123987+165669220+166281564+167077981
2089+168170737+169556186+171252343+173326137+175780133+178533273+181328399
2075+183810105+185889983+187641359+188952805+189731060+190220452+190688804
2062+191057919+191330380+191689195+192058988+192378438+192819924+193463918
2048+194251611+195075865+195806727+196451436+197136922+197840991+198437263
2035+198913038+199315488+199616740+199745740+199691824+199483195+199171460
2021+198684891+197819970+196762364+195917364+195124467+194044301+192865832
2008+191910634+191135202+190347454+189493621+188655347+187979905+187386950
1994+186551077+185803904+185835957+186375178+186855224+187168992+187412643
1981+187734531+188144862+188616825+189174575+189843328+190377638+190494891
1967+190837634+192064651+193539442+194692236+195763165+196855939+197960223
1954+199226238+200633569+201995927+203106515+203688804+203985511+205350288
1940+208093091+210609214+212264998+213577178+214866065+216194610+217414131
1927+218085689+218017221+218046616+218446391+218632937+219436647+221009577
1913+221714709+221230833+220710121+220753445+220821107+220457050+219784137
1900+218823790+217395145+215786222+214434713+212754683+210803219+209984463
1886+209923106+209445718+208718118+208028032+207401063+206826142+206187773
1873+204797889+202099912+200221314+201855858+204987312+206891567+207734624
1859+208464130+209388191+210432144+211527465+212418227+212625078+211766425
1846+210392760+211413364+215412306+218505091+219595465+220117258+220022070
1832+217954232+215285962+214972231+215823901+216660287+218076507+219002858
1819+218901769+218483338+217751156+216222063+214823016+214954454+215847176
1805+215920849+214634161+213022837+212953251+213905883+213334975+211151442
1792+211388880+215314882+218363042+219013341+218907762+218790600+219170491
1778+220080000+219406940+216126344+213625010+215950464+220610572+224208363
1765+225262652+224463029+224779858+226041200+227008126+228022665+227184427
1751+224261052+223398496+226005866+228916138+230253169+230435628+231186686
1738+231796464+229681289+228598503+233259087+238639262+242612986+245061356
1724+245928769+245463953+242065957+236671286+236472314+243050422+249554637
1711+252948967+252846595+250846511+249919939+248690944+245482756+245290621
1697+249594662+256726725+264219107+267511634+267658649+265595649+260707120
1684+260526695+269186166+276607568+279196356+279371576+280860240+282319894
1670+283602220+289628204+296765692+299888900+302791456+308776095+313531684
1657+312662017+306767562+308160324+319820031+325207078+329060232+340266797
1643+351848103+358297870+360064218+358992042+363352071+376399023+386736874
1630+391796390+395496700+399137522+402645477+407693448+411204591+410373043
1616+410518996+414796079+417843451+418381555+418885278+420482655+422242442
1603+424244103+427447141+431448006+435389127+439732736+444982041+450486452
1589+455973563+461996798+469081872+477283582+485493869+490995604+493798171
1576+500318421+510553020+517213799+522954036+532940860+543941141+552628101
1562+556458677+554813870+562283399+583798089+602507463+617283377+630052572
1549+641741308+650234044+654437417+656387800+661864794+680903570+701352829
1535+712469997+721641254+734395348+745701499+753783647+760604783+766224797
1522+773505269+784913609+797014033+809955717+823225007+832282199+835090630
1508+835103019+845856296+867068525+880723331+886391875+889045703+894630018
1495+904394761+910910503+911807624+913810934+921774252+930472758+936055973
1481+939367431+942068835+944969705+946750018+947120067+950856554+958211798
1468+962908522+962542798+960315538+959122261+956493503+950006863+946594462
1454+951475478+957173417+958532000+955794602+953962975+953006330+949477446
1441+944584921+939012409+932135048+928160976+926927307+922828981+917129942
1427+914393204+914139785+915595205+917770125+919856271+925847654+935353480
1414+942569882+946298892+948313931+949707187+952173719+956376213+959616344
1400+960454599+961625298+964516346+968659608+974315030+977948521+976602254
1387+973092943+972215982+974088001+976465172+979317367+982629411+985561143
1373+988643959+991311276+992749250+993984018+993926546+990812648+988865711
1360+991307904+993298093+992192856+990510480+988903243+986497116+984482517
1346+983646680+982866557+980686212+977010276+974241064+973103059+971200472
1333+968509331+967229479+968207823+969073641+967714692+967086605+968936705
1319+970436109+971007237+972325721+974976398+978696977+981295679+982097355
1306+984740774+990016030+993788584+995130892+996786731+998496377+999102985
1292+1000389801+1003017239+1006309345+1011135161+1017810344+1024573054
1281+1029409646+1032882964+1037167488+1041833056+1044164778+1044614364
1269+1045897002+1047926116+1049681504+1049816314+1048039740+1048264130
1258+1052231531+1056780323+1059788294+1061845484+1062922937+1063065884
1246+1064477321+1067932239+1071034628+1071867239+1071745330+1072723967
1234+1073741823+1072406698+1069921767+1069634041+1071313411+1072098593
1223+1070667510+1067978861+1066208225+1066442511+1066816006+1065393941
1211+1064453276+1065935453+1066587804+1064047380+1060797060+1059159181
1200+1058506170+1058000724+1058019270+1057597100+1055297120+1052867609
1188+1051383453+1048922859+1046191326+1045559720+1046054610+1044850997
1177+1041465499+1038419556+1037256775+1036685866+1035275530+1033219439
1165+1031118705+1029259002+1028516338+1028412536+1026430485+1023141092
1153+1021151710+1020202543+1019326901+1018060904+1016306835+1014778695
1142+1013540701+1012188423+1010006539+1007568891+1006517901+1005982399
1130+1004516350+1003647746+1005397856+1008291469+1009401397+1007265257
1119+1002870041+1000234172+1000060143+998230496+994155261+991564769+992331844
1105+995217980+998552896+1000522925+1000415971+1001805929+1007122676+1010874264
1092+1009540752+1009174588+1011983093+1014655248+1017331288+1019238274
1080+1019089756+1018638996+1019697830+1024841941+1031619680+1032225335
1069+1028867914+1029213552+1031780220+1031967371+1031209165+1031831314
1057+1033380273+1037088757+1042375302+1044968800+1044008929+1041564463
1045+1040108676+1041104393+1042023286+1040453655+1039028217+1040233077
1034+1040482464+1036779258+1033507899+1034013565+1033281676+1026931313
1022+1020909434+1022239647+1027826234+1030265202+1030013249+1031474240
1011+1033506873+1034211271+1033233954+1029514034+1025934276+1025375317
999+1026349482+1029268459+1033848626+1035568754+1034441086+1035187269
988+1038884977+1042857730+1044606227+1044988885+1046576770+1048784457
976+1050548642+1052957262+1054807875+1053809299+1052050905+1052427992
964+1053038339+1052035511+1051975913+1054166300+1056082009+1055602001
953+1054262111+1054909624+1057487068+1060258846+1061325230+1060052416
941+1058502284+1057569024+1057134392+1058102326+1059555327+1059396546
930+1058244833+1058464385+1059245829+1058151588+1055200723+1051633280
918+1049658853+1049998553+1050532735+1051137291+1051646842+1050740851
907+1051794260+1055126537+1054916442+1053167431+1054703487+1057586324
895+1059601290+1058350248+1052148402+1045472193+1042225684+1039611954
883+1036178515+1036031169+1038613598+1038567635+1035773352+1032894693
872+1029991330+1027045890+1024311718+1020982080+1018230021+1018083629
860+1019114386+1020025215+1022543721+1024097664+1019101485+1011898644
849+1009604602+1010743779+1012380265+1014732439+1019497704+1024967295
837+1024598858+1019012784+1014495147+1012003838+1010725159+1010100298
826+1008613210+1007323168+1007952648+1009808833+1010303796+1007997878
814+1007782211+1012129778+1014403808+1012259677+1008483018+1004013983
802+1002110003+1003480241+1002489655+997071086+991918471+989115245+986996477
789+985749760+984773469+982601408+981360409+982459561+982890674+980473918
775+976755171+972569831+967473222+963210763+961419528+960396321+957757520
762+954881354+954233401+954129307+952583134+950286526+947249013+942769642
748+937059680+932832922+932333194+932944787+931084204+926339172+921432059
735+919049757+918721345+918838268+917691760+914345995+909922117+906146924
721+903837488+901256892+896823630+893060973+892024498+892760565+896206979
708+903031414+908768425+910125175+908862477+908150308+909835249+912743816
694+915689843+919386525+921909649+920833075+919859716+922252795+925054628
681+925881741+925039674+923649643+923215084+924760231+928318291+929744755
667+924577112+920080881+919002034+917053704+913193256+911918023+914198943
654+915558039+915968260+917106704+917898117+919097186+919556522+914335293
640+907214848+906801181+911998586+917982273+917678932+904098824+883262656
627+868684192+870097901+883421144+894136594+893720582+882339438+869885826
613+864419974+864953716+871642168+879940935+880612566+877821435+880358853
600+882409006
##END=
