##TITLE=Sample description
##JCAMP-DX=4.24
##DATA TYPE=INFRARED SPECTRUM
##DATE=12/9/2023
##SAMPLING PROCEDURE=Instrument type and / or accessory
##ORIGIN=Default
##XUNITS=1/CM
##YUNITS=ABSORBANCE
##RESOLUTION=4
##FIRSTX=4397.6552
##LASTX=599.8556
##DELTAX=-1.9287962
##MAXY=1.8384537
##MINY=0.20524248
##XFACTOR=1
##YFACTOR=1.7121934e-009
##NPOINTS=1970
##FIRSTY=0.22943649
##XYDATA=(X++(Y..Y))
4398+134001503+134729880+134590511+133516904+132767039+132850318+133139787
4384+132547124+131320284+130867643+131793308+133043089+133555580+133948101
4371+134911929+135535566+135148588+134798190+134974059+134713162+133880505
4357+133158499+132910595+133490621+134539294+135334553+135946407+136213988
4344+135915511+135520135+135161443+134559189+134060692+134206162+134659586
4330+134892347+134702309+134116608+133464773+133203406+133953454+135121801
4317+135079696+133958171+133085542+132818387+133246355+134518354+135403672
4303+135057033+134668350+134824299+134718488+134353268+134827153+135703872
4290+135174758+133654298+133472737+135468501+137744118+138184261+137171140
4276+136321740+136018946+135528081+134880050+134759479+135020994+134887099
4263+134476041+134791036+135682750+136425636+137049812+137034269+136076490
4249+135641638+136351504+136362295+134944513+133833579+133946378+134697348
4236+135611830+136442876+136868965+136809532+136534022+136443242+136908102
4222+137418540+137016906+136014760+135457535+135983621+136942470+136917597
4209+136403504+136581915+136881802+136456079+135798552+136200429+137459739
4195+138012108+137676287+137280189+137029073+136780264+136517939+136095184
4182+135473166+135449311+136569330+137824489+138076466+137427721+136582306
4168+136465739+137140837+137150706+136233413+135783444+136057700+136516364
4155+136898503+136846407+136609477+136714792+136995010+137175501+137268631
4141+137542496+137982231+138012943+137670873+137422177+137121681+136635412
4128+136375367+136686568+137311180+137829746+138215409+138458796+138317478
4114+138033317+138172138+138174766+137421873+136833857+136941669+137044103
4101+136758437+136488236+136765539+137408357+137997496+138442722+138561222
4087+138370427+138179074+138011360+137645635+137211383+137089263+137330814
4074+137765118+137997809+137789556+137517579+137193733+136470195+135849430
4060+136077421+136844353+137282886+137255820+137358150+137788929+137922589
4047+137442534+137068184+137390420+137964651+138003823+137383223+136703721
4033+136319747+136200351+136526903+137157764+137509625+137505386+137603138
4020+138069165+138658904+138896086+138600777+138030898+137554663+137512828
4006+137923059+138176829+138112270+138131765+137898169+137279797+137107765
3993+137530477+137832296+137888952+138171198+138607852+138733506+138649061
3979+138585007+138349452+137744118+137056792+137135154+138029279+138611847
3966+138401444+138027556+138023413+138144480+138129546+137817327+136990441
3952+136185277+135941168+136216207+136237477+135694760+136161840+137547274
3939+137911449+137069559+135543486+134376740+135272719+137020927+137022746
3925+136380693+136889817+136744930+135447222+135684926+137924051+139220628
3912+138692471+137568622+134882156+130351400+127879645+129460643+132914163
3898+136157758+136772849+134306672+132736579+134503481+135039584+133821360
3885+133820202+132682794+131991988+134469774+134478173+131327569+128789044
3871+127953646+130310914+132411044+131843724+133043750+136043532+135979330
3858+130689563+121751730+119871088+130241073+137708879+138421670+135170972
3844+131113536+127802937+125271627+126068079+130342610+133345203+134790287
3831+136175939+136295970+135013370+131870747+126775734+126252277+129828030
3817+131698898+135564329+139646899+138969182+134479478+131142970+130790439
3804+129265296+129562268+133452702+135116622+136222987+138252641+138890777
3790+138640471+138261326+137654251+137407008+136589425+135597592+137138609
3777+139480150+139313698+136525711+134141394+135024797+137031440+138501780
3763+138209074+135055745+133030669+133961434+132732445+127281647+123902729
3750+127843353+129737423+127814320+131397384+136579661+135353709+130123774
3736+127134958+130304700+136995271+141721887+142283019+141344787+141964081
3723+144050800+147356448+151320162+153784372+152555513+149520005+152041986
3709+160444961+168434075+174073667+179655471+188304966+196711335+200641142
3696+200661019+196940188+189876808+185331336+187431780+189267792+186762870
3682+181703592+175366283+167205930+161034239+162530191+163947330+163027461
3669+166174228+170276876+171551791+171439958+170576658+168406452+167147829
3655+167947718+165538981+159236989+157941692+165057289+171870006+174850267
3642+175638355+175708728+175119885+174230094+172845347+169100565+164805425
3628+167447037+173097490+174231417+171378584+168306159+168876011+170759177
3615+170822726+170421745+170181735+170546041+172808255+174886959+174552591
3601+173439951+173358161+173301122+173333427+174304347+174046009+171488311
3588+170872733+174087852+176650824+177303651+177519554+177520581+177357748
3574+177583085+177229362+174623851+171434927+171983110+175120494+177151906
3561+178171998+178939773+179097767+178673950+178524485+178762685+178281516
3547+177426885+177638628+178771458+179842706+180217630+180060367+180091872
3534+180100070+179289720+177956095+177261946+177564861+178475540+179532063
3520+179958543+179735555+179681527+179528442+178737847+178183259+178429083
3507+178418152+177596175+177234984+177979244+178702635+178962697+179113746
3493+178819307+177973309+177583921+177951778+177909534+177210546+177055076
3480+177832756+178558792+178616928+178431259+178374446+178298226+178171110
3466+178127752+178099989+178263727+178841621+179348047+179513978+179667968
3453+179638535+179003897+178383080+178765227+179667916+180254356+180785881
3439+181408056+181797114+181831177+181667805+181656996+181955125+182256039
3426+182274524+182162412+182259189+182683998+183133489+183436022+183937957
3412+184631183+185021998+185103319+185338838+185994763+186731748+186886939
3399+186682315+187033393+187948214+188890205+189566635+189727135+189786385
3385+190272184+190742527+190962886+191447659+192363664+193239861+193701014
3372+193940972+194172192+194395232+194769251+195415063+196086131+196526815
3358+197024067+197817882+198735401+199690204+200385866+200631690+200873824
3345+201364080+201867703+202319213+202870720+203487151+204146557+204852298
3331+205395781+205664146+205812514+206350601+207465625+208338393+208571459
3318+208831225+209325049+209570611+209371505+209013830+208858082+208949724
3304+209164931+209599349+210527729+211830093+212998988+213969038+214856254
3291+215697970+216737295+217861405+218848461+219972101+221203866+221801168
3277+221612001+221680876+222663667+223964708+224768410+224993469+225214141
3264+225779834+226383437+226575737+226197367+225598168+225340839+225519006
3250+225913163+226101669+225777780+225457337+225540032+225537857+224970528
3237+224394235+224640703+225001910+224504379+223650148+223204034+223301977
3223+223719755+224086532+223945579+223270090+222777223+222823749+222837082
3210+222553035+222390916+222134579+221273977+220086632+219041928+218383218
3196+218135740+218191892+218315770+218053950+217334684+216424250+215347205
3183+214199580+213532254+213493473+213166590+212090956+211103796+210875151
3169+211213140+211610204+211587506+211040699+210404129+210032791+210012774
3156+210437131+210848381+210576309+210012931+209843258+209896450+209831979
3142+209533763+208947305+208316305+207868886+207424460+206789196+206086240
3129+205594452+205344660+204962635+204281332+203636668+203165228+202558475
3115+201741371+201069537+200538569+199714833+198586284+197380802+196109821
3102+194888429+193826719+192726769+191449434+190369449+189907861+189742852
3088+189409442+189014414+188651535+188248623+187888007+187592837+187300278
3075+187018633+186830196+186721705+186502581+186332090+186545661+186723985
3061+186399608+186174288+186579986+186954909+186876269+186805880+186739476
3047+186573476+186567070+186414455+185940753+185595523+185413336+185078933
3034+184598964+184273908+184179812+183984570+183620577+183261127+182811619
3020+182368255+182228833+182319466+182397810+182296177+181869557+181131215
3007+180356303+179884132+179670022+179439724+179265473+179186885+179079230
2993+179331337+180139860+180841911+181062531+181133965+181360538+181728273
2980+181940278+181890549+181960086+182254490+182339169+182063059+181726481
2966+181459665+181153147+180816394+180531494+180317314+180209188+180215245
2953+180236985+180256637+180318201+180232477+179941293+179681701+179500088
2939+179368864+179336838+179411056+179509330+179395617+179045967+178766236
2926+178713374+178710798+178446211+177717459+176732179+176003863+175681957
2912+175596633+175814086+176281122+176554499+176461673+176234752+176030337
2899+175911367+175823206+175764322+176022922+176498052+176704504+176679509
2885+176763423+177012397+177287463+177521573+177735074+177832530+177852529
2872+177969480+178040444+178028538+178147995+178282195+178265607+178190187
2858+178091095+177965320+177750461+177309551+176740447+176177348+175754436
2845+175748761+175980382+176051485+176182413+176639806+177132202+177512574
2831+177888420+178105455+178130154+178141468+178104358+177942344+177781879
2818+177739774+177772793+177866576+177998461+178113914+178239498+178394150
2804+178643368+178991017+179304184+179547066+179739280+179873410+180052935
2791+180392577+180623519+180432576+180118729+180026200+180051804+180105362
2777+180170599+180144838+180025399+179944879+179897256+179785214+179808312
2764+180151923+180551493+180680314+180497552+180207726+180098713+180301701
2750+180669279+180936478+181018947+181083819+181323168+181604952+181627685
2737+181473155+181486244+181751789+182049970+182136617+181967535+181798628
2723+181878139+182069882+182203995+182412170+182708158+182873009+182919727
2710+183010830+183189954+183407511+183456387+183374892+183502791+183737197
2696+183805254+183893728+184183920+184481004+184562986+184448577+184355682
2683+184445531+184618198+184686203+184634316+184640634+184727594+184657779
2669+184472388+184431885+184509202+184597711+184647057+184526590+184310252
2656+184219410+184183311+184079919+184045839+184122790+184100180+183920812
2642+183776865+183713838+183654014+183606722+183546184+183486307+183417780
2629+183218517+182975321+182818337+182655766+182436834+182253706+182205248
2615+182233481+182159558+181960817+181780979+181654089+181473033+181244023
2602+181081521+180981176+180888942+180833156+180768980+180652343+180626687
2588+180698556+180659688+180463471+180248821+180159633+180191556+180187657
2575+180107607+180021500+179883680+179665357+179420351+179155903+178908530
2561+178695847+178490248+178333473+178232623+178155027+178060043+177870057
2548+177642057+177506377+177443142+177374197+177278586+177145048+176964392
2534+176837955+176854247+176851949+176679648+176382459+176094548+176004872
2521+176090736+176157940+176121213+175953594+175756977+175682706+175715951
2507+175750902+175692540+175535069+175382488+175343394+175434706+175607077
2494+175802807+175966649+176072251+176180446+176386184+176641842+176866814
2480+177033232+177044441+176909633+176786277+176789688+176867371+176872976
2467+176885769+177053875+177264522+177379001+177416615+177404744+177356373
2453+177332336+177409566+177615513+177827517+177968575+178196662+178552735
2440+178873979+179140255+179408950+179579041+179560608+179448793+179394521
2426+179472569+179673085+179957725+180265079+180489824+180555096+180518944
2413+180527525+180681237+181024186+181448560+181731859+181842804+181942697
2399+182131151+182314662+182396835+182488495+182663303+182805892+182779522
2386+182384251+181261324+179081458+175857096+171906541+167561777+163123525
2372+158652254+154000466+149489197+145658247+142744598+140885009+140322885
2359+141393149+144298200+149126892+155745394+162257423+165226544+163215898
2345+158533337+155254686+154479774+155116500+156279860+157376417+158298392
2332+159233699+160648123+162643661+164660434+166370515+168160297+170484703
2318+173128820+175444384+177150322+178666117+180449024+182382197+184131371
2305+185528250+186598506+187527512+188405415+189193330+189941889+190648675
2291+191206604+191697608+192306311+192958442+193400639+193541871+193516754
2278+193526728+193656176+193820801+193931242+193985618+194048158+194215637
2264+194498084+194842338+195190074+195435445+195569923+195670565+195730128
2251+195777611+195881333+195975569+196032782+196179044+196420447+196633252
2237+196755842+196798852+196864176+196994790+197114874+197244635+197419234
2224+197550910+197589969+197635520+197773236+197951246+198102991+198163024
2210+198104349+198062296+198154321+198337171+198502492+198574100+198575336
2197+198649712+198906275+199194152+199334217+199422396+199546326+199627647
2183+199683607+199827745+200022518+200160825+200260248+200342595+200417772
2170+200537994+200671254+200773897+200911369+201113347+201294299+201407682
2156+201474555+201481013+201472693+201562716+201700624+201781039+201889286
2143+202058315+202141812+202127835+202176989+202344991+202519607+202640701
2129+202771071+202922259+203046972+203136108+203192521+203205715+203200458
2116+203258211+203385796+203487412+203580134+203757500+203960888+204061408
2102+204029033+203927852+203891822+204013785+204167079+204202935+204231899
2089+204334159+204395636+204402964+204416628+204426880+204469664+204602071
2075+204768088+204890435+204962547+204959397+204866188+204790786+204841837
2062+204971773+205104406+205217196+205282347+205291694+205266977+205284853
2048+205388453+205457259+205382970+205286089+205359803+205560824+205727016
2035+205813993+205876272+206000637+206178891+206316538+206347538+206314101
2021+206287522+206209561+206184897+206500553+207011974+207309389+207391424
2008+207487452+207629711+207786312+207946760+208067853+208219876+208326644
1994+208055234+207720013+207978073+208569405+209024970+209331854+209583997
1981+209869193+210130282+210317883+210537981+210801298+210829722+210491246
1967+210339344+210828834+211519971+211956947+212219290+212438256+212650069
1954+212838453+212965656+213077942+213127270+212845903+212309191+212509185
1940+213744833+214819840+215236329+215428491+215684271+216006873+216299728
1927+216330588+215909382+215589061+215593186+215576650+216291721+217750042
1913+218529671+218413608+218385167+218993296+219874366+220573476+221001540
1900+221161657+221043941+221004151+221364715+221459507+221287067+222017855
1886+223245513+224021521+224594124+225148468+225625791+226098119+226461833
1873+225975355+224118646+222782358+224351938+227163936+228942126+229791483
1859+230388803+230981631+231559439+232035944+232294126+232095037+231078339
1846+229569279+229975952+232883299+235138795+235967352+236671022+237141626
1832+236163412+234807612+235413269+237025667+238790699+241100814+242941683
1819+243908304+244646455+245077025+244739211+244582314+245778693+247437461
1805+248181774+247682310+246961339+247684051+249302855+249481179+248144246
1792+248814862+252599451+255634002+256598534+256822131+257058521+257879193
1778+259133325+258853960+256368149+254745725+257207568+261455590+264680596
1765+265724882+265318193+266007293+267557292+268791581+269859313+269360894
1751+267301894+266881437+269154564+271740773+273140767+273646949+274649757
1738+275443067+273835368+273009770+277028660+281762412+285313153+287482071
1724+288367998+288270229+285717232+281415669+281371144+286966229+292590765
1711+295697619+295838955+294335292+293764064+292887362+290248744+290172263
1697+293956852+300095820+306384966+309126192+309284620+307564288+303435809
1684+303290331+310583103+316674413+318683580+318807406+319865547+320643906
1670+321305262+325839403+331129623+333006261+334428778+338243706+341216430
1657+339654874+333701976+332964417+340584107+343466878+344996198+352529137
1643+360514770+364180912+363730307+360597414+361554078+369920066+376652367
1630+379309383+381022509+383024575+385505303+390218899+394554717+396290227
1616+400491567+408559008+414867858+419039607+423383780+428635324+434189243
1603+439903715+445915550+451951127+457663093+463447432+469876626+476592253
1589+483243895+490008850+497092403+504714078+512515034+518226025+521416497
1576+527834065+537910463+544957743+550747756+559588612+569282777+577137900
1562+580756558+580016911+587211966+605481163+621386287+634225807+645305310
1549+655731255+663956532+668723460+671135853+675775718+691601400+709213001
1535+719581645+728585873+740240120+749807465+756730291+764117160+771089141
1522+777662248+786307566+796558476+808319665+819996818+828072613+831589099
1508+833471794+843921341+861833995+873327550+878158462+880372566+885197769
1495+893094493+898718837+901502742+905806184+913446275+920791996+926211298
1481+929893071+932040475+933430374+933403430+933167127+938144527+946646281
1468+952384111+955056131+956888906+957246981+954154782+948512545+948938920
1454+954328702+955487728+952725894+949320458+948949991+950572293+949675470
1441+946005882+940469611+932606795+926133946+923182318+920505146+917430284
1427+914790918+913162976+913273121+913809850+916191121+923803013+932886056
1414+939816889+945548871+950947983+953888263+954301410+956425769+960091180
1400+962227445+963896534+965644717+968154443+972599918+975347897+974969562
1387+974196599+975192706+978292981+982352950+985359372+986057837+986807754
1373+990734185+994899563+995603320+994175964+992105354+989828101+989859571
1360+992496013+995268430+996985978+996391182+992864044+988440152+985629303
1346+983934383+982416795+980614584+976748379+973139641+972520687+971098274
1333+967751948+965942985+965592429+965118361+965751589+967002310+967337757
1319+968838496+972650396+975696086+976676736+978546063+982136072+985119518
1306+987454141+989812784+991679884+993527767+995599421+997126478+997929449
1292+999133452+1001652578+1005196286+1010559124+1018721183+1027294510
1281+1032805437+1035649567+1038506507+1041469344+1043571285+1046087974
1269+1049687173+1052372490+1052071159+1049709591+1048616011+1049751644
1258+1051524543+1053236660+1055106196+1057290989+1059598459+1062333836
1246+1066037818+1069234800+1069454463+1068244681+1069308602+1071862887
1234+1073346987+1073741823+1073489576+1072884825+1072503495+1072449119
1223+1071957645+1070782258+1069522346+1068550051+1069233687+1071425650
1211+1071101622+1067133904+1064146629+1065495937+1069111079+1071404763
1200+1072203347+1072682428+1071994824+1068444153+1063206221+1059534405
1188+1058142696+1058509126+1059173197+1057775709+1055409060+1053677587
1177+1051628769+1049445926+1048698167+1048270747+1046444795+1045220323
1165+1045753293+1046311744+1045557511+1044053777+1043453412+1043579709
1153+1042443311+1038593049+1033743895+1031173457+1031230618+1031142266
1142+1028177339+1024172443+1023532044+1026235951+1026071082+1020371544
1130+1016631566+1018380584+1020027046+1018938827+1017639927+1017956924
1119+1018617374+1017531662+1014403398+1010138736+1007400574+1008448759
1107+1011173066+1012508588+1012750183+1011344410+1007087058+1003592086
1096+1003940622+1005967021+1007232989+1008270522+1011878772+1017820113
1084+1020166363+1017629065+1015301614+1015842103+1020558902+1027374160
1072+1029180756+1025615047+1023866795+1026932606+1031686375+1032660272
1061+1029236386+1029702795+1036683061+1041263119+1041281082+1042922461
1049+1045461360+1045105026+1044383794+1045874716+1046470278+1044262927
1038+1041440520+1040181793+1039573630+1037111456+1035063613+1035648522
1026+1035258281+1033504042+1033313760+1032627757+1030753835+1032323641
1015+1036434156+1036589000+1032353022+1029550528+1030217662+1031056419
1003+1031118802+1031972250+1033234250+1034572279+1037027629+1039076934
991+1038616164+1039032444+1041809735+1042576153+1040639082+1040022981
980+1042680937+1046680890+1050632663+1054418175+1055801946+1054131743
968+1052818221+1054166903+1056560845+1058472921+1057831896+1053052784
957+1051650422+1058291482+1064324239+1064447751+1063409592+1064523084
945+1065540565+1064058624+1061679373+1059710205+1059195198+1060631953
934+1060509485+1057835307+1056697029+1058442078+1059759498+1058877923
922+1057967035+1059178279+1062424625+1065471220+1065203030+1062214292
910+1061142783+1062630363+1063154212+1062220558+1060074198+1057351005
899+1058177995+1063192505+1064574745+1059495972+1057271216+1059652765
887+1058302482+1054565568+1054963259+1058224574+1060952013+1061376997
876+1056571845+1048173762+1041592578+1037353398+1034279859+1032923032
864+1033595527+1035643997+1035599020+1031913766+1028501577+1026467937
853+1024654935+1025116401+1025876135+1022835946+1020265646+1022902854
841+1028047560+1030731137+1029740949+1027855817+1026054999+1023894226
829+1022761936+1023609117+1025741344+1025740996+1022686881+1020551591
818+1018729886+1015364832+1014449767+1018595443+1022984662+1021046616
806+1014695748+1010563998+1009669333+1010224234+1011507190+1010639052
795+1007289733+1006624339+1007602970+1003038995+995884252+994790045+997126200
781+994971346+988820855+984422376+984695301+986848972+987425386+987926468
768+988424139+984725378+978606845+974700257+970430234+962937398+952454501
754+943303994+943465242+951025613+957171369+959377119+958328098+954577955
741+949066401+943346394+938846613+936144725+935979786+935997540+931167672
727+922674900+917393523+916280030+915165702+912883645+909749394+907775352
714+907839128+906704052+906633036+911356031+916275365+917729387+918050979
700+918142604+916197317+912532115+910504951+912110961+915140220+916140783
687+914672488+912344827+911190048+911625754+911453574+910311675+909990849
673+909699543+905239447+899234818+907510295+923361669+927502122+921820756
660+913600352+909058378+909230001+910535376+913450034+915794126+911571795
646+904630657+902798161+909710126+920711929+925761390+923858295+920580270
633+912180794+882703290+848364867+850146538+887094877+910408940+903947997
619+896936121+899825228+904598422+905036076+901732848+899611692+903360303
606+909526877+911548750+907393118+903765165
##END=
