##TITLE=Sample description
##JCAMP-DX=4.24
##DATA TYPE=INFRARED SPECTRUM
##DATE=12/9/2023
##SAMPLING PROCEDURE=Instrument type and / or accessory
##ORIGIN=Default
##XUNITS=1/CM
##YUNITS=ABSORBANCE
##RESOLUTION=4
##FIRSTX=4397.6552
##LASTX=599.8556
##DELTAX=-1.9287962
##MAXY=1.8942816
##MINY=0.25449973
##XFACTOR=1
##YFACTOR=1.7641872e-009
##NPOINTS=1970
##FIRSTY=0.27070931
##XYDATA=(X++(Y..Y))
4398+153447038+154013982+153862908+152989864+151842681+151475360+151666825
4384+151029167+150151477+150623432+151797559+152137294+152430437+153772869
4371+154470564+153263175+152361784+153496956+155100198+155407717+154884610
4357+154586855+154417335+154122451+154138922+154316771+154226765+154155781
4344+154100964+154003356+154005231+153616744+153259289+153838396+154367095
4330+153868027+152960690+152751724+153550997+154103987+154023965+154553424
4317+155402177+155323185+154416422+153285828+152567371+153001300+154094105
4303+154832597+155247032+155248485+154793574+154785702+155248738+155222419
4290+155016865+155575464+156217684+156113184+156082152+156236435+155717838
4276+154959835+154573662+154464331+154762947+155189123+155233906+155285632
4263+155792404+156398168+156647542+156361949+155661112+155184207+155209986
4249+155549720+156124705+156411936+156366815+156434369+156138861+155418394
4236+155212232+155771440+156074567+155670369+155763415+156809258+157722237
4222+157581046+156499306+155729140+155995913+156669232+157470802+158525412
4209+159068504+158643257+158164900+157910661+157157405+156427967+156808700
4195+157661406+157952809+158239195+158792811+158448043+157124683+156333417
4182+156614803+157278324+157813324+157725548+156913318+156332167+156541437
4168+157125240+157679498+157764622+157505213+157678636+157926524+157816905
4155+157766277+157504909+157065693+157013983+157233490+157412116+157487442
4141+157966154+158701014+158602140+158027966+157859138+157740532+157227679
4128+156639720+156698947+157353751+157741039+157621234+157530181+157530418
4114+157257918+157188386+157370560+156783564+155832170+155925453+156881627
4101+157517647+157840589+158397026+158547154+157786109+156902912+156799781
4087+157315404+157535384+157406271+157528762+157804911+157889106+157822531
4074+157890913+158184428+158288033+157914259+157373854+157029981+157004591
4060+157449332+158398192+159378793+159579667+158703700+157566569+156993357
4047+156934908+157279152+157980598+158603745+158459243+157536246+157083211
4033+157673771+158283438+158391738+158464581+158592342+158624557+158714799
4020+158738905+158417095+158042713+158121519+158634676+159199154+159841947
4006+160434315+160280184+159671514+159424134+159153593+158321396+157474705
3993+157486243+158238334+158796375+158973802+159192211+159318536+159160891
3979+158954105+158881972+158937955+159066291+159264141+159392257+159348808
3966+159153306+158739378+158628223+158818522+158423531+157919108+157984618
3952+158045754+157931541+158113157+158165373+157963789+158786138+160112454
3939+160171546+159083353+157767747+157083109+157711189+158728499+158452485
3925+157710243+157989602+157707169+156503191+156740081+158621466+159802485
3912+159487398+158505023+156132661+152123306+149909705+151396504+154781107
3898+158242624+159093117+156584784+154935408+157038259+157897147+156237279
3885+155791981+155321800+155334791+157413248+156996432+154312700+152326207
3871+151363343+153180653+154664850+153885393+155480425+158596869+158070705
3858+152735490+144933060+144258913+153835170+159964877+160581943+158366500
3844+154995631+151743249+149574177+150606049+154168755+156005120+156524274
3831+157758219+158623087+158341516+156078283+151860249+151607497+154626436
3817+155480830+157959836+161240785+160659042+156601829+153669230+153729910
3804+152397479+152453023+156372322+158617040+160127168+162070195+162562100
3790+162250206+161801141+161147248+160926390+160225079+159016136+160003647
3777+162348050+162884131+160980853+159046678+159565241+160952017+162260595
3763+162318994+159616308+157722389+158556512+157544456+152672158+149607034
3750+153514812+155847728+154319406+157003256+161217591+160037399+155311580
3736+152799615+155960117+161922939+165956772+166417189+165899420+167329679
3723+170098010+173271334+176349736+178029097+177139042+175589097+179283551
3709+187743083+195337932+200592906+206243259+215591343+224800347+229561236
3696+230798982+229226790+225609773+224615403+228858946+232192972+231211914
3682+227361420+222174254+215643103+211189885+214118633+217035656+217434178
3669+221455037+226606845+229207582+230336048+230673113+229732193+229412004
3655+230829390+229428576+224951185+225917647+234995866+243259204+247234959
3642+248657970+249730132+251078577+252072339+251841716+249357963+246917979
3628+251145541+257581315+259377728+257579913+255860785+257276481+259410838
3615+259936597+260695597+262175031+263956933+266812162+269403540+270239538
3601+270562362+271531815+272243498+272687580+273895628+274667517+273919633
3588+274709159+278410555+281145388+282106969+282917121+283649683+284050249
3574+284502642+284540584+282970452+280850691+282185994+286168185+288555598
3561+289282400+290021838+290754519+290815706+290652452+291043186+291331076
3547+291240056+291935978+293080644+293114059+292441077+292761401+294073105
3534+294883730+294761999+294242372+293543173+292644198+292006219+292223158
3520+292939487+293361540+293215822+292627305+292002638+291890975+292213023
3507+292040242+291007981+289969808+289503326+289357709+289453391+289628368
3493+289483832+289036980+288608338+288403663+288018402+286814645+285249310
3480+284414157+284395913+284513825+284676572+285046257+284994463+284120557
3466+282732717+281134053+280186038+280449838+280807918+280417590+279768157
3453+279145095+278255951+277278491+277178080+277770904+277822867+277519824
3439+277306128+276834190+276202833+275848081+276015997+276258174+275740338
3426+274522779+273353837+272799056+272932443+273434096+274008203+274359018
3412+274357583+274139900+273597045+272869263+272609146+272867219+273067874
3399+273179570+273516280+273839695+273963622+273868464+273525047+273544761
3385+273987948+274074947+273989468+274318442+274610183+274201103+273515233
3372+273247783+273308176+273446107+273674668+274015044+274311059+274432114
3358+274509332+274547459+274545736+274824588+275112005+274591432+273732560
3345+273676290+274002476+273735770+273048565+272606747+272640955+272783396
3331+272887406+273388789+274050334+274213672+274213435+274619406+275053504
3318+274664899+273581284+273010117+273160869+273170650+273061640+273153977
3304+272824717+271745865+271056261+271904811+273777631+275570952+276990686
3291+277881468+278072257+278156131+278659084+279480673+280572819+281666941
3277+282357626+282724170+282899586+282704979+282077828+281366872+281143564
3264+281583135+281946182+281652667+280783018+279422984+278280513+277836212
3250+277778100+278115132+278457535+278197164+277333985+276209387+275525814
3237+275646295+276014308+275786337+274975510+274275686+274200056+274734498
3223+274904678+274220412+273402979+272786657+272406413+272325716+272219865
3210+271948935+271843439+271957449+271913105+271492015+270723572+269674418
3196+268511592+267820738+268000192+268369371+268130724+267300672+266095766
3183+264648040+263334782+262600818+262563569+262889450+263018073+262889349
3169+262757179+262258820+261134070+260073768+259594413+259231502+258553132
3156+257939394+257878546+258112007+257972116+257322954+256668960+256390396
3142+256166581+255557573+254718619+253742933+252650635+252133238+252324669
3129+252373574+252156094+251921890+251440374+250790890+250078160+249100869
3115+247997000+247120256+246552416+245961281+245055921+244081333+243171681
3102+242063386+240864426+239829074+238865888+238001139+237470463+237128111
3088+236519205+235903085+235689170+235358761+234829927+234559403+234253168
3075+233675953+233132101+232847776+232836373+232914993+232827167+232405806
3061+231673243+231096315+231256916+231899642+232335886+232343994+231978043
3047+231619743+231685575+231968768+231935878+231391350+230907182+230866537
3034+230602551+229989996+229795085+229903318+229735926+229399638+229242584
3020+229208055+228978413+228783265+228871176+228734411+228180001+227629511
3007+227414058+227439702+227286483+227005198+226943674+226883146+226635935
2993+226712139+227405983+228210442+228738499+229182564+229658320+230074072
2980+230464367+230872196+231219178+231138902+230359580+229446347+228935302
2966+228680489+228594520+228477317+227852650+226906425+226381223+226393116
2953+226453778+226441987+226612842+226878231+226911290+226763696+226733171
2939+226853263+226746550+226220250+225708411+225506709+225401652+225209123
2926+224879457+224363867+223816249+223407034+222902239+222215101+221742234
2912+221608982+221549080+221492539+221552644+221725088+221853592+221726051
2899+221476913+221443837+221572071+221756272+222016812+222164051+222108676
2885+222100702+222284683+222411921+222342322+222290866+222318571+222344197
2872+222396261+222388676+222251404+222181484+222340616+222553112+222489663
2858+222100415+221629068+221204582+220713352+220018427+219183409+218662768
2845+218877308+219388894+219565122+219583332+219759188+219992142+220166426
2831+220227207+220142996+220100848+220178099+220165734+220085509+220101253
2818+220178961+220175531+220078515+220088009+220198692+220263256+220289846
2804+220274203+220323699+220538730+220656541+220549170+220548849+220720008
2791+220766143+220595017+220244286+219978627+220153216+220519590+220646456
2777+220585946+220430767+220173859+220053497+220210314+220401846+220409786
2764+220252192+220014592+219824479+219760658+219773445+219858501+219931428
2750+219808059+219571727+219474288+219533599+219587843+219640143+219721027
2737+219747937+219793565+219916563+219991854+219989050+219957376+219916765
2723+219970181+220153976+220359732+220506059+220553663+220578935+220673654
2710+220840708+221053120+221104035+220826332+220490990+220501413+220688384
2696+220613481+220436527+220462796+220581469+220718944+220914463+220966746
2683+220809693+220718521+220631506+220380122+220203354+220156054+219988695
2669+219694606+219472227+219374755+219339871+219284597+219119114+218852003
2656+218595179+218438649+218311648+218198989+218232420+218290143+218123917
2642+217761495+217409903+217263947+217326181+217350321+217219671+217047752
2629+216829545+216535676+216320341+216248664+216182056+216090715+216013667
2615+215862492+215695674+215662766+215653898+215510764+215289753+215104032
2602+214998924+214942316+214821346+214585013+214251141+213915157+213804289
2588+213925293+213968218+213742748+213390665+213153032+213038819+212847286
2575+212526422+212258854+212121836+212024853+211939747+211830753+211613476
2561+211379002+211223823+210967473+210594612+210394768+210404093+210436697
2548+210387099+210213034+209967579+209759610+209668828+209684200+209655111
2534+209532586+209422360+209311221+209155873+209005340+208935184+208974561
2521+208974291+208866666+208817085+208841766+208798554+208673816+208609927
2507+208729546+208942025+209042910+209012114+208985339+208961993+208873778
2494+208813065+208880197+209056239+209253481+209368741+209460352+209630379
2480+209771520+209748917+209587133+209496655+209633623+209760016+209621375
2467+209388861+209378590+209612557+209808178+209772483+209593519+209490590
2453+209567115+209754475+210002598+210218997+210318193+210459299+210750432
2440+211025061+211215276+211418143+211616770+211753806+211791731+211763029
2426+211867597+212127681+212332187+212458343+212566171+212593808+212618623
2413+212762349+212955046+213161005+213404129+213646221+213857654+214068917
2399+214330470+214589000+214764230+214903378+215041815+215097630+214974835
2386+214471915+213238713+211014773+207813087+203997882+199942713+195677666
2372+191185696+186661917+182428933+178677111+175521981+173286909+172542099
2359+173833903+177139092+182045210+188392633+194779097+197864610+195950048
2345+191337125+188219430+187531836+188082986+189264867+190581402+191596617
2332+192413087+193693792+195472163+197080372+198427804+200166764+202648541
2318+205441030+207856873+209612202+211092852+212762619+214530263+216144232
2305+217567007+218766930+219800035+220797952+221687788+222373591+222930687
2291+223486887+224070268+224623157+225131213+225507824+225684491+225781743
2278+225850092+225902122+226034006+226174437+226182782+226165416+226355850
2264+226730586+227054188+227265417+227397013+227507189+227743572+227999770
2251+228111686+228174883+228182687+228187265+228437365+228823335+229022875
2237+229046525+229069347+229157343+229328468+229536775+229684842+229739997
2224+229715182+229700552+229812113+230015758+230226582+230406221+230514742
2210+230579171+230692354+230854037+230940258+230941880+231028085+231211255
2197+231369288+231548100+231766425+231915032+232016238+232137647+232265189
2183+232435250+232671126+232853351+232925957+233028311+233206244+233354902
2170+233483424+233665006+233867772+234035823+234193130+234345234+234459498
2156+234593679+234738181+234781343+234793641+234900286+235064789+235226776
2143+235388458+235568554+235774834+235960808+236027502+236024410+236081002
2129+236161564+236281639+236476026+236614599+236687661+236781434+236876879
2116+236942795+236996194+237087044+237228033+237348564+237375187+237363970
2102+237466291+237697217+237890507+237974465+238062173+238178717+238270682
2089+238328575+238296377+238239734+238336362+238560008+238748398+238822018
2075+238818656+238843624+238937430+238984105+238904083+238860719+238978429
2062+239117053+239240963+239415754+239494830+239435079+239378725+239346577
2048+239368420+239469626+239500219+239443273+239486012+239609043+239705198
2035+239798109+239864397+239932932+240072552+240186545+240184248+240175987
2021+240204891+240125545+240114632+240447423+240854594+241082176+241237320
2008+241375353+241520784+241721979+241885638+241961200+242079485+242093168
1994+241715695+241423768+241792254+242463259+243015354+243380850+243568530
1981+243709215+243934195+244265837+244573999+244772170+244789823+244543726
1967+244443602+244902296+245525713+245882155+246057672+246197546+246398758
1954+246744996+247131473+247361284+247369579+247089105+246598280+246732394
1940+247803052+248774210+249215150+249497651+249816590+250144684+250396575
1927+250368854+249937830+249705502+249911021+250087232+250768085+252038080
1913+252709541+252606156+252671768+253399787+254326973+254983196+255435235
1900+255797065+255945300+256041269+256304732+256169656+255846189+256601220
1886+257973062+258882224+259473105+260015774+260530283+260964313+261218839
1873+260792090+259245827+258201168+259796352+262505812+264183433+264941217
1859+265499090+266156090+266910445+267568239+267931218+267838645+267027023
1846+265754258+266186802+268985980+271279299+272183173+272845664+273254743
1832+272330801+271108815+271837341+273614867+275517604+277795804+279506316
1819+280334290+280993791+281510276+281401232+281400979+282552537+284090420
1805+284795228+284468079+284052209+284844420+286295153+286458778+285322187
1792+286040509+289545390+292321779+293277853+293632098+293945563+294740208
1778+296012044+295969507+293842787+292328199+294507862+298492706+301710373
1765+302970756+302833450+303547177+304960204+306217681+307451745+307079323
1751+305020208+304572849+306903704+309542653+310930408+311372497+312288770
1738+313184637+312016726+311485916+315212027+319690179+323198810+325294313
1724+326046860+325964929+323871453+320364140+320685849+325919284+331042746
1711+333926643+334292003+333229065+332884719+332352524+330553020+330871249
1697+334232033+339970500+346211870+349257398+349866862+348711789+345437396
1684+345744442+352551185+358261609+360340557+360655948+361895688+363057956
1670+364165829+368835040+374137736+376295337+378286239+382624517+385960333
1657+384934424+379899144+379836133+387524552+390966761+393364816+401141383
1643+409085123+413006753+413201799+411259549+413587431+422612590+429521129
1630+432394856+434439004+436928281+440006379+444954796+449354936+451513078
1616+455886459+463642011+469903450+474108780+478369080+483611232+489115799
1603+494801188+500874068+506838021+512545439+518635144+525429893+532332756
1589+539021113+545794476+552838869+560342006+568245980+574741927+579339511
1576+586519352+595887369+601923355+607181183+616249520+626457320+634624520
1562+638819039+639202644+646766292+664088928+679351031+692128518+703180357
1549+713258960+721132493+725829475+728579580+732772612+746300619+762885304
1535+773803689+782621740+792754401+800628879+805396272+809948448+814709421
1522+819752574+826718482+835399971+845846975+856236948+862986627+865023916
1508+864649433+871248089+886157467+897750623+904190215+906752808+910213902
1495+916807625+920847742+921052282+923034501+930310090+938743658+945050876
1481+949450408+953284296+956529702+956897157+954554443+956002912+962092752
1468+965865893+966141113+966516339+966871834+963540951+954618231+949216272
1454+953882104+959751660+962162013+960427513+956338744+952337751+949465747
1441+946344808+939098680+928956965+923900974+920981602+914694452+911006519
1427+913836291+918957557+922905236+923652242+921954298+922559538+927176651
1414+933359943+939584859+943737146+945769502+949123698+953552826+956422330
1400+958747746+962336551+967021506+971752342+975054440+975754552+974637184
1387+972485766+970821405+972716321+977612438+981684652+983965605+985789976
1373+987047217+988194383+990493581+993187938+994562011+993518229+990792586
1360+989513249+990797248+993030361+993863048+990986990+985770313+983612340
1346+984961546+983642004+978134971+973499884+971883634+970282993+967112525
1333+964309107+963804818+965133483+966724055+968069747+969450914+970474897
1319+971352317+973653609+975839827+975880235+977718796+983909858+989990441
1306+993070296+995696946+998409954+999410489+999546376+999472993+999353121
1292+1000605158+1004064361+1010506588+1017648723+1022169884+1025997894
1281+1030369113+1033887779+1036835193+1039654288+1042049235+1043197752
1269+1042516291+1041967000+1043491352+1045846972+1048113870+1051139262
1258+1054609884+1057762379+1059630468+1058646758+1055682384+1054391627
1246+1056583994+1060310578+1062764448+1063530036+1064532666+1066361970
1234+1067246147+1067011943+1066862745+1066435691+1066184256+1066833013
1223+1066465287+1064366372+1062498012+1061642689+1061853377+1063743631
1211+1064679162+1062332124+1060563027+1060752498+1059454984+1056587035
1200+1054916052+1054746650+1053117494+1049108797+1045728856+1044654870
1188+1044906913+1046578842+1049012913+1048471460+1044748660+1041497443
1177+1040375549+1040762938+1041488794+1042344861+1043440132+1044202950
1165+1043413171+1041635155+1040633403+1038835453+1034858718+1030077203
1153+1025546920+1023299009+1025070539+1027602116+1028025453+1028695292
1142+1028735092+1025941539+1023865733+1024102167+1024258190+1023904790
1130+1023522063+1022946014+1023041628+1024138926+1024337655+1021982913
1119+1018229908+1015951523+1016431350+1017817450+1016325668+1012003911
1107+1010535171+1013323183+1015298239+1014875442+1014298244+1014629548
1096+1015875234+1016522707+1016065787+1015830975+1016964424+1022479093
1084+1032669459+1039076954+1036016087+1031518644+1031336606+1031138553
1072+1031065440+1034854190+1039314942+1038762408+1034600256+1034961697
1061+1039553335+1039286630+1035409022+1034551063+1035795195+1037986481
1049+1042046329+1047590459+1052261292+1051726393+1046666145+1041602180
1038+1038503743+1038204670+1040009648+1042906112+1045423770+1043802587
1026+1037957357+1032606888+1029570617+1026175743+1021769589+1021072316
1015+1026567186+1032529451+1033818653+1032612226+1029863946+1025680374
1003+1023671600+1024586319+1026220002+1028194112+1031111389+1033994204
991+1035072582+1036601327+1040442310+1042486965+1041638871+1040996128
980+1040612523+1041909226+1046593505+1050295358+1050282992+1050547671
968+1053409269+1056621834+1057874277+1057731971+1058814336+1062381113
957+1064966477+1063598757+1061194215+1059451876+1058624054+1060569243
945+1062045079+1060714860+1061417539+1064302787+1063650246+1061641337
934+1064072367+1067541503+1068583190+1071275453+1073741823+1071008814
922+1067691986+1066733480+1064912488+1063457870+1065160611+1068276076
910+1070220725+1070986786+1069094100+1062064539+1056173563+1058637636
899+1063463883+1062258876+1056914623+1051554491+1050179405+1055465276
887+1061035556+1059655943+1056308234+1059983936+1066543941+1063807689
876+1054665023+1049336649+1047792229+1045643175+1041171815+1036744308
864+1036457534+1040438864+1044697981+1046268282+1044935969+1043253904
853+1041945444+1037680516+1031994890+1028663668+1028090254+1029948208
841+1030946919+1029141063+1027881998+1028758404+1029481355+1028792731
829+1026393527+1022006698+1020208208+1023359756+1025455563+1024388807
818+1024150278+1024723963+1024464284+1024369143+1023068589+1020176449
806+1021340035+1026615027+1027068907+1020956363+1016379387+1016814955
795+1014904430+1003557032+992533641+992842714+997952290+998917485+997007771
781+996212992+997778090+998704634+996783028+992453230+987401360+985210615
768+986404879+987361358+986158310+985104595+984639296+981265639+975354729
754+970220760+967059887+966131180+965808727+964299511+962370607+959905250
741+956452805+952269233+947138845+944286099+944791333+943635788+940905752
727+938378635+932060267+923543113+919778892+920403525+918849780+912511478
714+905068108+903405098+909800498+917345294+921637994+924963270+926692229
700+925738656+924190316+923356480+922053696+918823697+915915813+917340496
687+921288446+921730635+920143171+920909706+920331156+917944520+918775180
673+918492257+910629536+902259013+909826581+925309170+931370494+930545510
660+928321317+924597301+917990739+913363221+916128123+923007607+926033877
646+922570620+918975396+918874916+918935799+922071805+928462340+926190982
633+921015928+935864559+958573478+948350339+917137173+893045262+874728036
619+868694821+881858955+902321247+912711356+913584721+918595777+923436485
606+916114136+909944156+921957068+944230284
##END=
