##TITLE=Sample description
##JCAMP-DX=4.24
##DATA TYPE=INFRARED SPECTRUM
##DATE=12/9/2023
##SAMPLING PROCEDURE=Instrument type and / or accessory
##ORIGIN=Default
##XUNITS=1/CM
##YUNITS=ABSORBANCE
##RESOLUTION=4
##FIRSTX=4397.6552
##LASTX=599.8556
##DELTAX=-1.9287962
##MAXY=1.8504459
##MINY=0.24944189
##XFACTOR=1
##YFACTOR=1.723362e-009
##NPOINTS=1970
##FIRSTY=0.27067855
##XYDATA=(X++(Y..Y))
4398+157064243+156637656+156226270+156554857+156897537+157277433+157647350
4384+157325525+156518247+156364719+157395614+157841621+156769603+156481188
4371+157816892+158754750+158473564+158172041+158368785+158394777+158645631
4357+159533287+159575569+158246298+156983744+157030833+158272497+158955230
4344+158183818+157102720+156696903+157060837+157592375+157999421+158731854
4330+159265417+158991303+158701591+158581681+157997415+157406267+157666528
4317+158640858+159439576+159261629+158147831+157354802+157955082+159043442
4303+159005241+157769457+156659861+156591795+157501379+159028345+160138114
4290+159911643+159111127+158946704+159628399+160420580+160313380+159443951
4276+158904405+158889844+158755926+158360346+158285277+158826551+159276830
4263+159087609+158946531+159630699+160484202+160342069+159667119+159677460
4249+160108526+160080200+159641092+159146232+158746225+158641515+158883498
4236+158965865+158664377+158737129+159253259+159635991+160161028+160780381
4222+161096638+161561443+162273193+162665989+162467741+161735204+161264520
4209+161537371+161839447+161736622+160849018+159509993+159414639+160684301
4195+161671202+161650035+161371322+161273892+160827885+160279036+160195666
4182+160251125+160403512+160763866+160893184+160744567+160408804+159855026
4168+159841260+160646256+161214197+161079725+160636987+160024498+159625183
4155+159745145+159894316+160088950+160774640+161477519+161812919+162223216
4141+162446626+161855115+161066565+160418765+159607890+159505255+160441609
4128+161072981+161024474+161084049+161157631+160812114+160245453+159970838
4114+160350941+160775885+160367577+159696724+159750316+160264959+160557819
4101+160445811+160172580+159965563+159526353+159179176+159683772+160202410
4087+159644828+158847718+159085015+159953182+160287268+159962105+159680400
4074+159949170+160405864+160525584+160399431+160008848+159500430+159384099
4060+159622796+159789917+159705198+159728751+160123917+160217784+159526664
4047+158887838+159207450+160139083+160750447+160613468+159947855+159239615
4033+158995851+159396931+159900593+159901250+159488394+159171411+159304983
4020+159719949+159711372+159064349+158864423+159607578+160450791+161162283
4006+161524677+160881408+159926446+159610242+159605970+159469164+159167935
3993+159137378+159966878+161216583+162237535+162854156+162612484+161615778
3979+161007613+161335076+161435825+160560205+159974193+160123605+160012808
3966+159813591+160276235+160834716+160419007+159501226+159319077+159756611
3952+160223750+160741627+160982970+160250416+159136462+159356880+160571307
3939+160932578+160245193+159246584+158661298+159213053+160279883+160302676
3925+159645208+159697018+159652696+158928356+159025492+160517353+161516896
3912+160886924+159480387+157263529+154216584+152816463+153876151+155839544
3898+158320779+159528843+157752614+155876707+157283192+158340044+157282119
3885+156591743+155655061+155823150+158289894+158006580+155075689+152946230
3871+151966194+153483147+155185742+155033667+156312546+158638886+158553683
3858+154629250+147264279+144741436+153002848+159832389+161048477+158318981
3844+154138540+150487839+147922680+148683007+152957142+156080973+157334016
3831+158517108+159035435+158525910+156399167+152031320+150998609+153995266
3817+155353538+157938221+161379052+161170047+157468833+154690121+154637014
3804+152907373+152413654+156192462+158463621+160190582+162746489+163590584
3790+163270799+162823409+162238330+162300741+162004406+160953036+162080496
3777+164772362+165457896+163479441+161536316+162381327+164456745+166259035
3763+166630491+164674500+163827102+165449630+165031759+160802136+158558594
3750+164008075+168863518+170831580+177784750+186016262+188785843+188137628
3736+187927499+191089773+198148586+204960695+207922109+208617137+209745618
3723+211035876+212138641+213742769+215616618+216435327+217651674+225437248
3709+239087753+251749523+261285542+270343061+282774313+295984535+305251750
3696+309959736+309921829+305443842+301166802+301712054+302679951+299588562
3682+292988881+284232972+273422327+263892187+262006752+261404035+258508957
3669+260165103+264052650+265168835+264773169+264091940+262511054+261257060
3655+261435992+258969715+252775541+251541988+259896783+268360421+272323868
3642+273711814+275021769+276579966+277466222+277160255+275249277+273413058
3628+276505053+280830929+280683055+276461768+271943298+271490875+272432227
3615+271264888+270770530+273210590+277521162+282014713+284680310+285323113
3601+285760906+286369659+286176114+285981013+286780872+287340028+286447530
3588+285542079+286111732+286873477+286759947+285854237+285249220+285906238
3574+287155926+287451863+286204371+284898411+285770054+287610458+288242781
3561+287949421+287573088+287330569+287037710+286852033+287344559+288261890
3547+289109409+289634221+289625160+289410517+289341414+289361854+289192589
3534+288680903+288062501+287631642+287608210+288032428+288419154+288427247
3520+288402397+288384827+288075367+287691822+287470522+287351649+287290103
3507+287001014+286578802+286577038+286478588+285636551+284836848+284878247
3493+285286607+285166109+284457367+283890066+283892228+284273438+284660233
3480+284563443+283941652+283487707+283610869+283873275+283542353+282776683
3466+282420133+282513602+282632665+282396147+281799465+281323610+280889138
3453+280491880+280394727+280362216+280530824+281002702+281055947+280570097
3439+280363409+280635188+280850902+280721619+280375722+280010785+279649635
3426+279363607+279130011+279102256+279664559+280259183+280281786+280212665
3412+280441470+280472771+279873564+279106389+278674735+278654191+278856226
3399+279004792+279072719+279155605+279484105+279790038+279562962+279098780
3385+278677640+278386770+278628372+279469562+280183872+280183440+279983981
3372+280249413+280690647+280598250+280064618+279869189+280102905+280262313
3358+280405777+280765059+281005953+281275155+281924564+282219256+282155064
3345+282722054+283421751+283526322+283598452+283793000+283832930+283838273
3331+283867343+283908864+283911198+283990107+284496830+284958470+284493112
3318+283595460+283423204+284084752+284637527+284266174+283521169+283219767
3304+282913748+281985902+281009705+281279167+283008670+284987056+286345085
3291+287297314+288199255+288979227+289485742+289825777+290265697+290677412
3277+290832704+291131045+291833043+292597053+293329763+293995791+293930077
3264+293035469+292296914+291872194+291152178+290622420+290903606+291422435
3250+291685844+291662671+291158299+290272649+289766687+290251517+291089334
3237+291129005+290439943+289934586+289764006+289663222+289399329+288704767
3223+288314358+288498184+287939598+286399576+285293006+285194158+285296188
3210+285376134+285729000+285704323+284769422+283850015+283487603+282701700
3196+281563293+281430585+282338578+282624365+281427749+280110186+279591202
3183+278733393+276720905+275022028+274935528+275293634+274733147+273824704
3169+273907382+274551586+274089133+272561026+271638939+271807702+271772701
3156+270832249+269927801+270326874+270957226+269508633+267072152+266942211
3142+269222604+269924152+267324683+264878778+265455019+266959919+265587208
3129+262475967+261704174+263968883+265337478+262682395+258906786+258549441
3115+261171823+261118975+256774474+253515843+254634570+257144737+255164847
3102+249500672+246949832+249504701+252131977+249456678+244075558+242454448
3088+246106273+248997996+245591059+240506896+239621367+241871324+242340936
3075+239336826+236734054+237604054+240726207+241181899+237543511+234544484
3061+235066650+237589199+238079477+235700271+233767193+233650239+234332851
3047+234260376+233074707+231825122+231241721+231237986+230997629+230119691
3034+229197155+228804704+228806053+228529588+227875424+227660626+230194882
3020+241059100+260284650+272489519+266677765+253115905+242458893+235756214
3007+231243866+228274705+226690948+225799504+224732242+223208873+221935683
2993+221850290+223475239+225512041+225562571+224048004+223339522+224557097
2980+226573960+226778641+224997190+223429343+223163876+224172895+224629503
2966+223057765+221420763+221793171+224443844+226545997+224663242+221270745
2953+220078470+221663074+224465582+224608198+221691089+219562512+220187192
2939+222637629+223421578+220891922+218183109+217837886+220096369+222499906
2926+221185801+217418320+215266225+216029630+218205348+218470693+216201454
2912+214152132+213813861+215037194+216111582+215301797+213819620+213325209
2899+214046523+215228162+215021821+213469261+212675472+213234974+214428442
2885+215056995+214366757+213374581+213060866+213432167+214086557+214206260
2872+213668582+213122413+212989965+213362891+213607468+213050179+212256061
2858+212059439+212450557+212719915+212087696+210777032+209815759+209713781
2845+210065921+210195032+210009701+209901533+210019783+210260071+210508055
2831+210663122+210701911+210646867+210589609+210639310+210600192+210308855
2818+210069311+209950645+209708662+209512040+209479840+209454211+209556500
2804+209813424+210011690+210200462+210483032+210731897+210819279+210762869
2791+210568632+210219553+209930326+210024539+210362498+210393211+210051672
2777+209760023+209538204+209221826+209055639+209099201+209009570+208881169
2764+208974500+209082859+209080455+209022834+208930921+208900900+208993488
2750+209239171+209419936+209243235+208944099+208817945+208824430+208874425
2737+208867940+208813484+208844231+208966355+209115854+209232341+209187275
2723+209027279+208993868+209138422+209291120+209323147+209375164+209494418
2710+209403629+209241558+209268846+209158603+208837642+208737757+208910844
2696+209089759+209261946+209439426+209468305+209414039+209441933+209474496
2683+209446222+209465659+209498655+209346164+209075751+208912383+208833509
2669+208761673+208676436+208528493+208330227+208087328+207858643+207737678
2656+207675129+207643465+207651939+207681458+207733061+207706499+207489729
2642+207201349+207046316+206968497+206850402+206783581+206697185+206382882
2629+205988979+205783693+205659148+205429806+205245963+205277730+205357469
2615+205222721+204933113+204702284+204507736+204281992+204095105+203971079
2602+203817671+203534721+203214452+203082679+203087123+202987446+202826723
2588+202719419+202613776+202516173+202420888+202297536+202170916+201994094
2575+201794756+201658244+201501447+201282706+201056996+200772127+200446376
2561+200269675+200296946+200308532+200088270+199726964+199510299+199514570
2548+199529840+199397323+199181556+198996624+198843873+198697435+198560145
2534+198426521+198427887+198613494+198694599+198538304+198356709+198323402
2521+198372999+198336389+198279858+198321500+198305573+198150972+198051156
2507+198095876+198124012+198054701+197986203+197920662+197838330+197863215
2494+197966558+197983540+197950458+198047248+198373604+198738178+198912423
2480+198987614+199000930+198834172+198604623+198593417+198800554+198929129
2467+198880275+198851569+199019278+199299150+199426531+199336987+199200544
2453+199158384+199258822+199500943+199781438+199968549+200142328+200373900
2440+200533672+200692319+200986890+201204610+201172774+201062340+201044891
2426+201115966+201282637+201557442+201811115+201941073+202044209+202228260
2413+202421926+202597866+202803654+202873933+202788938+202820774+203005742
2399+203269531+203869188+205481426+209180703+216370892+228598674+246783904
2386+270252946+296959349+324803501+352701815+380669198+409490273+440302064
2372+473353074+507064301+538769870+566302953+587332160+600653265+607942042
2359+607250386+592262777+565514456+536248843+509184023+492511579+495350073
2345+513914593+524616308+516912427+504780570+495581248+491124255+493422131
2332+498745787+499057443+494107250+490528610+489920964+487224274+478728885
2318+464770943+449846523+443318574+447515790+450693610+441940035+422504771
2305+400524477+384111326+374090303+365393900+355372289+343789973+330045671
2291+315395416+302175718+290704735+280495615+271904907+265024127+259370622
2278+254550785+250302140+246448608+243021888+240132569+237703732+235546396
2264+233561197+231798422+230280414+228862585+227456117+226104607+224853639
2251+223764328+222867990+222053467+221274671+220636589+220101418+219606039
2237+219249403+219017952+218793798+218565927+218346736+218165539+218031431
2224+217944602+218034820+218210224+218243375+218300477+218493278+218614503
2210+218682292+218885919+219187580+219427453+219538907+219625287+219856565
2197+220212682+220576997+220917861+221168889+221355654+221624874+221895356
2183+222091615+222330122+222510161+222523407+222497122+222435472+222354955
2170+222462173+222692016+222762156+222690442+222578486+222369205+222124403
2156+221933228+221751027+221623853+221551170+221387923+221161418+221026531
2143+221145958+221523173+221931446+222290953+222636902+222934119+223201627
2129+223550533+223986406+224355978+224638841+224936473+225276197+225612168
2116+225922666+226193684+226396550+226585737+226804650+227048397+227262140
2102+227437994+227689349+228047992+228488361+229010614+229633426+230294629
2089+230926935+231565950+232235385+233072597+234173979+235431034+236688832
2075+237920605+239324305+241063752+243095453+245245577+247492905+249948668
2062+252664485+255686286+258917542+262294631+265836627+269488780+273153056
2048+276725436+280263489+283767856+287106554+290114901+292729968+295080623
2035+297119967+298722245+299902466+300724513+301213251+301382655+301226048
2021+300646036+299660121+298431547+297207644+296043020+294713179+293137325
2008+291413650+289645427+287837500+285997476+284237693+282673719+281279288
1994+279863534+278549273+277631423+276905976+276070736+275170213+274372965
1981+273734935+273170418+272657245+272249922+271902348+271533987+271126509
1967+270906661+271155959+271595723+271889931+272160188+272452131+272724550
1954+273150635+273743634+274227530+274536714+274759501+274998233+275794720
1940+277265086+278597832+279525972+280364256+281171327+281940283+282668981
1927+283075006+283095793+283267738+283567031+283637863+284286719+285632989
1913+286414586+286470045+286611157+287108819+287672748+288153670+288596599
1900+288973952+289146780+289201945+289380842+289280940+288915674+289350700
1886+290469721+291359937+292018079+292655262+293161674+293443033+293496157
1873+292864509+291049802+289464956+290342237+292580383+294047082+294426597
1859+294228106+293913648+293589610+293227215+292886125+292378157+291039080
1846+288832183+288025147+289458022+290349465+289971610+289653088+289246527
1832+287168601+284289434+283543892+284321097+285117360+286077751+286725794
1819+286858397+286672254+285983607+284701079+283558107+283530922+284065349
1805+284208934+283789680+282787024+282083211+282257318+281595060+279627310
1792+279601232+282451468+284774004+285577028+285544777+285059064+285092215
1778+285731162+285007963+282011514+279750990+282146850+286717493+289646378
1765+289994091+289065813+289344924+290642411+291696462+292632262+292350799
1751+290462770+289528664+291180296+293680502+294950475+294686928+294942935
1738+295791717+294731752+294294962+298208328+302522030+305486868+307328067
1724+308213925+307953283+305136509+300975471+301474343+307196536+312371228
1711+314963779+314773520+313124171+312694264+312106366+309380243+308837584
1697+312476751+318811743+325457665+328719115+329459157+328091409+324024307
1684+324051665+331844986+338305285+340340202+340368701+341575104+342747232
1670+343822173+349004993+355307474+358172531+360514920+365368894+369432572
1657+368878119+363643455+363491552+372396995+376924336+379784274+388025660
1643+396575141+400973234+401191266+398308812+399147771+407814949+415205583
1630+417997179+418977526+419847198+421072416+424479508+427653351+427797057
1616+429419809+435021089+439449652+441724009+444183092+447758032+451487053
1603+454948169+458709563+462931473+467213390+471671905+476679857+481980374
1589+487167794+492397271+498237541+504822281+511392252+515927168+518320122
1576+523996142+532906600+538379218+542707308+551022121+560741448+568421950
1562+571595654+570021253+576748488+595917161+612455134+625324404+636600493
1549+647430557+655877421+660352814+661854549+665891942+682272132+700919037
1535+712680233+723258509+735670134+745463925+752679518+759714086+765937053
1522+773912991+785869530+797846198+810167276+823389533+834072883+839432508
1508+840112335+847379669+865211169+878544725+884974864+888366876+893769181
1495+902587363+909829725+913280881+917312117+926514897+936599213+942822664
1481+945671120+947251227+947854619+946748412+946472137+952767321+962072754
1468+965466150+963750395+963004300+962490141+959406914+955237333+955750109
1454+960565000+963879886+963551455+959916370+957666049+957980853+957763167
1441+955826890+950025322+939675937+931387756+927346559+923076332+919799491
1427+919826330+920803945+921571138+920493499+917190926+919833386+930656394
1414+940254358+942981070+942524669+944487785+949931247+956482369+959069560
1400+956902869+956304596+961041391+969132293+976427435+978601388+976519296
1387+975457982+978262443+982106429+984884052+988215262+992027013+993015074
1373+991579052+991461597+992281084+992966999+993913901+994700047+995878677
1360+996535055+994990364+993746158+995743653+998020881+995208050+988730459
1346+984052183+982462875+980609121+975522866+970072417+968297796+968546955
1333+968897314+969986436+970897230+970914039+971504772+972183770+971831751
1319+972080495+973864800+975569280+977125524+979648038+982499398+986198053
1306+991582995+995704847+996641374+997166324+998787520+1000112174+1001066962
1292+1002000584+1002892079+1005776158+1011791884+1018368669+1023627025
1281+1028697579+1033680628+1036978567+1039122154+1041375172+1042980320
1269+1043944447+1045459532+1047143606+1048131459+1048981520+1050891512
1258+1053906188+1056840002+1059231711+1062247011+1067149820+1071434989
1246+1070679901+1067503707+1068346228+1072067087+1072606702+1070358249
1234+1069967355+1071228232+1072049517+1072948968+1073741823+1073110900
1223+1071726620+1070448174+1067996008+1064711005+1063193498+1064013677
1211+1065016263+1064270584+1062321648+1059955602+1058027833+1058688776
1200+1060980254+1061354962+1059442757+1057080169+1055433794+1054667432
1188+1053517024+1051303019+1050435665+1052711233+1054466140+1053008537
1177+1051582891+1049658235+1044036446+1038837163+1039069721+1042906098
1165+1045547796+1044645233+1042621661+1043092241+1043544560+1040350035
1153+1036182737+1033410233+1033133543+1036126569+1037840041+1035142451
1142+1032374859+1032405917+1032551940+1031271280+1030952533+1031645780
1130+1029181994+1024549095+1022709037+1022201587+1020962915+1021572878
1119+1023892510+1024481721+1022129648+1018909045+1017745632+1019313773
1107+1021457568+1023883240+1027255816+1029246047+1028831427+1026686733
1096+1023290985+1020162935+1018808883+1020476702+1024609829+1028784874
1084+1031988945+1032789133+1030521589+1029337839+1031615068+1036433625
1072+1042063923+1044136746+1042916751+1043883021+1045957159+1043274580
1061+1039753491+1042366552+1045050308+1042849930+1041613955+1042597934
1049+1041052966+1037805662+1038732643+1042628785+1042998582+1040186373
1038+1038466260+1037827383+1035672451+1032688072+1031712255+1031828949
1026+1030346721+1029354095+1030066157+1028703043+1026390952+1026248664
1015+1025577414+1024752739+1027648508+1031688460+1031873012+1029048698
1003+1027403361+1028462738+1030501736+1032836101+1035993896+1040229952
991+1044448922+1045349825+1042091038+1037881406+1037060674+1040690571
980+1045008804+1046947710+1046540215+1046900396+1049956092+1052065439
968+1051545884+1051206938+1052129008+1053641396+1055883485+1059334018
957+1062896956+1064761847+1065186220+1064807985+1064022323+1064912159
945+1066451178+1065036323+1061947563+1061017815+1062976781+1065137315
934+1065951199+1066223739+1066028465+1065673541+1065390832+1066031647
922+1068908255+1071822216+1071350114+1068233270+1065361780+1063098040
910+1063233895+1067414613+1069959677+1067948071+1066031785+1065970152
899+1066741218+1068576434+1071225603+1072351732+1070278701+1066385672
887+1062266241+1059159841+1058445704+1058114022+1055474191+1053972663
876+1056412931+1058296084+1056064924+1050742860+1043634277+1037972091
864+1036838907+1038373500+1040113742+1042434618+1044568452+1043464943
853+1038422750+1033070319+1030712159+1030792676+1031207918+1031620048
841+1032408615+1033560545+1035516329+1037843223+1038127384+1033788953
829+1027243157+1024536506+1025286543+1024561062+1022691536+1022056256
818+1022331078+1023355869+1023798158+1020980831+1017615795+1018327788
806+1020171028+1018733554+1016567209+1016318811+1016922756+1018588084
795+1020257978+1017973279+1013551011+1011586995+1009773361+1005749527
783+1000893408+995868232+993436888+993669100+991909628+988090682+984390436
770+981847032+981253601+980984313+981212582+983020267+982484941+977888842
756+974701857+975080438+973911838+969679794+965420288+960777844+956000167
743+953198404+952309744+952307116+951071902+948274081+944969295+940010594
729+935099691+931817386+927698439+922753227+918721852+916427400+914427553
716+909359145+905628809+909662604+916575222+920229952+921184602+919145811
702+916025923+918012972+926862489+936434375+940204415+939093297+936536750
689+933901416+933179670+935751365+940178337+941863172+938389882+934673104
675+934569000+937110951+940232361+941750836+941414381+940769071+940653138
662+942452661+944406646+943311507+942167255+943534311+944807708+946299068
648+945039159+935028859+921853431+913002254+907841915+904150039+905877623
635+917670569+929440549+923061529+903492969+897087041+911710319+929590031
621+942643300+948537836+936635874+917830841+906753554+902935093+904697124
608+911062795+918098262+921972753+919728313+916503075
##END=
