##TITLE=Sample description
##JCAMP-DX=4.24
##DATA TYPE=INFRARED SPECTRUM
##DATE=12/9/2023
##SAMPLING PROCEDURE=Instrument type and / or accessory
##ORIGIN=Default
##XUNITS=1/CM
##YUNITS=ABSORBANCE
##RESOLUTION=4
##FIRSTX=4397.6552
##LASTX=599.8556
##DELTAX=-1.9287962
##MAXY=1.8809389
##MINY=0.25522035
##XFACTOR=1
##YFACTOR=1.7517608e-009
##NPOINTS=1970
##FIRSTY=0.25858769
##XYDATA=(X++(Y..Y))
4398+147615862+148599116+149026307+148154028+146540518+145693605+146459572
4384+147745789+148034989+147436786+147283977+147909265+148597874+149040598
4371+149339274+149569151+149551151+149284578+149144324+149269845+149751528
4357+150255208+149693514+148253569+147628707+148242477+148923516+149058036
4344+148934438+148739675+148779196+149140122+149387777+149634088+149697920
4330+148890732+147835667+147537620+147719827+147798733+148076194+148969331
4317+149913353+150372256+150626648+150386411+149606426+149642850+150547794
4303+151053158+150813499+150051174+149193066+148572168+148700818+149945252
4290+150974236+150597454+149740401+149595759+149936491+150019751+150031014
4276+150162846+149912469+149475104+149174012+148715228+148559714+149058903
4263+149135665+148422727+148428103+149851171+151170496+151054724+150006005
4249+149070812+148401683+147712801+147579710+148341270+148828125+148438804
4236+148184821+148767542+149367991+149069468+148574754+148638586+148760856
4222+148829554+149403650+150274245+150699735+150621000+150264361+150230233
4209+151141200+151814718+151471911+151212092+151265886+151312893+151593791
4195+151865910+151840306+151633549+151224715+150879832+150709177+150466915
4182+150677482+151453486+152116406+152446131+152195856+151404506+150839512
4168+150909911+151153500+151130601+151102819+151380127+151667439+151597925
4155+151467658+151328323+150802050+150389507+150692828+151310341+151715075
4141+152234288+153186918+153513853+152513893+151536049+151387987+151134037
4128+150419756+149886116+150065788+150682892+150898121+150751879+150620268
4114+150498882+150783795+151360732+151562793+151560258+151749236+152066355
4101+152206948+151926050+151574294+151597108+151946499+152187622+151953015
4087+151685285+151875505+152204413+152338049+152483627+152577129+152155076
4074+151616009+151558030+152063973+153088652+153594136+152868337+151947180
4060+151571487+151557264+151821336+152025983+151857267+151762523+152008613
4047+152277977+152334000+152441878+153049965+153603051+153248249+152292505
4033+151442207+151085313+151439332+152166356+152468213+152144834+151612437
4020+151347309+151488243+151595390+151764531+152141347+152105586+151996874
4006+152242011+152124674+151707572+151439468+151104316+150935107+151280109
3993+151754306+151995905+152150074+152084252+151486117+150941895+151056884
3979+151571487+152106062+152295108+152269147+152591879+152800966+152302934
3966+151911827+152416818+153145747+152981234+151965367+151002954+150718415
3952+151066667+151551990+151933893+152082483+151903797+151945190+152299906
3939+152339631+151907915+151572865+152054854+152925738+153086747+152515594
3925+152136787+152300450+152274455+152044085+152307562+152849776+152736131
3912+151943386+151271092+150690344+150040745+150189181+151222776+152526856
3898+153655620+153299390+151383632+150558580+151723819+151796991+151113945
3885+151373679+150808702+150393709+151155967+150479590+149468826+149685059
3871+149997430+150729967+150981858+150874864+152252117+153449783+152727471
3858+150313375+147329435+148896261+154521095+156282972+154573137+151619003
3844+149182705+148095453+147917975+149446931+152081054+153135455+153003418
3831+153093909+153299203+153203625+151589027+148811861+149190786+151352651
3817+151921304+153442280+154604695+153186510+150767565+150010224+150382157
3804+149592917+150363409+152591760+152655983+152595639+153289795+153400854
3790+153387958+153327716+153017437+152753075+152060366+151547890+152516785
3777+153618737+153438452+152343442+151806654+152700676+153818280+154637768
3763+154336659+152618011+152114126+153119003+152313397+149450044+148810789
3750+151939711+153064256+152678083+155209193+156959383+155264332+153301755
3736+153907495+156093144+157827699+158326581+157677952+157369629+158344377
3723+159907970+161985367+164442948+166304435+166731320+166972868+170222326
3709+175339532+179500279+183150933+188499411+196514965+203589287+207146422
3696+207839352+206400105+203986195+202652394+202145872+200395971+197266590
3682+193171307+188371117+183518596+181154347+182397794+182420523+181415187
3669+182298695+182794226+182002230+181691866+181968357+181481043+181033879
3655+181474987+180434944+178206270+179187159+183393994+186086267+186406958
3642+185865390+185640617+185594666+185240527+184445078+183139058+182974289
3628+185904332+187782662+186848065+184900238+183608049+184455235+185923880
3615+186342990+186397482+186326640+186258385+186622493+186766234+186171229
3601+185379947+184979977+184940915+185272035+185930651+186175125+185831041
3588+186421282+188082921+188979545+188922586+188541347+188312083+188370352
3574+188391396+188067728+187429392+187407003+188553324+189336133+189327644
3561+189310087+189163215+188770560+188701352+189136556+189541273+189592686
3547+189739778+190213874+190457650+190233847+189951213+189965096+190014143
3534+189728686+189355579+189227915+189389894+189621591+189528327+189191661
3520+189183988+189519497+189484042+188915203+188438233+188380695+188594767
3507+188755980+188748103+188909793+189233852+189189313+188839598+188776123
3493+188959879+188812854+188199645+187615256+187629224+188237363+188771734
3480+188813194+188671580+188554855+188487723+188622532+188920987+189173933
3466+189101646+188662971+188432550+188670525+188830717+188806832+188975939
3453+189269188+189471215+189623122+189890239+190167224+190296760+190541472
3439+191010480+191512085+191863467+191998174+191981620+191852936+191871871
3426+192213539+192622815+192937654+193204414+193502563+193880978+194346907
3412+194801574+194973539+194830087+194822040+195447787+196510338+197177307
3399+197364583+197818671+198509356+198776950+198709920+198901671+199352493
3385+199741218+200223003+200892455+201453350+201863936+202395535+203176744
3372+203891094+204202479+204377626+204771233+205300654+205844570+206438860
3358+207127384+207962031+209027610+210111086+210625518+210564646+210605171
3345+210969721+211498699+212192429+212898681+213548127+214262714+214828355
3331+215166450+215372543+215341120+215326268+215701740+216592462+217777521
3318+218541633+218697385+218734473+218706487+218500377+218566029+219154909
3304+219496611+218996435+218623226+219266479+220275711+221440372+223204989
3291+224970065+226012761+226604125+227562064+229043758+230364783+231427164
3277+232286700+232611270+232812616+233363473+233880815+234107901+234412889
3264+235122118+236202906+237328319+237663589+236808408+235818264+235611389
3250+235674795+235356793+234798995+234389854+234409606+234706258+234725193
3237+234434258+234216443+234114570+233957610+233787074+233751058+233449167
3223+232653717+232192279+232468397+232771752+232581004+231996496+231420886
3210+231288322+231510101+231433748+230728500+229889021+229579320+229759197
3196+229640141+228832272+227961218+227437292+227052021+226595619+225832613
3183+224898968+224326046+224223799+224290455+224355852+224164204+223238504
3169+221955230+221380862+221489318+221429654+221140998+220902156+220584000
3156+220361048+220401470+220414281+220359210+220281785+220018291+219623271
3142+219252937+218949684+218643999+218099607+217433165+217061946+216781763
3129+216196999+215543505+215191867+215050219+214890588+214609724+213887174
3115+212660944+211552102+210856552+210068435+208847240+207423339+205991424
3102+204889370+204500866+204248788+203361622+202180204+201343379+200844462
3088+200505074+200323684+200209903+199919205+199359978+198709444+198195641
3075+197935566+197731617+197448728+197454326+197849584+198187287+198079239
3061+197582942+197311776+197595702+197910762+197848155+197671766+197640718
3047+197665471+197683403+197676853+197505262+197217150+197024481+196813556
3034+196378335+195908970+195608337+195327048+194918094+194480339+194119208
3020+193820668+193652429+193647767+193653722+193495945+193001792+192352941
3007+192105542+192220548+192069168+191531224+191062896+190803588+190604623
2993+190747735+191350940+191933798+192400764+192884880+193139017+193201998
2980+193298733+193303514+193315150+193569644+193775465+193556562+193007474
2966+192543127+192369172+192324224+192217962+191930038+191584729+191395973
2953+191329402+191323923+191344713+191440716+191627585+191617938+191325659
2939+191139862+191146786+190909237+190449313+190269165+190377928+190363501
2926+190149004+189970063+189592533+188638269+187601119+187212853+187356067
2912+187495112+187599911+187923273+188332447+188484286+188332481+188054680
2899+187789110+187748381+188017558+188315111+188379913+188269568+188302437
2885+188653410+189082881+189346630+189553403+189820011+189993252+190094920
2872+190223367+190171035+190017461+190014926+189967597+189796907+189686562
2858+189610430+189532256+189403129+189100098+188674183+188255651+187992855
2845+187968425+188108695+188320810+188547880+188858057+189201919+189307773
2831+189230501+189326555+189636375+189841753+189776322+189558916+189437597
2818+189581713+189683874+189504287+189404763+189611128+190020898+190540162
2804+190994998+191239676+191394509+191586073+191689613+191705554+191866818
2791+192190554+192306360+192060611+191879306+191901116+191920221+191999603
2777+192099553+192106988+192085143+192028678+191867193+191645448+191588268
2764+191840585+192236098+192503998+192560140+192566503+192614683+192582835
2750+192544880+192699645+192964058+193214043+193380837+193392763+193346131
2737+193278250+193220797+193386417+193712960+193949472+194088075+194141495
2723+194158474+194291224+194440239+194440256+194410314+194533027+194788525
2710+195023080+195151340+195205576+195245624+195284584+195367062+195543552
2696+195751329+196024129+196442252+196764594+196770446+196680329+196694399
2683+196708281+196673983+196751187+197022405+197272221+197257675+196980622
2669+196739874+196838905+197008472+196892138+196687985+196603500+196567126
2656+196533254+196530889+196532471+196494056+196417465+196313313+196292319
2642+196407750+196425529+196233506+196056215+195990172+195893896+195666980
2629+195366347+195174732+195156631+195168284+195144654+195116276+194964794
2615+194660929+194443642+194358255+194232292+194071726+193911210+193681350
2602+193454791+193325953+193217140+193181549+193292098+193359503+193304602
2588+193191586+193031564+192925932+192873567+192730251+192619294+192729570
2575+192891770+192860433+192613662+192258452+191986622+191924134+191845961
2561+191511353+191130488+190889145+190690538+190587423+190597903+190495962
2548+190300281+190267004+190321173+190215830+190012646+189841787+189646821
2534+189456941+189385062+189345286+189198568+188950062+188722193+188678674
2521+188759740+188768604+188680171+188496620+188237533+188060872+188065857
2507+188140339+188127920+188106432+188209819+188326306+188336870+188273804
2494+188230983+188308510+188473925+188701182+189003942+189204897+189262077
2480+189394045+189585472+189634724+189554662+189481643+189446461+189419751
2467+189387086+189371945+189445440+189643401+189891737+190070030+190150960
2453+190170117+190209110+190384750+190609727+190721943+190783921+190894419
2440+191053165+191294321+191601521+191804330+191828454+191779390+191775255
2426+191902001+192123915+192322642+192485097+192645970+192755702+192815043
2413+192917170+193085682+193351609+193676910+193877525+193937120+194013661
2399+194235712+194587791+194855998+194914079+194932470+195058008+195136181
2386+194887505+193992667+192204046+189682564+186770300+183689915+180561400
2372+177181556+173458786+169815584+166589365+164129539+162820711+162709907
2359+163860447+166367213+170153832+175188628+180234517+182608838+181145177
2345+177610398+175070236+174383618+174869894+175935183+176962551+177733060
2332+178509047+179810831+181612739+183208912+184432999+185847867+187741457
2318+189815468+191635478+193090411+194410722+195729043+196995780+198250081
2305+199457666+200422001+201162414+201851126+202505556+203091102+203627056
2291+204138511+204634314+205128383+205589106+205872862+205927116+205905169
2278+205925789+206032731+206254952+206513699+206744324+206944854+207099960
2264+207242425+207406938+207563898+207658829+207724618+207844354+208010892
2251+208218159+208421240+208472483+208397371+208443629+208699688+208969851
2237+209130656+209233379+209328089+209483314+209673194+209778265+209857408
2224+209976225+210061970+210133815+210219338+210242424+210205081+210225497
2210+210361837+210569563+210782461+210897672+210898896+210936018+211114993
2197+211387572+211587421+211621072+211627248+211746984+211913658+212003400
2183+212033019+212106123+212228156+212353404+212512150+212679352+212787111
2170+212915676+213134716+213345079+213474104+213558181+213578682+213540318
2156+213614953+213863509+214118004+214275202+214389698+214508396+214595637
2143+214637965+214680514+214778797+214964389+215148196+215226659+215263202
2129+215330198+215409104+215504222+215605380+215668531+215705977+215771646
2116+215878061+215981992+216049192+216075392+216129391+216300080+216492920
2102+216580944+216597514+216610886+216686100+216819480+216937260+217015416
2089+217023889+217003405+217069143+217175677+217209056+217204786+217262340
2075+217381923+217529832+217683253+217716870+217608176+217553207+217637165
2062+217793343+217966754+218100236+218168525+218185623+218156038+218116943
2048+218144810+218230520+218281746+218327646+218445800+218578857+218692298
2035+218800465+218882058+218944853+218977891+218993781+219085140+219259878
2021+219403381+219461446+219538446+219729601+219946939+220073651+220192774
2008+220416356+220646709+220809249+220991337+221233752+221462625+221559768
1994+221555209+221653100+221889408+222159826+222418386+222602141+222743909
1981+222897330+223058560+223258205+223438659+223552373+223634323+223787932
1967+224123288+224426217+224523718+224675506+224984798+225254144+225462279
1954+225697191+225936884+226130745+226238555+226248728+226305058+226687556
1940+227343127+227911234+228270017+228502735+228748382+229057079+229315231
1927+229431156+229512052+229736672+230003092+230276402+230767663+231282929
1913+231548158+231728579+232060839+232554805+233064184+233461399+233724280
1900+233938403+234198477+234563061+234981167+235268394+235538149+236063878
1886+236648947+237066713+237432471+237908880+238479744+238974407+239283410
1873+239298399+239130942+239445797+240508875+241574334+242244791+242700563
1859+243167343+243776894+244452727+245026636+245449097+245786937+246013870
1846+246225016+247082222+248403230+249228741+249687083+250260175+250816306
1832+251007342+251262602+252122802+253178837+254305729+255407290+256164920
1819+256811712+257581200+258277074+258763792+259356569+260286351+261284491
1805+262073986+262613801+263126703+263958270+264875123+265237223+265433193
1792+266714868+268617067+269835386+270608226+271367676+272069981+272951719
1778+273949604+274376591+274231761+274731086+276593305+278651273+280043174
1765+280661928+281177126+282221252+283226010+284183098+285263528+285849823
1751+286133800+286914448+288193197+289550341+290625957+291309836+292227710
1738+293199412+293614558+294851999+297152842+298824415+300191426+301395999
1724+302345006+302907006+302710883+302635857+304458844+307311615+309426406
1711+310752620+311488185+312112826+313048835+313516176+313795458+315368732
1697+317582741+320439595+323206996+324643793+325512296+325700559+325409505
1684+327558083+331522435+334022190+335223089+336338889+338060616+339452194
1670+341013116+343915871+346351420+347735648+349719236+352509060+354592275
1657+355171969+355030218+358051586+362694612+364536007+366760088+371196783
1643+374743369+376563430+377240437+377558031+380261124+385404632+389192255
1630+391727125+394256211+396894621+400150867+404398312+407815533+410508656
1616+415230519+421063147+425645982+429855794+434613282+439767066+444855894
1603+449946765+455325627+460955395+466750900+472839094+479137633+485350565
1589+491497112+497743763+504241522+511255143+518855364+525960547+532370180
1576+540155365+547914690+553727378+560426637+569225205+577387494+584400570
1562+590262970+596497950+608329522+620816086+630623206+640588748+650436834
1549+659865317+668173202+675342660+681929464+689936563+702705403+714754739
1535+723802203+733045791+742716400+750656536+757936713+765951230+774330365
1522+783660173+793124791+802119720+812119969+821831884+829710435+835775219
1508+840252642+847473411+859056188+868681338+875191177+880285892+887134761
1495+894850329+900088428+903836548+908265655+913858504+919391537+924033576
1481+927973736+932210394+936279920+938134857+939659270+944514241+950475247
1468+953611451+952608174+950530777+951138950+952023138+949638627+947738640
1454+950547450+953107873+951874787+948232350+946831790+947690732+947272421
1441+943914507+938660824+932961815+926715130+920585698+917224381+918142458
1427+918462231+915923720+914246872+913272584+913521787+920056532+930065968
1414+937345600+941558101+944491580+946818316+948818679+950159898+952264311
1400+956698250+960892241+962829316+965685626+970352435+973654208+975093285
1387+976038651+977461804+978667125+978168311+977538566+979431544+984093318
1373+989627575+992949831+992539959+990355858+989223011+989080580+989173334
1360+989487866+990275218+991245150+990796761+988818856+986579633+985064271
1346+984505027+983044242+979686872+976020685+971887737+966785536+963373248
1333+962064693+961083669+961438011+963632251+965000895+964479079+964165500
1319+964728214+965009129+965982737+968988963+972768590+975430818+976516234
1306+977684195+980974943+985298775+988523582+990282091+990146057+989305285
1292+990990231+995373540+1000364477+1006333581+1013629205+1020107740+1025370474
1279+1030712146+1035581204+1038501346+1038699715+1037310723+1036544059
1267+1037686638+1040805829+1044262213+1046391601+1046929681+1046903209
1256+1047948475+1049800350+1051604453+1053405698+1055389388+1057705576
1244+1058659041+1057580839+1058183976+1061773400+1064293197+1063557156
1233+1061996200+1062397905+1065346969+1069141091+1071474632+1071587052
1221+1069010705+1064311026+1061533384+1062712710+1065133696+1066496012
1209+1066400672+1065034614+1063439428+1063223161+1064198538+1064169820
1198+1062761775+1061921411+1062787498+1064553561+1065463676+1064129806
1186+1060767400+1056530061+1052443183+1049411778+1046917092+1044500733
1175+1043856901+1045969072+1048398088+1048140379+1046095715+1043891539
1163+1041839253+1041507096+1042389174+1042366649+1041811965+1040353425
1151+1037687591+1036262328+1035336901+1031569386+1026959467+1026162112
1140+1028078636+1027133882+1023654769+1023475182+1026568173+1027089649
1128+1023268443+1020193553+1020562798+1019036480+1012603607+1006694048
1117+1004745948+1004674290+1004420528+1002915713+1000765910+1001202186
1105+1004828358+1006965844+1005625237+1004478712+1004906957+1005485732
1094+1004877423+1002740822+1002365656+1005440410+1010031479+1016293543
1082+1023215907+1027029356+1026851674+1025348493+1026024649+1027761246
1070+1026466437+1024507994+1026501483+1030530790+1031741216+1029658715
1059+1028302320+1029914791+1032974778+1035824963+1037174349+1036158346
1047+1034494360+1034870614+1038873041+1043843971+1044106240+1040388267
1036+1037548698+1037675886+1039417382+1038651807+1035174667+1030638175
1024+1025259414+1022550776+1023685256+1025218175+1025731757+1027126125
1013+1029547452+1030780130+1032075142+1033265288+1031558022+1029450275
1001+1029516216+1030542427+1032237716+1035144928+1036952775+1035509750
989+1034953433+1038157347+1041109677+1041857763+1042757059+1045391454
978+1049477856+1053023659+1055090100+1056978110+1058916818+1058321915
966+1054569372+1052452506+1053809922+1056286779+1060266068+1063469030
955+1062092492+1059973652+1061380405+1064558801+1066549636+1065915332
943+1063326259+1061864929+1064091902+1068110252+1069044254+1066227754
932+1061564892+1056840306+1056318899+1058511506+1058198198+1058868094
920+1062636220+1063437114+1060653823+1059289330+1059260068+1058613787
908+1057989826+1057040104+1054519695+1052653189+1056396273+1065949221
897+1073741823+1072461986+1063254465+1053130023+1048039051+1047681306
885+1047503080+1047129684+1048912215+1051645284+1052574930+1051078146
874+1048211424+1042354128+1034141379+1029395970+1029743030+1033127961
862+1037389799+1038916934+1038090861+1038907271+1039812215+1036574614
851+1030855530+1026656436+1025957551+1028205756+1029977875+1029981822
839+1030682748+1032066432+1030270699+1024593806+1019899572+1018311803
827+1016792698+1015281487+1017452113+1021017856+1021128235+1022014601
816+1025365234+1023907034+1019426549+1018929027+1020994514+1021969347
804+1021157701+1019058528+1014992133+1010536010+1010610049+1014374637
793+1016190037+1013886030+1008681753+1003026433+998257410+995210693+995200894
779+995318078+991792758+987025981+984580223+983848538+982961764+982331951
766+981616665+979629232+978540686+978792271+975886148+967830733+959607912
752+956572492+957544194+958020415+956814549+955827876+954484683+950821628
739+946423415+942941648+941313185+942691016+942617861+935754565+927326025
725+924039292+922622332+917654736+909835730+904443972+905534763+910361153
712+914266539+917089367+919855305+922120387+922631519+922747750+924844473
698+925252984+920727312+916230834+915224562+914433945+913506408+916744688
685+922773609+925938599+924822425+921998575+921120239+924292102+928433081
671+926369499+917785734+915870980+921818240+922747750+920804550+924066377
658+931058765+934705217+933778360+929773620+924934164+920381340+914524316
644+912291151+920406859+930889794+930688771+926770184+929047446+931549890
631+938799853+959321144+969563859+949636041+924271006+913062170+909775777
617+905523943+900530148+898970280+904204976+911850112+914613123+919025966
604+935154082+950796176+944589778
##END=
