##TITLE=Sample description
##JCAMP-DX=4.24
##DATA TYPE=INFRARED SPECTRUM
##DATE=12/9/2023
##SAMPLING PROCEDURE=Instrument type and / or accessory
##ORIGIN=Default
##XUNITS=1/CM
##YUNITS=ABSORBANCE
##RESOLUTION=4
##FIRSTX=4397.6552
##LASTX=599.8556
##DELTAX=-1.9287962
##MAXY=1.7817438
##MINY=0.16700539
##XFACTOR=1
##YFACTOR=1.6593782e-009
##NPOINTS=1970
##FIRSTY=0.18655775
##XYDATA=(X++(Y..Y))
4398+112426303+111780356+111803695+112163737+112420115+113011500+113579232
4384+113381780+112639846+112084301+112368130+113291720+114286970+115061339
4371+115465671+115664820+115391093+114580669+114297207+114865190+115310875
4357+114854279+113741814+112858778+112769831+113769670+115226041+115357274
4344+114394667+114185784+114525837+114641822+115075581+115993945+116315841
4330+115101462+113727096+113887559+114080592+112898658+112162112+113115183
4317+114247593+114142958+113196335+112492853+112868979+114413111+115967723
4303+116244737+115435795+114717209+114596985+114741608+115138935+115790099
4290+116200475+116431458+116776414+117148795+117269585+116616804+115691131
4276+115595638+115856982+115505740+114960171+115141306+115966511+116400962
4263+115932908+115486702+115924655+116662422+116823065+116411621+116153303
4249+116571330+117225026+117412402+117134930+116820946+116585554+116123202
4236+115406269+115328745+116155099+116846126+117262212+117586389+117421688
4222+117156357+117375073+117742308+117517082+116919007+116657870+116842058
4209+117228520+117326464+117193049+117147691+117198320+117709361+118668358
4195+119119270+118475397+117825400+118127019+118510598+118310013+117980215
4182+117913161+117937964+117792902+117586237+117621959+117899673+118111385
4168+118379275+118489989+117775507+116877672+116883330+117471580+117760044
4155+117838834+118050204+118167079+118325602+118571941+118430192+118318813
4141+118809649+119198706+119000617+118680508+118397298+118103572+118061052
4128+118293687+118485895+118513032+118514550+118528900+118339925+117906480
4114+117609926+117612620+117623521+117504501+117511245+117835188+118275395
4101+118504806+118585563+118907863+119196048+119104758+119060406+118824996
4087+118128662+117829657+118097331+118275763+118294343+118186556+117987461
4074+118124792+118348726+118138091+117920282+117968657+117855743+117573745
4060+117913673+118966772+119468231+118983358+118570836+118749915+118913691
4047+118890541+119172934+119620621+119840711+119801361+119506423+119163756
4033+118931974+118641077+118481656+118764651+119274434+119682107+119610420
4020+119107982+118827627+118969421+119279795+119323582+118923318+118675893
4006+118856516+118754512+118246228+118291236+118735134+118521886+117964105
3993+117995983+118528531+118940398+119106725+119229975+119382059+119514433
3979+119540708+119285561+118599581+118042167+118470835+119431198+119661624
3966+119249434+119225054+119731003+120059733+119899709+119455255+118663348
3952+117802178+117706451+118488867+118860889+118154920+118084149+119208010
3939+119762190+118907154+117060163+116171533+117736292+119329185+118443653
3925+116860538+116851029+116732843+115857925+116859461+119947312+121853059
3912+121477301+120010890+116695972+111471265+108307883+109231751+112805697
3898+117249416+118707439+115831362+113636317+115641957+116210254+114154300
3885+113830051+113550630+114071379+117331205+117365742+113790800+110424129
3871+108424973+110335578+112634377+112170086+113850903+117751046+118501717
3858+113573951+103945191+100643356+110813348+119074002+120608866+117618484
3844+113163908+109529805+106926791+107699221+112001478+114917462+116312850
3831+117763744+118084373+117408002+114889364+109654887+108486683+111701431
3817+113424875+117556630+122213470+121866951+117486316+114320986+113956031
3804+111601080+111203141+115925984+118672893+120262087+122585375+123516921
3790+123257615+122339019+121396293+121652572+121349364+120187805+121558309
3777+124226985+124461353+121834596+119204445+119794904+122130944+124563922
3763+125464649+123246768+121670101+122902440+122299812+117764525+115639945
3750+121589488+125983197+127670084+136301610+145965240+148596002+147170701
3736+146998582+151514796+159939101+167349998+169751044+168537707+167192543
3723+166976378+167881666+168852724+168487203+166568041+166705865+175802212
3709+191289369+205584506+216675717+226362784+237266835+246976514+252049926
3696+252496769+248237283+239792271+232811281+232467402+233115899+229501013
3682+222395597+213423496+202526199+193383784+192156744+191628847+189193175
3669+191753076+195840577+196706192+196073284+194972484+192377381+190212509
3655+190180361+187031356+179782726+178546616+187519147+196462009+201051688
3642+203282078+205221374+206744017+207452465+207117422+204388716+201429781
3628+205413743+211113561+210592777+204758151+198371653+196464272+196032749
3615+193774215+193218643+195323170+198558634+202961709+206588017+207962832
3601+208366877+208625320+208176897+208173574+209219848+208162654+204025081
3588+201931725+204155973+205758412+205141937+204050225+203267980+202725177
3574+202381226+201346608+198118220+194428154+195332347+199304151+201251097
3561+201417694+201726658+201960299+201439407+200808115+200491697+199678274
3547+198868748+199490054+201050251+202058989+201989233+201688350+201772815
3534+201432816+200229949+198896065+198037562+197440233+197193140+197921739
3520+199068929+199554620+199549896+199352840+198593925+197786985+197861303
3507+198058845+197606129+197675274+198619680+198829775+198061341+197656452
3493+197673335+197140499+196357716+196285696+196710431+197014762+197228431
3480+197428002+197478164+197341327+197226671+197275953+197280838+197179850
3466+197024353+196711383+196527724+196638483+196545972+196270017+196301124
3453+196617865+196742723+196282751+195826533+196083683+196672913+197256790
3439+197816871+198185049+198199704+197940219+197923481+198400802+198783223
3426+198486956+197989915+198264181+199110507+199447291+199188578+199171193
3412+199723587+200303944+200451988+200547553+201038883+201695767+202079697
3399+202059402+201856329+201741098+201862346+202242899+202841162+203558625
3385+204108056+204392739+204714635+205206557+205480320+205495281+205842231
3372+206400426+206744610+207272865+208204160+209004562+209434864+210027093
3358+210981484+211650366+211843561+212295487+213255481+213940724+214029967
3345+214117791+214258328+214314884+214824928+215837635+216726256+217260582
3331+217729013+218228623+218547142+218752280+218891973+218964980+219247005
3318+219628995+219755864+219861055+220272248+220562300+220556859+220799515
3304+220989891+220595904+220486186+221457406+222744127+223657246+224774947
3291+226458708+227998988+228810364+229311734+230215891+231265954+231564215
3277+231388100+231815564+232949069+234036992+234265155+233785122+233706386
3264+234200679+234431590+234158078+233828459+233638012+233348552+232947219
3250+232767764+232750199+232651581+232538631+232162981+231578367+231475439
3237+231868043+232188107+231952059+231161625+230308995+229640580+229223407
3223+229233931+229686845+229956926+229298910+228178210+227463836+227006522
3210+226449154+226037692+225927507+225797513+225334291+224657956+224150480
3196+223824363+223511591+223239408+222647090+221539339+220548848+219765005
3183+218635038+217503436+217047470+216915302+216454486+215638710+214702513
3169+213913946+213539356+213663710+213905792+213667338+213142944+212866325
3156+212726292+212532234+212251377+211831689+211398334+211033334+210708260
3142+210429467+210221330+210023573+209481596+208521278+207671325+207125989
3129+206765515+206676057+206612299+206099543+205157544+204102793+203114333
3115+202232536+201385797+200438123+199398135+198455687+197429834+195885657
3102+194189539+193047035+192350872+191546429+190442378+189433605+188900123
3088+188619050+188177002+187538185+187002727+186652221+186185604+185583372
3075+185071765+184654143+184483290+184600479+184481799+184007639+183632690
3061+183590268+184001461+184610752+184736112+184227756+183431700+182734657
3047+182482033+182608488+182674258+182552795+182455649+182128473+181259464
3034+180331420+179956273+180080035+180060315+179544003+178894554+178675927
3020+179471139+181019681+181745172+180889004+179501833+178455110+177632024
3007+176803515+175918700+175134157+174623143+174159633+173527515+173066699
2993+173241790+173984110+174896637+175662269+176123138+176308108+176274756
2980+176107531+175988493+176079065+176237884+176117822+175825758+175640465
2966+175475809+175224280+174909334+174559978+174085207+173456555+172896313
2953+172489664+172349846+172728118+173236923+173227907+172809315+172448751
2939+172284310+172162578+172030698+171937827+171794543+171651941+171540069
2926+171267329+170804933+170205843+169585130+169075032+168618329+168226820
2912+167945316+167797362+167945101+168365848+168655111+168521578+168255502
2899+168218415+168252539+168215864+168350348+168753603+169121440+169197860
2885+169170130+169292652+169494720+169647110+169673259+169438056+169047643
2872+168952527+169240389+169408673+169273471+169179972+169201308+169054288
2858+168661774+168289716+168102843+167793806+167068602+166271917+165907097
2845+165899249+165989030+166160799+166325797+166382532+166376031+166428725
2831+166706135+167096512+167313809+167331463+167257091+167109137+166967056
2818+166976683+167030653+166948091+166818402+166861524+167165675+167554185
2804+167843537+168037576+168201874+168359490+168445141+168502918+168711954
2791+168963177+168946744+168759135+168721886+168827759+168827813+168626069
2777+168477972+168511000+168507013+168389142+168184668+167958355+167877212
2764+167843914+167694775+167685562+167960366+168198659+168319691+168579589
2750+168923809+169015746+168857465+168756512+168745880+168709224+168702507
2737+168826915+169082413+169335146+169492870+169530945+169411601+169294466
2723+169386259+169559483+169623420+169580245+169480064+169464708+169611854
2710+169779869+169938007+170152053+170302683+170320984+170322367+170300797
2696+170277324+170410981+170570358+170547010+170521094+170663750+170771527
2683+170714271+170666731+170686164+170730112+170852886+170926485+170783435
2669+170544532+170328132+170144456+170039516+169950309+169805426+169708102
2656+169735652+169739280+169554975+169370598+169362301+169326112+169190442
2642+169091878+168984442+168823916+168720126+168634277+168396506+168082081
2629+167842801+167659789+167519181+167356320+167152349+167049708+167002815
2615+166842881+166585785+166374756+166302305+166233878+165936084+165487266
2602+165222446+165189885+165187694+165209839+165278751+165289311+165240352
2588+165178049+165044984+164780129+164435173+164175490+164150813+164298498
2575+164399576+164301192+164016778+163724983+163592133+163545671+163334696
2561+162924078+162575529+162397008+162273569+162172239+162145820+162144778
2548+162041437+161829492+161616074+161484769+161437947+161376398+161171781
2534+160928945+160902148+160990457+160944642+160802201+160655038+160528402
2521+160483125+160543291+160609761+160550619+160368164+160180321+160069813
2507+160054440+160120963+160190684+160219420+160209649+160181111+160245821
2494+160366008+160423426+160533180+160774561+161057628+161333636+161599066
2480+161807257+161885293+161851493+161811801+161801043+161768266+161714207
2467+161728018+161830300+161972201+162200472+162437022+162473768+162380772
2453+162348803+162434239+162654032+162979897+163280834+163437175+163530495
2440+163685597+163841848+163952033+164122275+164320211+164398211+164452863
2426+164559438+164615904+164710840+164974976+165290281+165508189+165623043
2413+165681574+165805139+166100382+166456922+166697963+166794426+166854142
2399+167037603+167574928+168871348+171910618+178657177+191484378+212105524
2386+240666147+275298988+313252495+352986621+394800831+439673905+487479657
2372+536493501+585549300+632924732+673834731+703650592+722441424+732461630
2359+728762962+702523714+659967148+613147325+569733172+545002092+551316086
2345+583009371+606020392+600287007+585043261+573634213+568467536+570108535
2332+574348624+573890250+567851833+559871013+550946686+539265330+523698270
2318+503984764+483386624+471282096+470685862+469695228+455436297+428217371
2305+398652483+376925848+363069867+350892170+337656201+322847158+305555011
2291+287387191+271089521+256966350+244467439+234246225+226749300+221360512
2278+217175542+213615973+210424978+207505483+204907057+202704936+200851794
2264+199171032+197541976+195952019+194406980+192976615+191705554+190475622
2251+189256825+188247423+187389638+186493492+185673854+184988934+184416156
2237+183970354+183547667+183139905+182859012+182692721+182527399+182294603
2224+182041404+181902250+181932836+182038620+182099594+182095140+182125510
2210+182233683+182319082+182334438+182374991+182463354+182517503+182574023
2197+182711309+182916986+183119682+183257183+183388309+183567836+183698674
2183+183748262+183850651+184019798+184133395+184179875+184221650+184285192
2170+184370071+184457751+184531459+184657753+184859443+185004757+185088504
2156+185207470+185298186+185292098+185266972+185308154+185434538+185642370
2143+185889535+186102073+186233899+186345933+186544228+186804216+187019340
2129+187135254+187217887+187375648+187618951+187927287+188227469+188429734
2116+188606352+188818369+189063594+189389836+189740612+190061394+190432967
2102+190893244+191380030+191816133+192279625+192921927+193712720+194548935
2089+195442118+196493834+197715235+199030800+200520828+202259134+204001553
2075+205584704+207307295+209391689+211597115+213695517+215908289+218461976
2062+221128182+223812725+226721013+229801106+232804833+235611558+238304147
2048+240956739+243467161+245700748+247704789+249645504+251430075+252855393
2035+253953589+254768718+255232426+255352560+255270537+255081976+254676135
2021+253863628+252672956+251400046+250297539+249270931+248019483+246507436
2008+244974466+243513533+242089760+240726403+239453331+238304524+237127879
1994+235703405+234541020+234245489+234319753+234216789+233961022+233650530
1981+233452648+233424864+233492537+233666317+233982125+234222518+234131551
1967+234176092+234950381+236099439+237137775+238094842+239005698+239924887
1954+240989534+242123704+243155161+244029414+244634467+245045462+246164132
1940+248282003+250240804+251515187+252426025+253249757+254111690+254888475
1927+255221345+254944582+254746017+254914086+254993218+255642882+256932890
1913+257495988+257118470+256830088+257235982+257921315+258394578+258620711
1900+258668125+258521734+258442549+258764462+258876173+258781902+259761185
1886+261437206+262690899+263623163+264400631+265008629+265605707+266121731
1873+265688807+263664759+262023077+263397497+266167673+267740155+267940121
1859+267667291+267479179+267264917+266832065+266108261+264829137+262562521
1846+259582519+258404348+259957649+261093614+260707889+259952243+258818001
1832+256142905+253044870+252148526+252450127+252826208+253783508+254316308
1819+253853875+253085837+252152657+250571230+249070912+249003077+249651197
1805+249448842+247952870+246177261+245861094+246593159+245951936+243682464
1792+243515958+246827428+249459367+249913143+249668852+249442341+249706083
1778+250551582+250024458+247036536+244664837+246718232+250896395+254061941
1765+254941098+254141522+254393877+255728066+256829459+257710268+256833033
1751+254196730+253437995+255760789+258445279+259817597+260138038+260965488
1738+261624582+259614668+258358442+262467998+267452419+271165060+273398989
1724+274181306+273797789+270716080+265728337+265498432+271575840+277645364
1711+280919693+280996346+279222192+278365252+277318870+274524322+274395065
1697+278215053+284621056+291573059+294811935+295090242+293292597+288933469
1684+288865455+296886487+303579849+305658173+305663776+307090406+308458845
1670+309453681+314621904+320922464+323613976+325930484+330967096+334961385
1657+333938854+328332948+329082740+339157795+343692355+346654200+356140062
1643+366150642+371636432+372758640+370950650+373692844+384486549+393208611
1630+397104085+399543834+402204347+405346222+410209592+413895402+414159449
1616+415966900+421581571+425923098+427974373+429752766+432392804+435422681
1603+438749867+442862332+447447467+451951783+456784226+462274758+467847186
1589+473414658+479448765+486231944+493890707+501726482+507203615+510035538
1576+516342599+526319881+532894151+538585941+548401620+559030345+567146726
1562+570726105+569520598+576796383+596787298+613984186+627377914+639128165
1549+650438469+659085818+663678748+666184949+671599797+688630196+707661476
1535+719108563+728731137+741249857+752193276+760465765+767787383+772684482
1522+778309893+789539377+802657385+815807505+828562218+837645491+840951556
1508+840709312+849613919+869509934+883912364+891698641+896633097+902302977
1495+909820071+914250643+914054449+916733137+927172097+936921755+940963889
1481+943550048+947326734+949382716+948321858+946990453+949861456+957073231
1468+962897279+964852613+966416204+968184324+965942996+958542857+953974927
1454+956387449+958347525+957171221+955187079+955697500+956641259+954422848
1441+949091118+940789821+930344252+923618832+921320391+918484302+915653960
1427+914437211+913459041+914833479+919793725+924985870+929562995+935601628
1414+941237742+942901766+942405066+944627572+949838395+956026383+960922692
1400+962058119+961448918+963774442+970366097+977741523+980312883+978213941
1387+976707965+978766676+982057151+983850199+984978011+986682409+987592116
1373+988397798+991842442+996427110+998221379+996283287+992566443+990741282
1360+992267446+993851296+994526733+995378106+994612151+992311124+991157594
1346+989868286+986883560+983895602+980372007+974957230+969965878+967454001
1333+966852200+967139128+967639276+968081593+970039370+973742277+975286328
1319+973968285+974040555+976890581+980146502+982454353+985098127+988784943
1306+992236770+994003165+994104316+994475081+995496354+995366396+994751304
1292+995917982+999330297+1004928265+1012317700+1019615180+1025867393+1031640003
1279+1036272588+1039302644+1042507846+1046159460+1048612356+1050170344
1267+1051698519+1052794937+1053560461+1054224763+1054070667+1054214346
1256+1056457111+1059888823+1063667737+1066720495+1067264393+1067126677
1244+1068612753+1070229435+1070442511+1070931453+1072692388+1073476806
1233+1072928885+1072477516+1071628154+1071437061+1072910781+1073741823
1221+1073533200+1073423573+1072449498+1071085549+1070877788+1069613265
1209+1065976738+1064574426+1067138243+1068559376+1066612591+1064740951
1198+1064005671+1061635966+1057509779+1054573329+1053279783+1052405565
1186+1053304209+1055915367+1056339868+1053872533+1051088025+1048689655
1175+1045828494+1042352385+1040131028+1040588360+1042517832+1043466475
1163+1041931548+1038150407+1033375076+1030379072+1030732595+1031183533
1151+1028424025+1023383031+1019528829+1020262025+1023999631+1026388446
1140+1026341391+1023656381+1020605419+1019935514+1018376448+1014539128
1128+1012225745+1012064393+1011531845+1010109490+1009512502+1009758410
1117+1008976793+1007438058+1006380290+1005493500+1004076030+1001083977
1105+998028992+998960610+1002942112+1005938116+1008231528+1010079533+1009148634
1092+1006925338+1007083888+1009139223+1011204041+1014988558+1021017995
1080+1024397767+1024583760+1026552600+1029343933+1030052560+1031286479
1069+1033885928+1033551730+1030943301+1030848401+1032054949+1032950288
1057+1032619897+1027935874+1024150926+1026385070+1028366122+1027533572
1045+1028698453+1032123771+1035894926+1040214937+1043441906+1042476883
1034+1037554999+1031644744+1027248152+1024219964+1022011682+1022721746
1022+1025477590+1027079257+1028993427+1032936638+1036909232+1038306658
1011+1036685092+1033897710+1030660683+1027173008+1025952451+1027033423
999+1026981771+1027314245+1032654883+1040280024+1042951672+1040576075
988+1038296170+1038336544+1039634759+1040307682+1041407189+1044542347
976+1047129440+1048228516+1049380466+1048056603+1043712742+1042536007
964+1045995234+1049490740+1053213188+1057578673+1058599084+1057594549
953+1058961013+1061124610+1060824105+1058570851+1056533333+1056919471
941+1059163817+1060410883+1060873459+1061288405+1059846079+1057267391
930+1056510057+1056960923+1056228876+1054796104+1053808308+1052617062
918+1050772864+1049991750+1051392841+1053760391+1056052869+1057187937
907+1056494683+1054427782+1052408152+1052238251+1053571596+1055933902
895+1057161643+1053645950+1048711710+1046961407+1046722683+1046889711
883+1048643821+1049477809+1047841587+1046338125+1044819720+1042990824
872+1041278668+1038487838+1036595220+1036218277+1033583986+1028237601
860+1023696468+1021956868+1020838898+1018509208+1016991521+1016978087
849+1017794762+1019357922+1019961376+1019912310+1020963038+1021733734
837+1020854775+1019050448+1017656398+1017792032+1018446420+1016121973
826+1011773299+1011413453+1014647104+1015563419+1013338902+1012661741
814+1014769087+1014420090+1011058565+1009516813+1008965443+1007250628
802+1005853920+1005466129+1004681639+1002925014+1004839112+1012171578
791+1015918739+1011328180+1002852384+993609556+987642978+986095622+984167300
777+981065835+980283069+981039973+978547278+973289184+970031467+966923752
764+962314084+960835766+962382978+961982112+954821415+942663186+938051075
750+944424768+949538967+948269559+945962067+943618798+939585285+936025410
737+936289996+937844249+935308809+928650199+920452280+913172616+908836800
723+907750368+908329756+906493173+901697727+896054356+890677942+891436857
710+899452807+906644611+910095002+911832015+912558961+913286410+914930893
696+917239822+918383727+918804276+920525556+920317508+917500457+917329909
683+918266771+915715168+911956441+910048880+910112387+913805093+919711109
669+919936614+914614727+914683908+917119778+918206211+919180070+918173092
656+912884610+910695725+915522206+916521497+909311517+903593434+904766577
642+907301442+905121609+903542356+908191751+913399126+909404406+891596342
629+869624015+864547819+880775266+894816270+892291678+885174013+878220214
615+867136852+860125222+867187427+876432123+874310121+872118865+876867328
602+878530418+877588886
##END=
