##TITLE=Sample description
##JCAMP-DX=4.24
##DATA TYPE=INFRARED SPECTRUM
##DATE=12/9/2023
##SAMPLING PROCEDURE=Instrument type and / or accessory
##ORIGIN=Default
##XUNITS=1/CM
##YUNITS=ABSORBANCE
##RESOLUTION=4
##FIRSTX=4397.6552
##LASTX=599.8556
##DELTAX=-1.9287962
##MAXY=1.7274117
##MINY=0.15522277
##XFACTOR=1
##YFACTOR=1.6087776e-009
##NPOINTS=1970
##FIRSTY=0.1585716
##XYDATA=(X++(Y..Y))
4398+98566517+98948166+98911514+98632521+98589951+98767901+98457777+97380456
4382+96484920+96886742+98415049+99623108+99575379+98935680+98835581+99429413
4367+100189097+100879962+101384671+101592779+101718368+101936322+102052630
4353+101767978+100849498+99481181+98845353+99756700+101218290+101947372
4340+101652401+101008682+101315342+102538925+103003593+102252309+101594094
4326+101577126+101522181+101321853+101458187+101859435+101886842+101378252
4313+101043657+100834752+100135792+99856975+100822220+101816827+101803471
4299+101524432+101533926+101604477+101932561+102291693+102203246+102284125
4286+103084954+104176594+104927868+104848656+103977545+103105674+102445690
4272+101721119+101601643+102500959+103535403+103797150+103371746+102881857
4259+102621064+102574215+102652334+102834989+103050961+103258670+103515776
4245+103339818+102820058+102991218+103793056+104223313+103916811+103659723
4232+104107255+104496230+104400707+104476353+104815089+105163606+105698547
4218+106410864+106757908+106321454+105709190+105886028+106537564+106879644
4205+106819475+106344665+105905229+106010802+106460455+107251881+108014660
4191+107956881+107433499+107089548+106852959+106823939+107077609+107126487
4178+106964209+107062780+107083732+106499199+106024760+106574077+107446503
4164+107490398+106996211+106845910+107018283+107078804+107144030+107254706
4151+107218389+107294350+107636096+108076699+108369521+108369141+108548962
4137+108891088+108664084+108068752+107769993+107691022+107324499+106877921
4124+106997285+107499957+107951453+108054516+107931196+108145741+108508050
4110+108572757+108357721+108285807+108599701+108790822+108720530+108792915
4097+109295660+109941177+110106057+110050195+110056197+109688164+109184873
4083+109295975+109851118+110269918+110484880+110539806+110393386+109886241
4070+109309536+109374141+109825452+110056364+110263212+110741116+111277391
4056+111655510+111823947+111715549+111463056+111105777+110907719+111451626
4043+112371383+112510440+111576854+110623863+110434196+110806675+111401933
4029+111912051+111991662+111472902+110986495+111129451+111390485+111368486
4016+111293526+111513147+111955677+112068660+111906818+111841157+111815250
4002+111953612+112193712+111886283+110947417+110156139+110268705+111131860
3989+111772920+111945424+112184662+112422160+112383295+112330694+112360435
3975+112301230+112276397+112232114+111958215+111881439+112221916+112471269
3962+112776985+113305924+113317622+112800270+112401672+112353016+112859198
3948+113609083+113362582+112524426+112974144+113988712+114005060+113318993
3935+112476364+112560392+114086347+115118745+114471219+113613667+113496340
3921+113162199+112992928+114182806+115725377+115776811+114737615+113902182
3908+112587244+110518410+110096137+112425874+115592980+117204269+115631993
3894+112172056+111300843+113685321+114067933+113424668+114555257+114438819
3881+114453713+115702128+114275837+111864905+110595649+110529145+113219783
3867+114925577+114822107+116535801+118130344+116571934+111683205+106050593
3854+108886808+118085606+120581049+118290102+115308494+113518783+112509125
3840+111574566+113227666+116722615+117898052+117833437+118003782+117660564
3827+117207947+115511656+113114516+115323592+118299753+118565511+120865757
3813+122391924+120036724+116433868+115569148+116475975+115616386+117447574
3800+121608509+122106058+121931036+122492236+121765720+120926648+120992485
3786+121415722+121840051+121488311+121340548+123104463+124716104+124218444
3773+122428696+121806318+123430537+125271821+126733773+126752613+125060157
3759+124992374+126182409+124892387+121950117+123020935+128431425+129401227
3746+128524938+133503929+137493074+135823951+133254002+134258973+138765897
3732+143464061+145656307+145700581+146479384+149243287+152716016+156516930
3719+160207409+162548187+162875224+163897035+170106223+178285137+183965107
3705+187670869+192306373+200520188+209277799+215997883+221587471+225752351
3692+229267511+236556159+247239166+254465052+257943477+260747042+263344741
3678+264988949+270195184+280191143+285899494+290439243+299386474+307144781
3665+312053119+316497891+320699099+324188695+329341634+335961665+339102401
3651+340903829+348802592+360433515+368410712+373217830+377435895+382441562
3638+388514852+394667539+399082968+401165159+405049777+414782053+422779072
3624+426011061+428002220+431671025+437317725+441997837+445687648+450215190
3611+455476462+461712363+468803629+473834971+475590828+476902756+480423992
3597+484413609+486535480+487821436+488971050+490634875+495266119+500648877
3584+503781499+505848499+506827017+506999854+508431934+511130334+513923692
3570+516587970+518798870+520637719+522139452+523029125+523870523+525089568
3557+526229289+526656768+526904111+527979403+529643636+530869424+531374374
3543+532289611+533737067+534850001+535627562+536525090+537716496+538275723
3530+537585118+536614565+535857381+535447316+535697549+536075344+536347326
3516+536623679+536591261+536563918+536875395+536825785+535850231+534771456
3503+535440239+537447663+537911784+536752279+536691147+537807082+537343183
3489+534717919+531974874+530512228+530392854+530518379+529990236+529132685
3476+528357235+528414551+529420672+530140065+529948444+528903384+527327663
3462+526274082+526236365+526742686+526940605+525393338+522175983+519216012
3449+517654888+517666003+518618587+519315231+519123203+518291994+517392799
3435+516723831+515846458+514057330+512257458+511895039+512537146+512608245
3422+511649437+510500972+509631046+509413157+509594997+509056369+508037281
3408+507378168+507127934+506982774+506833464+507123933+507723063+507460603
3395+505894366+503927993+502539150+502323929+503288479+504486702+505321690
3381+506133707+506279349+505013993+503143726+501058313+499497596+499559988
3368+500188535+500844647+502090405+503008347+503412670+503685763+502659599
3354+501163200+501433811+502416442+502398065+501647698+500699783+499750979
3341+498863195+498369138+498028652+496858994+495470522+495678407+497097594
3327+497403068+496333741+495632354+495230255+493730225+491537590+489600338
3314+488113684+487471984+486913201+485769515+485561370+486162649+485856990
3300+485660626+486199106+485759216+484766322+485519541+487872972+488736081
3287+487164990+485735874+486473385+489299273+491909680+492346199+491235413
3273+490328252+490401240+490149599+489217504+488529640+487984418+488006277
3260+488537309+488064741+486486574+484805113+483002573+481358977+480472860
3246+479780106+479139925+478853976+478635235+478345655+477578097+476111413
3233+474798151+474348220+474496011+474300574+473057707+471619736+470839025
3219+469871400+468775100+468923633+470238636+471325265+471235308+469975843
3206+468306608+467064629+466167064+465489352+465536887+466038539+466234273
3192+465765076+464712199+463685071+463059155+462778466+462502780+461926917
3179+461314153+460384837+458706414+457198567+456724183+456953446+456742560
3165+455222672+453083685+451864714+452471921+453811599+453720902+451989720
3152+450053987+449029601+448711307+448134630+447445654+447060708+446245283
3138+444445300+442523794+441707479+441825778+441782171+441203566+440299703
3125+439463530+439091181+438607312+436995430+434497580+432455440+431498188
3111+430818661+429580832+427861209+425991869+424181661+422854690+421988395
3098+420759310+419091372+417628800+416684775+416200536+415685324+414851596
3084+413783676+412796155+412421583+412095435+410803810+409283441+408782900
3071+408978263+408875265+407918013+406296498+405104907+404486586+403311482
3057+401690300+400439319+399604072+399048549+398258688+397087659+396303096
3044+395959942+395545282+394934148+394160441+393271286+392483499+392219854
3030+392109817+391251265+390000988+389087195+388147912+387002263+386498610
3017+386943688+387545040+387974965+388415596+388613664+388560349+388919434
3003+390122770+391894262+393898055+396224958+399435755+404562500+411566292
2990+418312144+423044385+425997019+428123113+430511149+433147194+434186214
2976+433129707+431280781+428693493+424930249+420564133+416527722+413161390
2963+409989829+407003553+404585582+402839173+402029119+401946721+402172501
2949+403012195+404522894+406021071+407174760+408318483+409353057+409575021
2936+409069331+408608433+407920643+406126218+403521627+400845828+397787342
2922+393698024+389053072+385054785+381837394+378544903+375280643+372973673
2909+371446338+369752317+367713512+365694713+363938893+362431936+361043352
2895+359997737+359586263+359491676+359224881+358613747+357655754+356860298
2882+356683683+356472722+355581048+354178237+352478733+350510766+348235881
2868+345920722+344058051+342687325+341527745+340330264+338902481+336981642
2855+334453189+331788356+329165463+326126540+322833900+319936506+317605083
2841+315560906+313529770+311638608+310075761+308714797+307464464+306293325
2828+305012500+303628584+302421081+301433078+300542386+299778644+299041023
2814+298001224+296729328+295776356+295176930+294476524+293626068+292820776
2801+292103624+291338975+290458990+289609275+288741405+287702885+286565387
2787+285402787+284179315+282944969+281872215+280956570+280038091+279067390
2774+278065679+277068524+275915058+274475327+273195206+272433483+271887612
2760+271218700+270473149+269917997+269588385+269175319+268620815+268219123
2747+267955329+267493543+266777502+265994532+265247259+264552893+263970028
2733+263685617+263711162+263652087+263278589+262943975+262817895+262504177
2720+261896285+261332686+261076914+261073598+260947499+260498884+259936433
2706+259535796+259238584+258808290+258350208+257978970+257525816+256914071
2693+256204440+255464985+254807835+254309480+253849527+253268848+252524558
2679+251683531+250904099+250204435+249517238+248912699+248450727+248014393
2666+247486509+246859815+246058227+245209864+244639244+244254428+243872353
2652+243639830+243550855+243418532+243239582+243016747+242720443+242451666
2639+242259786+242110957+242008700+241967557+241948031+241868875+241742480
2625+241718768+241923134+242252746+242489401+242540641+242451851+242372972
2612+242417784+242532842+242601495+242578672+242490772+242388663+242305875
2598+242246318+242240575+242221291+242061866+241859853+241662212+241274543
2585+240681100+240045050+239445587+238977798+238702112+238486538+238079492
2571+237378883+236652284+236187126+235920053+235565340+234991478+234386680
2558+233817004+233286194+233070324+233191087+233309313+233245310+233042018
2544+232821702+232723576+232780837+232898803+233014972+233163689+233391600
2531+233682718+233962406+234139077+234204821+234285793+234452387+234657698
2517+234816863+234837907+234771422+234790558+234968804+235164333+235168853
2504+235023322+234991700+235154774+235237025+235030899+234744450+234631800
2490+234671017+234748154+234759288+234618870+234397331+234229608+234108437
2477+233959367+233779714+233642278+233537316+233342935+233087534+232894505
2463+232807364+232802511+232652311+232200787+231747077+231550566+231431359
2450+231139667+230667321+230213333+229957487+229859490+229774665+229640971
2436+229477360+229276310+228967038+228562641+228188032+227915032+227726227
2423+227573101+227408526+227219110+227080711+227091159+227157922+227136674
2409+227141917+227288949+227438592+227427607+227279816+227253807+227491036
2396+227751106+227806810+227664002+227436425+227173613+226732778+225822746
2382+224155067+221775423+219004313+216096824+213210397+210280195+207144220
2369+203872403+200754582+198287761+196791418+196296027+197098912+199369592
2355+202730644+207082385+211248803+212701853+210773141+207477186+205394754
2342+204906625+205354389+206133673+206591217+206709869+206950469+207733495
2328+209027010+210357537+211363916+212278153+213611792+215238513+216509686
2315+217251495+217910256+218737593+219549054+220274172+220937786+221415301
2301+221730353+222106406+222570435+222952213+223205299+223355202+223460979
2288+223666308+223861745+223789831+223578204+223475539+223391585+223200371
2274+223005527+222871408+222705277+222467492+222272444+222189064+222095551
2261+221961524+221898447+221854654+221793226+221799728+221826682+221789632
2247+221687801+221576819+221531766+221518225+221518725+221627744+221773423
2234+221806119+221845966+221979178+222034067+221954151+221852820+221883942
2220+222093884+222238118+222191139+222138288+222172614+222311217+222573899
2207+222820576+222907031+222905975+222975147+223153856+223416464+223693539
2193+223847610+223898609+224027079+224222979+224280702+224200656+224159846
2180+224146119+224150714+224233501+224212346+224041843+224022262+224212586
2166+224376809+224448167+224514448+224578322+224621670+224702605+224831223
2153+224916511+224958118+225109744+225419627+225764281+226062457+226274214
2139+226410668+226602919+226855560+227054924+227225149+227396559+227556354
2126+227747475+227990762+228260112+228464126+228512235+228469221+228456439
2112+228508086+228624977+228768767+228848646+228885918+229007904+229216716
2099+229387793+229489531+229603718+229796117+230056817+230290767+230475089
2085+230718560+231070847+231443715+231716511+231877751+231975951+232110442
2072+232421529+232808642+233066619+233240586+233441395+233655690+233860148
2058+234041303+234209212+234379103+234484176+234548401+234686615+234888554
2045+235110222+235351619+235605761+235878502+236138276+236291309+236350848
2031+236461516+236719177+237038768+237212938+237242689+237325235+237548626
2018+237863734+238166614+238415718+238606579+238791123+239111992+239519334
2004+239857023+240189674+240596590+240973570+241227212+241441452+241826879
1991+242392109+242926346+243416976+243962551+244535912+245051366+245497258
1977+245909473+246316722+246819449+247374434+247805396+248187248+248614912
1964+248977813+249307481+249681108+250007516+250226831+250318511+250306488
1950+250267567+250186317+249992048+249800945+249880158+250035803+249938529
1937+249758412+249671272+249663121+249698244+249728865+249667344+249516478
1923+249437173+249344160+249267449+249546044+249952404+250108031+250139153
1910+250268382+250577895+251007393+251415236+251722192+251952437+252146707
1896+252384473+252645006+252791352+253082859+253686064+254162782+254484169
1883+254935379+255456352+255921084+256284653+256482942+256393560+256206015
1869+256611486+257703895+258663500+259217651+259571494+259879543+260292739
1856+260818900+261376312+261936910+262373707+262449659+262459069+263333386
1842+264599631+265201966+265631353+266344651+266867089+266935464+267317297
1828+268397035+269389058+270360185+271491144+272369906+273108139+273897815
1815+274494630+274837672+275395529+276313564+277180766+277780896+278144131
1801+278641060+279645124+280646724+280929246+281067756+282454673+284469062
1788+285685995+286492343+287371124+288229027+289370879+290635550+291097356
1774+290963755+291804652+294028835+296257483+297871162+298711688+299511739
1761+301061859+302618055+304128607+305658350+306509769+307279753+308921368
1747+310929811+312676368+314178880+315760826+317844461+319549893+320557236
1734+323354188+327588482+330631888+333379527+336096193+338757469+341216788
1720+342908067+345147533+349867103+355152976+359153079+362360726+365039601
1707+367830144+371064060+373482216+376249677+381589865+387495616+394097901
1693+400564732+405466697+410481182+415265736+420321532+429623439+439947731
1680+447302902+453106581+459262492+466379878+472182446+477586322+484394788
1666+489714080+493363026+498261842+504371329+509294450+512325148+515201942
1653+523251053+532462337+537537953+544420519+555337420+565087184+572931002
1639+579779482+586929249+599226546+615299240+628354721+640053296+653273427
1626+667659731+683235404+700010226+714573998+727404218+741878997+755504895
1612+765928888+774365686+781121838+786145622+789583015+791555612+792677698
1599+793265379+792354847+789210666+784641258+779330636+772463557+763986671
1585+755312607+747444744+740423761+733371657+724501230+715011481+709487378
1572+705746401+701083480+698100761+698380263+699799043+700264460+700063058
1558+705090918+715390350+724781325+733893464+743531263+754173257+765529641
1545+777722236+790522742+806035060+828460842+847998604+862765557+878872596
1531+894378764+905035354+913467040+920982042+925442820+927099162+928086831
1518+927980721+925565306+921677020+916583656+910918542+904849365+900475876
1504+903102400+907075827+907683737+905723959+905919804+910268395+914984000
1491+918541878+922980130+929284128+935104479+938979354+942073074+946311332
1477+951241899+954406902+955387755+957564051+961737991+964524124+965088687
1464+965894294+968323121+969964791+968119496+966481013+968188038+969517528
1450+968586322+963916065+958059998+954438913+951632995+947807248+941832918
1437+933549654+926437974+922534719+919499612+916498961+915275507+916126389
1423+917979020+919650330+921319268+926412409+934096284+939987327+943804034
1410+947145616+950289130+953172556+956272723+959899142+962818655+964128582
1396+965523798+968692877+972642295+975605230+977411030+977711577+976057384
1383+974189192+974686917+977327223+978961632+979174815+979598441+979610667
1369+979627562+981345999+982776115+981052418+978441825+977611765+976930792
1356+975610713+974414306+972952845+970926007+969364735+968488437+967958627
1342+967791162+965803671+960535137+955206137+952195705+951334894+952118197
1329+953663983+954923226+955187094+955025113+955419099+956735917+958819293
1315+960809675+962572052+964917592+967628514+969422903+970828048+973582541
1302+976670333+978043838+979129467+982038531+984147916+983991863+985463178
1288+988537632+990332391+993055615+998631217+1004687723+1009708247+1013922793
1275+1016957678+1019446599+1022535354+1025671903+1027222802+1026738044
1263+1025991568+1026620597+1028417060+1029595758+1028906412+1027780102
1252+1027642574+1027734531+1027981875+1029208070+1030098966+1029498910
1240+1028643656+1028654697+1029400135+1029851400+1029513656+1029191101
1229+1029527660+1030429745+1031454909+1031479510+1029692087+1028109400
1217+1028398980+1028307393+1026971605+1026680247+1027440728+1027680884
1205+1027575366+1027122323+1025295405+1023063460+1023192467+1025576834
1194+1026939224+1026006165+1024508915+1024036458+1024475422+1024915053
1182+1025832773+1027737569+1029171243+1029616580+1030159209+1030386694
1171+1029586273+1029205773+1030602248+1033242258+1036068628+1038375117
1159+1039618429+1038819712+1036658755+1035419963+1034683490+1034989149
1148+1038773919+1043320800+1044847987+1044606720+1044558555+1044166866
1136+1042926518+1043228176+1046825030+1049956467+1048578294+1045980372
1124+1047182633+1051607918+1054372266+1051879640+1048397788+1048624161
1113+1048298643+1044704012+1042248583+1041867046+1040008339+1036652160
1101+1035085701+1037321351+1043047893+1047984462+1047615225+1044401909
1090+1042636123+1043041816+1044892446+1045994896+1044618798+1042237987
1078+1040852997+1040376761+1041420079+1046793390+1054487268+1056919133
1067+1052656201+1048616603+1048327468+1048527536+1048683070+1051064548
1055+1054221030+1056796573+1059679480+1062101045+1061531296+1058600076
1043+1057737041+1059130256+1058331095+1056145907+1056521146+1057423083
1032+1056023865+1052512892+1046191481+1039196285+1035873747+1035783568
1020+1034604352+1032147293+1031640380+1031236835+1029621100+1030749706
1009+1034399171+1036078113+1036164216+1037703703+1038913893+1037006725
997+1034746400+1036371027+1041277142+1045011005+1044096768+1040317556
986+1039925793+1044621095+1050059465+1052983423+1053931005+1056887345
974+1061914834+1063823484+1062727777+1061917576+1062295704+1064768768
962+1068553168+1070795857+1070979401+1070303690+1069522461+1069745870
951+1070479157+1069931118+1068953156+1069329284+1070539474+1072133794
939+1073741823+1072877603+1070620094+1071206886+1073260993+1072626258
928+1069849535+1067510665+1066885489+1067965264+1067513481+1064483782
916+1063213350+1064518906+1066729065+1069422056+1070008774+1067701545
905+1066306255+1068285373+1071047128+1070878478+1068386963+1067161805
893+1068019801+1068248471+1066741440+1062974157+1056788644+1052369955
881+1052171962+1052841078+1051211042+1048243735+1046045135+1044166422
870+1041853708+1040454714+1041005642+1040949697+1037147662+1031797322
858+1027999140+1025526002+1024696164+1025752449+1027291640+1028638024
847+1029342560+1028092876+1024942099+1021502854+1019847624+1021598665
835+1024791455+1025547417+1022992250+1019166726+1017432061+1018411654
824+1018176389+1014801907+1010842114+1008659297+1008653073+1010000124
812+1011824374+1013184986+1012818046+1011844307+1011364959+1009537522
800+1006754426+1005778464+1006427278+1006172080+1006375853+1008358602
789+1007016441+1002448516+999639486+996745315+992365750+989546791+989056698
775+988544968+985277856+979023801+972593983+968901318+968310673+967745295
762+964739309+960432657+959203869+968548457+981077834+974564283+956436630
748+947116939+943683919+938423017+932109089+927017578+923559660+922644608
735+924874034+926421227+924384312+920119230+915144796+909050573+900877717
721+894090740+893055721+894632628+893567599+890131170+887826533+890219940
708+895187483+896869093+896087790+895846745+894615363+892635948+893816054
694+897597637+898183911+894085182+889599211+888124709+889452346+891974686
681+893483866+892968358+893290319+893904528+890734782+884730220+881260001
667+888265127+898243857+899888047+896851754+895986496+898349523+900710845
654+901231615+898588789+893390798+891763058+897827864+905867638+906258956
640+899689683+894066806+889588392+885297746+884992383+887279310+887556960
627+885624524+883846067+881623977+876685185+872559336+872529474+873797609
613+874270437+873954774+872299692+869904358+866854875+860693741+850816008
600+841238970
##END=
