##TITLE=Sample description
##JCAMP-DX=4.24
##DATA TYPE=INFRARED SPECTRUM
##DATE=12/9/2023
##SAMPLING PROCEDURE=Instrument type and / or accessory
##ORIGIN=Default
##XUNITS=1/CM
##YUNITS=ABSORBANCE
##RESOLUTION=4
##FIRSTX=4397.6552
##LASTX=599.8556
##DELTAX=-1.9287962
##MAXY=1.7782384
##MINY=0.17625521
##XFACTOR=1
##YFACTOR=1.6561136e-009
##NPOINTS=1970
##FIRSTY=0.18577713
##XYDATA=(X++(Y..Y))
4398+112176562+111470551+111503626+111634632+111456829+111684443+112279486
4384+112239870+111583742+111533274+112665891+113722604+113638314+113176311
4371+113438476+114374198+115215893+115614517+115756122+115842833+115489090
4357+114469249+113832871+114172524+114541797+114490052+114490726+114440978
4344+114351523+114571696+114779390+114862384+115006059+115493094+116259803
4330+115976340+114925440+114923379+115290241+115038513+115095136+115454008
4317+115440826+115224288+114655564+113912932+114044442+115078481+115811647
4303+115532134+115035355+115342896+115867046+115734960+115483961+115628194
4290+115828734+115955934+116186103+116753226+117498305+117496910+116863322
4276+116736832+116782945+116399519+116144597+116170105+116196009+115903450
4263+115438055+115963501+117454055+118428538+118421376+117744598+116845731
4249+116609515+116969224+117003235+116942024+117075532+116715220+116053999
4236+116074757+117119458+118375389+118573400+117999952+117792853+117881534
4222+117959705+118475668+119372852+119795131+119337150+118060209+116982775
4209+117594652+119000979+119312019+118635556+118264286+118867111+119516707
4195+119240911+118890919+119500682+120345662+120199576+119314484+118692988
4182+118499341+118443447+118890496+119961021+120627379+120196238+119321242
4168+119182912+119619361+119353516+118459724+117879869+117835745+117913314
4155+117644166+117450581+118081372+119132048+119600376+119437105+119321827
4141+119494438+119645284+119376622+119037968+119557242+120682967+121170155
4128+120703967+120166510+120226101+120504048+120564962+120558727+120529890
4114+120185711+119518336+119035755+118899845+118943897+119234558+119558672
4101+119697092+119883758+120237033+120509222+120665925+121114630+121632167
4087+121512201+121086107+121150531+121568427+121783454+121761445+121710627
4074+121629459+121472728+121540346+122092713+122379702+121525266+120322340
4060+120257503+121123160+121740436+122144476+122646141+122607046+121944404
4047+121627524+122049065+122594675+122635137+122154886+121642505+121454517
4033+121757369+122489024+122875564+122470741+121988007+121899146+121927488
4020+121973997+121869193+121559628+121694341+122196609+122215144+122243567
4006+123093145+123537360+122766305+122380467+122915504+122962733+122318815
3993+122180638+122800208+123328389+123638602+124034275+124183987+123896421
3979+123373405+122815990+122541066+122763714+123275789+123647069+123691400
3966+123403826+122876446+122692353+123021551+123299678+123246907+122601162
3952+121481069+121009843+121647832+121740139+120942109+121656353+123523720
3939+123853655+122183481+119631328+118612828+120570586+122454860+121574168
3925+120316429+120934308+121110833+120073663+120545482+122946096+124348635
3912+123895899+122617124+119276505+114088108+111854113+113766747+117180858
3898+121313128+122781961+119566905+117014329+118972564+119179663+117065373
3885+117567848+117500824+117490279+120317293+119816536+116210109+114017233
3871+113829875+116653262+118229465+117010928+118671214+122325914+122298003
3858+116460163+107001688+106427007+118465248+125558633+125435742+121938133
3844+117853425+114118781+110854993+111501062+116036967+119139507+121099523
3831+123182213+123404105+121906389+118358356+112731466+112713183+117175721
3817+119218155+123479739+127919918+126973237+122094530+119022879+118985728
3804+116672607+116655071+121572971+124020022+125956177+128851320+129578395
3790+128836276+128025667+127635402+128096524+127467614+126043823+127624029
3777+130645536+130930943+127996965+125134635+125691447+127833072+129956729
3763+130262992+127376620+125856563+127291655+125784312+119094356+114683690
3750+119471593+122630026+121927461+127452795+133533077+132011383+126534088
3736+124056571+129026388+137973616+143836524+144519285+143872640+145611521
3723+149306746+154203430+159229744+162021271+160909789+158635088+163181628
3709+174020957+183460160+189133334+193783599+202158251+212759340+221250494
3696+226587821+228033710+226821832+229717984+239730428+248457932+251949261
3682+252054120+250040820+245793453+244594135+251806361+257035734+259702840
3669+268349240+278025441+283671532+286888270+288961423+289759391+291940317
3655+296526987+296586731+291815844+294612157+308003477+319009318+324537593
3642+328430021+332819623+336578849+338622112+339401994+338234600+337593210
3628+345697842+356551082+361169945+360574372+359815436+364383589+370968442
3615+374782950+377890781+381443060+385417870+391142151+395833140+396927364
3601+396987433+398348060+399782684+401450492+405324097+409305601+410655431
3588+412586079+417608434+421719792+423169965+423817041+424959241+426481970
3574+428209343+429106950+427076716+423516051+424516232+429708462+433879350
3561+436174727+437059342+436958172+437107533+437411330+436822379+435895331
3547+435812157+437127688+439525063+441464600+442181606+442699260+443313441
3534+443157530+442173832+440851391+439739675+439548673+440392834+441967966
3520+443409320+443433578+442141945+440469566+439190853+439084393+439570735
3507+439524451+438973938+438350831+438077446+437746440+436601180+435378433
3493+434836378+434312173+433772889+434014639+434325058+433343916+431498135
3480+430253397+430112566+430211360+429794768+429308966+428593867+426894963
3466+425025608+423543620+421832695+420367803+419849789+419864545+419650221
3453+419017361+418060620+416655329+415598642+415455615+415328460+414486674
3439+412677927+410586041+409585536+409518666+409064139+408348717+408518593
3426+408919025+407724495+405524349+404814217+405605292+405977111+405700667
3412+405604752+405840743+406026275+405707469+404843621+404273061+404805651
3399+405853195+406369986+406104446+405245385+404598345+405210834+406219437
3385+405784993+404570164+404331618+404719741+404472989+403739463+403446499
3372+403490120+403205146+402909518+403180816+403370415+402966347+402588157
3358+402400682+402332084+402852725+403842792+404510131+404630952+404326867
3345+403222169+401756521+401344392+401754218+401584737+400867443+400411046
3331+400130498+399154251+397483492+396445341+396350542+395900442+394418346
3318+393008304+392621044+392631229+392472043+392042386+391572960+391785700
3304+392032704+390875892+389163996+389035833+390214708+391127107+391747334
3291+392622052+393885109+394629252+394204346+394111562+394852718+395330890
3277+395758747+396343847+396424862+396114047+395844657+395445628+394818491
3264+394459844+394532509+394400567+393990345+393659375+393008556+391965474
3250+390931318+389730669+388488163+387874306+387754565+387286974+386289349
3237+385278443+384536999+383890318+383406280+383316663+383216105+382998037
3223+382781841+382108744+381254325+380585799+379903091+379639172+379747180
3210+379293085+378504278+378352793+378416281+377913023+377318745+377008793
3196+376621390+376176221+375721443+374878973+374077461+374025562+374140876
3183+373875193+373666267+373414801+372686709+371823005+370791260+369409362
3169+368636139+369122517+370086131+370344004+369706681+368680299+367563545
3156+366875799+366873100+366986794+366372433+364954365+363788267+363287853
3142+362877703+362320675+361598414+360492709+359158858+358077231+357116172
3129+356124521+355481583+355112751+354311490+353047894+352108069+351245229
3115+349789730+348325126+347389584+346635759+345850191+344926310+343300036
3102+341101401+339412251+338687219+338493301+338173524+337262384+335727958
3088+334307802+333623547+333087250+332251690+331552679+331310354+330990181
3075+329884872+328464896+327504628+326912042+326196043+325280585+324554041
3061+323898831+322860464+321669820+321004101+320939749+320906638+320672231
3047+320245597+319484035+318661036+318214248+317968791+317499005+316716676
3034+315905302+315571524+315731827+315638683+314915918+314107784+314009601
3020+315095908+316941437+318290188+318521752+318146009+317765228+317677699
3007+318089684+319001867+320162423+321734783+324191615+327554907+332172619
2993+338611099+345768672+351536753+355335749+358256752+361389668+364885731
2980+367789818+368737273+367472452+364890769+361729492+358226628+354328298
2966+350061640+346160718+343541353+342126416+340988679+339735771+338860586
2953+338598070+338679445+338822220+338910901+339319539+340371294+341366545
2939+341347506+340425964+339016785+337093264+335006309+333029197+330921583
2926+328698799+326457012+324279792+322134064+319633576+316961988+314775195
2912+313032382+311404740+309965473+308686508+307412870+306147510+304880854
2899+303781771+302895069+301961507+301181931+300876244+300784810+300464259
2885+299697315+298658787+297753963+297074459+296406958+295472280+293889860
2872+291734469+289724570+288181775+286679039+284881304+283073457+281530663
2858+279971529+278326953+276712411+274539510+271688149+269195093+267357463
2845+265558793+263871316+262718895+261941838+261201186+260370485+259349952
2831+258239388+257330461+256665282+256062618+255397564+254702530+254075411
2818+253538718+252991983+252313487+251594267+251066590+250827666+250765978
2804+250625686+250226550+249715248+249276486+248762791+248153775+247656096
2791+247110765+246288504+245391779+244606066+243862481+243151755+242492658
2777+241901583+241255586+240336942+239419972+238671474+237785527+237024685
2764+236828265+236845793+236557274+236012411+235496575+235017989+234495080
2750+233998175+233548093+233075680+232618400+232282283+232038681+231706972
2737+231243413+230882984+230730707+230584999+230350250+230100943+229768389
2723+229379258+229194931+229162882+229056475+228944904+228894391+228811127
2710+228678609+228590378+228539163+228357050+228021275+227747332+227543319
2696+227167127+226691474+226435598+226381270+226133385+225542112+224910961
2683+224323989+223711662+223291327+223013659+222526327+221880295+221311696
2669+220802230+220356953+219987833+219554811+218999529+218371906+217863303
2656+217632639+217335032+216640790+215930244+215606418+215546476+215561862
2642+215491104+215214966+214961411+214921912+214880324+214635012+214263120
2629+213937369+213797671+213829019+213863876+213891445+214019230+214153925
2615+214188548+214203268+214311384+214499327+214598643+214617682+214783366
2602+215051604+215141401+215063319+215126699+215294073+215216603+214942174
2588+214674980+214367133+214074619+213921299+213777606+213535911+213283508
2575+213016655+212645897+212150990+211588671+211126839+210813648+210374796
2561+209694788+209131732+208890037+208672617+208277709+207910424+207734448
2548+207630687+207434124+207144147+206897161+206768332+206751381+206811251
2534+206842545+206831442+206865399+206867721+206755052+206738982+206914544
2521+207079022+207204377+207325882+207463690+207704090+207939883+208129608
2507+208313448+208421006+208567344+208821258+209009724+209083198+209097703
2494+209026549+208934917+209020737+209268982+209410822+209348288+209311001
2480+209399269+209342817+208988381+208554082+208288866+208159444+207955197
2467+207719044+207698799+207837201+207843356+207658706+207427412+207252767
2453+207141376+207039468+206954080+206838316+206578661+206303189+206168350
2440+206153702+206261278+206357157+206251668+206098078+206140727+206277671
2426+206225089+205987875+205859730+205962069+206137686+206229732+206241033
2413+206251758+206275854+206304646+206357445+206395145+206376754+206427573
2399+206684996+207012817+207203658+207250211+207264482+207276431+206991636
2386+206045316+204309413+201509087+197393086+192378883+187162862+181937196
2372+176490098+170922430+165787479+161352294+157517056+154658119+153672820
2359+155093552+158778259+164249651+171312713+178384215+181686971+179394959
2345+174079118+170402671+169512802+169972942+171005119+172150432+172963659
2332+173549120+174811295+176984933+179169279+180985513+183064550+185815587
2318+188827485+191405425+193246168+194772263+196559793+198618568+200565448
2305+202079539+203135812+203962085+204750479+205528112+206303657+207059821
2291+207645677+208069665+208540423+208959661+209081795+209050897+209095237
2278+209153758+209189191+209238390+209184710+209070890+209149007+209405513
2264+209635889+209764052+209798657+209778970+209797397+209925650+210153093
2251+210416509+210570657+210503498+210360454+210364862+210527918+210672601
2237+210672025+210612046+210663045+210868876+211043970+211046004+211021476
2224+211085954+211263999+211562020+211740822+211678306+211627199+211701682
2210+211809906+211919857+212070370+212335226+212608953+212714550+212741615
2197+212830260+212984084+213161392+213301486+213418023+213567043+213730260
2183+213912805+214153511+214378650+214473090+214432241+214362419+214427868
2170+214677859+214945342+215104294+215210953+215297816+215325709+215306526
2156+215336092+215527743+215827491+216024666+216095909+216251227+216522939
2143+216710360+216772534+216864814+217066938+217325981+217537030+217662530
2129+217798808+217963250+218035069+218064437+218187202+218349681+218508166
2116+218706043+218895174+219024147+219148009+219310183+219455279+219554055
2102+219653264+219732659+219772231+219877648+220122132+220429007+220706279
2089+220927136+221066330+221184847+221402141+221667392+221909303+222170847
2075+222422404+222667465+223017492+223359709+223422189+223339734+223489942
2062+223828686+224148949+224455589+224728759+224956112+225214705+225505581
2048+225738405+225845783+225860107+225912402+226136030+226527752+226943445
2035+227226799+227408930+227660847+228014779+228414744+228816219+229192718
2021+229488903+229610822+229803174+230393907+231147102+231734307+232179116
2008+232586495+233005714+233430422+233863354+234320291+234794253+235107479
1994+234949156+234781674+235444712+236627509+237608867+238237660+238680346
1981+239137967+239619414+240041189+240381967+240713063+240899081+240698793
1967+240631652+241291469+242129908+242567158+242784938+242892082+242863200
1954+242896995+243070128+243192874+243025392+242304301+241277307+241246049
1940+242516772+243563020+243799281+243826868+243994135+244233869+244371803
1927+244115765+243334480+242775455+242711607+242655048+243405219+245041805
1913+245932718+245764174+245709828+246456383+247488433+248253667+248834844
1900+249275604+249407078+249505135+249920557+250027072+249930005+251009707
1886+252774924+253947392+254674673+255349444+256120995+256943076+257499473
1873+256995370+254998463+253734651+255803431+259226882+261458753+262610653
1859+263446896+264302467+265207434+266053593+266610639+266535238+265464965
1846+263831979+264459044+268027951+270819136+271985684+273156065+274093982
1832+273221856+271824914+272657666+274635569+276971778+280199548+282907576
1819+284465828+285669410+286527698+286499697+286594515+288262070+290593546
1805+291781401+291366536+290802616+291949225+293903429+294101359+292618490
1792+293496050+298008795+301672880+302942037+303369102+303707127+304544234
1778+305937397+305754996+302963019+300738004+302889958+307352658+311157736
1765+312649441+312163351+312587609+313982320+315200317+316428246+315753349
1751+312931932+311877729+314086585+316695009+317896126+318094255+318952992
1738+319695264+317565840+316026195+320166130+325548427+329813070+332463819
1724+333452771+333274653+330459643+325875798+326294406+333090165+339873184
1711+343879665+344545889+343185333+342707089+341995770+339695678+340634098
1697+345960574+354217987+362972286+367746917+369768801+369774668+367352783
1684+370401841+381926811+391522897+396271758+398982684+403128665+406711249
1670+409556168+416727994+424917024+429233961+433101951+439804242+445666080
1657+446365054+442320063+445683355+458965102+465983571+471671897+484467518
1643+497675339+506298489+510501372+511938624+519288783+535493620+549048068
1630+558429649+567716575+577350775+587548768+600343453+611725432+619596089
1616+630298204+644202985+654796840+662248565+669018339+675610103+681090403
1603+685487959+689602197+692720717+693732775+693704918+693822824+693427790
1589+692133997+690113409+687309016+684387365+681675107+677625581+671193759
1576+666486107+666462425+665462316+663206205+664766473+668576301+671215426
1562+670506625+664248711+663408832+677546689+692423650+704462675+714804379
1549+724660857+733105637+738930512+742663609+750116126+772389458+795976883
1535+809980134+821660476+834417730+843596288+849312183+854538317+858416456
1522+860945809+864883404+869562408+875455809+882340537+885518801+882389628
1508+875401391+876579942+889876552+899713811+903011853+903739944+907076640
1495+913338729+916983937+916603659+918360076+926992223+936647010+942732313
1481+946217218+947565572+946980004+947135556+949362155+953276501+958197362
1468+960956695+960489464+960020361+960396464+957760147+951656057+951628056
1454+958209095+961076472+959096985+955788074+953509576+951482078+948698415
1441+945104890+939206882+930495268+925800212+926035735+923347664+916459696
1427+909719651+905872536+906813476+910935200+915225072+920776202+928146660
1414+935140512+940908737+945792240+948533938+948460517+949508421+953597538
1400+956533945+956785879+957509652+961342587+967379806+971411122+971819760
1387+971294080+972869824+975409110+976926477+978629124+981045394+982780720
1373+984637047+986554198+986369782+984499778+981993172+979702294+980020595
1360+981847842+981828407+979933138+978490272+978456872+977982515+976375819
1346+974961098+972974989+967611154+960233714+956809273+957546434+957485898
1333+956306844+955666066+954789117+954342688+956342978+959362812+960815035
1319+961356335+963057614+965915130+969013639+972305562+975140476+976892790
1306+978104955+979251330+980503230+982386334+985976404+990481213+993037126
1292+993686974+995189081+998714223+1002803268+1006381749+1011107180+1017096748
1279+1022289339+1026678833+1030381122+1032710943+1034469735+1036411216
1267+1038111919+1038383073+1037548233+1038875857+1042398120+1044309225
1256+1044190096+1043566018+1042887522+1043246997+1045479282+1047935286
1244+1048193483+1046981749+1047075109+1048353929+1048632281+1047754109
1233+1047102749+1047652903+1048420296+1048122293+1047408094+1046149788
1221+1045000534+1045114913+1044732692+1043903322+1044209819+1044055995
1209+1042142947+1039969254+1038926100+1038683451+1037802183+1036335851
1198+1036273084+1036962233+1036433674+1035162771+1033552045+1031870272
1186+1030586773+1029186304+1028131849+1028339299+1028841729+1029122096
1175+1029483803+1028537032+1026992384+1027277718+1028747865+1030040290
1163+1029935630+1028787095+1029683551+1031706227+1031572126+1030911697
1151+1031857964+1033229352+1034607075+1036584979+1038036123+1038215212
1140+1038666751+1040646814+1042959863+1043607191+1044120562+1046053837
1128+1045360369+1041883022+1041765908+1044712177+1046060388+1045877411
1117+1045256356+1043584229+1042996357+1045001182+1044339098+1038787752
1105+1034997358+1034778823+1033999769+1033198328+1035512385+1040147480
1094+1042795529+1042030944+1041175085+1043140176+1047673418+1051314162
1082+1053080728+1054417710+1053663633+1052660789+1054263238+1054357246
1070+1051264135+1047932119+1045660675+1047289757+1053368726+1057711361
1059+1056654171+1052506605+1048620980+1047467191+1049390461+1052707145
1047+1054321903+1052520498+1050867806+1053040419+1054352423+1047667155
1036+1036347008+1030847777+1035096188+1041565512+1043194234+1042395745
1024+1041917789+1040077874+1034672434+1028856917+1027732496+1029762155
1013+1030878585+1030284811+1029452995+1028149700+1026015021+1026560568
1001+1031054220+1037123039+1041680394+1042627885+1043153349+1046351984
989+1050214215+1051099010+1048587437+1045769295+1043189555+1041999992
978+1045533412+1051169048+1055180856+1058290667+1060673681+1063438989
966+1066281604+1065338864+1063013651+1063801127+1064960818+1065431864
955+1068720836+1073088232+1073552152+1069944159+1065075053+1061443234
943+1060502941+1061678613+1064136848+1068363233+1073210241+1073741823
932+1069699566+1068764889+1071443674+1070044645+1065792923+1065604691
920+1068941603+1071596635+1071834173+1069552365+1067092978+1066054215
908+1063514425+1059779313+1059304380+1061704814+1064804691+1067779320
897+1068026000+1065942932+1064815416+1064361717+1062483436+1059559050
885+1058723706+1060037366+1060062128+1059012424+1057425667+1053798814
874+1048802733+1044664957+1042916818+1040991461+1036724910+1034067071
862+1035825000+1038394158+1037351652+1035094101+1035641663+1037313574
851+1037743447+1035956006+1031441407+1026253640+1022614479+1021440535
839+1022499164+1023083581+1022401774+1022208360+1021110356+1018632902
827+1016738497+1015542239+1016067559+1019791802+1025290169+1027543257
816+1022741670+1015809506+1013633078+1014919744+1014891384+1014556455
804+1016755125+1019148577+1018618722+1016507293+1014668098+1009554471
793+1001539923+999493493+1003790420+1006442645+1005224145+1001748597+997213556
779+993473693+991908819+991382923+989812074+986523966+981719715+978772654
766+979398676+977477278+970390570+964656680+963468772+961667511+956030723
752+952685102+955129229+956185339+952928975+951245475+950509970+946742322
739+942069868+937814187+934163365+933021381+932731440+930620947+926283279
725+918907782+910186666+903965390+902306220+903701290+903284590+900668716
712+900760276+904312700+907995985+910348552+911896151+912453718+911948193
698+910942830+908600269+905224344+903116082+902055365+900783022+899538177
685+899289769+901682357+904233952+903213473+901446115+901217214+900877966
671+897660399+892515173+897526226+910109862+915722967+915114365+912559819
658+911591166+913755717+916904181+919800639+920780161+916534053+907455477
644+898325003+895054099+900112012+911124655+920189194+917936610+908451339
631+905808400+912703782+913989872+900840967+886976064+883022416+887620225
617+896905891+902695423+894949438+878648182+870554383+877810247+895984314
604+913401929+920731717+923745001
##END=
