##TITLE=Sample description
##JCAMP-DX=4.24
##DATA TYPE=INFRARED SPECTRUM
##DATE=12/9/2023
##SAMPLING PROCEDURE=Instrument type and / or accessory
##ORIGIN=Default
##XUNITS=1/CM
##YUNITS=ABSORBANCE
##RESOLUTION=4
##FIRSTX=4397.6552
##LASTX=599.8556
##DELTAX=-1.9287962
##MAXY=1.9684272
##MINY=0.33478534
##XFACTOR=1
##YFACTOR=1.8332407e-009
##NPOINTS=1970
##FIRSTY=0.34881723
##XYDATA=(X++(Y..Y))
4398+190273560+190211183+188950140+187364062+187172526+188395805+189135303
4384+188809992+188437796+188411346+188547089+188904410+189670992+190486018
4371+190959281+191716158+192454258+191927916+190852524+190366613+189990857
4357+189274184+189006258+189620645+189682469+188587698+187884371+188301858
4344+189045063+189442895+189563161+189725159+190506014+191507390+190932864
4330+189318629+188688912+189075999+189915898+190351559+189636203+188894640
4317+188755044+188296363+187401110+187025712+188121588+190101646+191121539
4303+190928117+190692884+190880502+190732517+189908631+189479797+189827413
4290+190529147+191344385+191702307+191620829+191662218+191597061+191137259
4276+190866879+191013692+191021056+190829423+190926703+191459156+191808950
4263+191599435+191494238+191753060+191407785+190177386+189515302+189941453
4249+190655298+191415605+191283926+190030475+189754665+191013546+192111730
4236+192321034+192283091+192372812+192278718+191847950+191433829+191279634
4222+191071956+190816808+190798731+190863156+191231515+191870140+192311898
4209+192703488+192762191+192301754+191948189+191723473+191700584+192210489
4195+192377542+191782810+191635200+192035373+192022059+191812413+191899451
4182+192055742+191796644+191011774+190324346+190462804+191340320+191972037
4168+192082452+192454827+192934722+192848627+192501337+192572053+193214808
4155+193703466+193326215+192615556+192614418+193367506+193889978+193781400
4141+193499088+193082121+192432165+191858940+191615448+191714028+191844666
4128+191484988+190758642+190680789+191785492+193179303+193574258+192736017
4114+191615171+191127147+191029412+190788066+190728697+191271539+192181991
4101+192727597+192484657+191990049+191970509+192567355+193345885+193846102
4087+193945186+193649266+192966715+192172936+192147722+192922595+193266553
4074+192800865+192022611+191565735+191821696+192190087+192288895+192543653
4060+192912158+192935178+192615751+192301071+192226096+192274687+192094401
4047+191871587+192207888+193133801+194017138+193984462+192872183+191946124
4033+192445284+193664678+194389870+194775152+194768080+194031135+193020037
4020+192216017+192114071+192584408+192885644+193078447+193400085+193553645
4006+193396264+193187497+192937307+192397343+191646888+190778264+190071068
3993+190471631+192133417+193476458+193618980+193364304+193078252+192744926
3979+192737676+192947646+192693685+191910441+191446167+191740494+192503580
3966+193120975+193143506+192989865+193033368+193194227+193172654+192468970
3952+191673955+191903109+192798248+192760061+191727976+191830637+193193934
3939+193543696+192528485+191661698+192112023+193637952+194535676+193598009
3925+192115551+191857980+192047354+192088174+192608192+193337237+193585882
3912+193371148+192866867+191458896+189353760+188536896+189262690+190619453
3898+192605802+193370546+191623430+190008447+190590955+190394948+189751950
3885+190965621+190986218+190181938+191191036+191027982+189312273+188229256
3871+188053001+189610192+190926166+190661590+191399950+192858462+192258446
3858+188650400+183187131+182619417+189507060+194103054+194416888+192361806
3844+189932366+188098114+187366793+189014045+191270726+191480599+191316407
3831+192126508+192345842+191536506+189851847+187396006+187627598+189605445
3817+190271235+192415290+194479460+193538575+190650828+189038430+189645420
3804+188885049+188672883+191047035+191992699+192652491+194292102+195019067
3790+194836618+194199570+193373700+192983070+192340802+191567003+192311297
3777+193628864+193600708+192169409+191107363+192044932+193431314+194032793
3763+193407205+191396926+190327727+190615193+189064701+185006411+183045162
3750+186680015+188965064+188336501+190581233+193177661+191965892+189107114
3736+187655137+189017621+192310435+194533871+194199732+193272893+193855953
3723+195455817+197272480+198842789+199456380+198470578+196971017+198539002
3709+203009300+206821448+208831012+210739671+215144698+220616307+224426700
3696+226027507+225015434+222058075+220864952+223026174+224202049+222750250
3682+220015559+216730581+212690028+209770255+210092169+209515757+208133992
3669+209918337+212154339+212617718+212594943+212360148+211418970+211226752
3655+212163004+210577592+206386859+205884188+210741784+214675434+215999781
3642+216264065+216354045+216009031+215553227+215239881+213657005+211499863
3628+213329645+216459974+216554929+214667224+213129835+213830561+215333681
3615+215673413+215420248+215111876+215324058+216529503+217237675+216750854
3601+216247922+216209670+216116812+216328327+217075368+217165414+216424680
3588+217137843+219416194+220388308+219927237+219550181+219651915+219768442
3574+219851351+219764866+218894047+217965744+218736878+220266627+221055659
3561+221536563+221920691+221784736+221493174+221761652+222133197+221698755
3547+221098820+221584877+222775091+223411018+223174614+222817033+222956970
3534+223357354+223342951+222617580+221978239+222021904+222198760+222199004
3520+222177611+222174619+222185462+222096734+221963494+222139554+222368480
3507+221860395+221038216+221269824+222418111+223205095+223389543+223308991
3493+223037668+222777675+222695531+222675356+222600576+222558585+222772002
3480+223036871+222956693+222809408+223033815+223528179+223952233+224106541
3466+224100770+224131414+224350667+224760595+224968728+224867368+224806861
3453+224949627+225173058+225170392+224910806+224723221+224867872+225383126
3439+226043389+226652818+226911835+226820814+227046716+227643010+228039346
3426+228063780+227994169+228254649+228816511+229362880+229876817+230348926
3412+230739037+230996851+230891817+230663882+231017659+231892494+232575955
3399+232909883+233203266+233547760+233783823+233858262+234140770+234853770
3385+235627602+236126778+236353704+236580598+237080343+237777037+238367495
3372+238563533+238591170+239049070+239995483+240850614+241218290+241385425
3358+241677784+242186503+243005447+243869260+244368745+244475551+244720587
3345+245569444+246456974+246860074+247034166+247141005+247372548+247792294
3331+248198954+248602054+248856990+249022629+249637357+250555044+250758025
3318+250043984+249707017+250089974+249945469+249452763+249854513+250646293
3304+250615633+250005960+249746277+250292597+251606702+252994824+254154247
3291+255589577+257015317+257802187+258242124+259205215+260849119+262271054
3277+263321850+264221769+264636914+265148576+265985955+266123128+265870191
3264+266395346+267142858+267181939+267080660+267257776+267238366+267168300
3250+267237960+266939520+266480108+266354818+266480400+267053837+267766593
3237+267851566+267675003+267647448+267521020+267581982+268084573+268377338
3223+268061017+267514046+266896652+266322971+266306113+266753918+266804509
3210+266128834+265316767+264949790+264825882+264348636+263573275+263055680
3196+262843824+262672089+262473417+262225031+261900435+261244187+260185084
3183+259396881+259123038+258805546+258213236+257583600+257128219+256902756
3169+257118563+257700160+257803097+257251672+256758316+256411171+256086461
3156+256027109+256179449+256236023+255943826+255396530+255147885+255433693
3142+255935990+256153731+255549749+254156767+252795030+252191486+252284718
3129+252416201+252020173+251271799+250723804+250344732+249747350+248761742
3115+247556882+246746765+246437060+245901599+244955609+243965629+243025833
3102+242070918+241048441+240102191+239502809+239181172+238641939+237640774
3088+236752382+236383096+236149049+235975705+236034895+235910678+235353141
3075+234795376+234459172+234091772+233708148+233636733+233923142+234252355
3061+234359698+234360560+234505796+234661779+234524508+234212933+233979910
3047+233769826+233623110+233612120+233510191+233307439+233217084+233022769
3034+232431775+231905109+231951001+232187096+232137660+231831775+231446314
3020+231125733+231011660+231094992+231057520+230792180+230526888+230226725
3007+229800054+229473149+229294797+229049062+228851918+228768212+228711558
2993+228966413+229424948+229722883+230040164+230439541+230819475+231210967
2980+231451012+231446330+231362674+231189394+230754513+230445865+230730274
2966+230953738+230651348+230501478+230552345+230289980+229839216+229507922
2953+229408074+229300455+228922683+228708388+229033131+229448910+229545653
2939+229439433+229287888+229160501+229109212+229184496+229266933+229137742
2926+229018158+229005673+228609596+227757082+226955793+226498786+226285467
2912+226084275+225979484+226291059+226827804+227146304+227219232+227113466
2899+226960800+226991850+227083407+227039189+226952818+227031370+227366809
2885+227695015+227721350+227633597+227771648+228142755+228506822+228659358
2872+228688799+228866045+229125712+229203906+229110935+228921301+228664706
2858+228464165+228403836+228315026+227957023+227462951+227060014+226840680
2845+226924401+227202731+227511152+227888436+228309190+228549528+228599599
2831+228803554+229084762+229117941+229075528+229172450+229324449+229432979
2818+229491324+229442147+229258984+229142034+229209450+229387753+229674731
2804+229966245+230119399+230378725+230844949+231108257+231025950+230951755
2791+231180859+231484647+231519014+231446249+231407168+231327559+231315806
2777+231480648+231746590+231957163+232047517+232048996+231985612+231867166
2764+231739893+231695658+231701283+231641264+231643296+231858891+232068033
2750+232215204+232443691+232522032+232484983+232615247+232747918+232845262
2737+233072530+233318265+233488017+233623191+233658240+233559042+233507395
2723+233578973+233677423+233898692+234251380+234439404+234417376+234453710
2710+234696828+235030512+235212196+235219771+235247700+235377591+235504523
2696+235550935+235624383+235858690+236236965+236565593+236686591+236672058
2683+236652745+236672724+236716211+236852067+237101233+237206901+237092113
2669+237041490+237132885+237188222+237203861+237227677+237119131+236861724
2656+236645121+236542102+236511231+236553449+236615192+236575737+236559676
2642+236769533+236888580+236620817+236393094+236530235+236744855+236756690
2629+236592595+236394931+236242899+236144091+236069213+235998302+235870736
2615+235576865+235237101+235120655+235231167+235301363+235197760+235048638
2602+234948562+234864483+234707216+234516737+234510820+234679141+234739079
2588+234608489+234479688+234394715+234277374+234207893+234236716+234271213
2575+234166959+233932148+233767615+233754951+233803103+233749814+233487237
2561+233131347+232891578+232738586+232439367+232111292+232049305+232029472
2548+231829223+231667290+231560484+231353879+231173170+231147436+231127765
2534+231020959+230939871+230837682+230651105+230488815+230391437+230401012
2521+230460528+230388609+230191985+229992483+229873306+229834062+229757754
2507+229525073+229270477+229267795+229428768+229474433+229404204+229402839
2494+229550270+229681982+229667903+229669562+229812587+230027142+230275381
2480+230531830+230710149+230722894+230559937+230384268+230367833+230484344
2467+230619599+230697924+230692201+230652015+230615551+230571561+230654518
2453+230925549+231133276+231175544+231201522+231299647+231547544+231901695
2440+232167897+232343583+232474953+232481228+232431726+232443398+232432637
2426+232355369+232422866+232740180+233089713+233318444+233454805+233567073
2413+233710424+233863415+234023251+234235741+234448183+234515063+234474811
2399+234530393+234692000+234848096+235000795+235194752+235402057+235518097
2386+235289301+234355959+232593155+230136956+227091032+223581842+219904071
2372+216175206+212263925+208343735+204827978+202100749+200523563+200419537
2359+201935468+204663770+208321773+213356680+218749899+221473292+219981095
2345+216062418+213232024+212475684+212914678+214069631+215458126+216680511
2332+217675254+218885219+220581941+222246344+223621232+225236605+227362859
2318+229577777+231424628+232914808+234278789+235601542+236977617+238468595
2305+239924392+241155003+242035300+242593309+243131160+243851751+244565125
2291+245144593+245677680+246137889+246474304+246702547+246820164+246888702
2278+247007896+247184166+247343839+247511315+247812566+248092798+248085857
2264+247995193+248114631+248408795+248801539+249183163+249410301+249527154
2251+249635699+249711553+249698970+249642299+249676861+249909883+250290045
2237+250568115+250566213+250525100+250723837+250978156+251045653+251024910
2224+251083434+251187070+251269653+251378361+251500709+251592218+251694423
2210+251901646+252191778+252319263+252259845+252298617+252479895+252636251
2197+252738960+252842385+252951483+253097549+253351104+253655575+253820921
2183+253804095+253791756+253865480+253947007+254048562+254192173+254347115
2170+254535757+254726854+254848096+254964234+255132603+255261616+255316612
2156+255376128+255461248+255545116+255652263+255825543+256019744+256156658
2143+256259578+256370806+256493658+256624133+256726550+256789122+256836347
2129+256894562+256948535+256974318+257065290+257247120+257370687+257413913
2116+257501016+257661957+257872708+258116931+258281432+258316904+258354392
2102+258400837+258382435+258400333+258484478+258563273+258724393+258973656
2089+259117137+259135848+259199314+259325677+259374821+259361084+259414064
2075+259484716+259546751+259663994+259689663+259560407+259495266+259604023
2062+259830868+260101476+260305286+260389527+260412027+260439956+260510184
2048+260610862+260689105+260727243+260751579+260815923+260934856+261028527
2035+261073574+261189744+261411793+261554868+261533474+261512780+261567678
2021+261627730+261716882+261871645+262057247+262288579+262587115+262907615
2008+263137435+263187961+263199795+263353616+263545883+263659143+263743401
1994+263775232+263846549+264159376+264612855+265010557+265278060+265489965
1981+265768571+266049014+266268544+266467476+266641357+266680747+266541330
1967+266505728+266845443+267371183+267752238+267919503+268015433+268211033
1954+268514268+268755370+268865736+268886951+268776731+268648515+268987547
1940+269814392+270497902+270847973+271053245+271254080+271551544+271889373
1927+272041892+271943442+271930778+272076633+272223430+272743139+273595767
1913+274110061+274213844+274402713+274909238+275553585+276167533+276649022
1900+276964499+277132202+277270221+277495473+277535432+277542129+278140309
1886+278972128+279564585+280135388+280714709+281183745+281597672+281987311
1873+282008542+281392871+281065820+282121461+283761267+284949985+285631691
1859+286102840+286631441+287264539+287905083+288410274+288625415+288405723
1846+287950732+288445584+290068841+291351197+292107521+292926367+293584826
1832+293412083+293063086+293883168+295307932+296688315+298115192+299266520
1819+300068687+300727861+301245862+301508699+301870865+302822983+303978310
1805+304698544+304889006+305054564+305912036+307104298+307461489+307139965
1792+308110876+310695778+312713487+313604123+314119751+314653911+315524161
1778+316589784+316823879+316008739+315792428+317706289+320395722+322403904
1765+323246257+323452522+324359284+325796533+327045043+327974142+328038193
1751+327500554+327882097+329571324+331347101+332433922+333080318+334197734
1738+335198882+334764018+334946742+337764602+340679677+342949200+344599183
1724+345615483+345967992+344936346+343328402+344389180+348168653+351582871
1711+353615308+354136755+353926297+354330437+354523111+353895475+354581667
1697+357016163+360995332+365165288+367293087+368146592+367907262+366344154
1684+367317016+372102124+375757688+377138592+377746688+379193788+380504300
1670+381834906+385352841+388898771+390481777+392100287+395043713+397294444
1657+396891085+394195410+395238858+400949423+403431389+405286401+410399275
1643+415358166+418001527+418544141+417647587+419384479+425446317+430244593
1630+432619102+434485461+436686674+439662516+444141641+447972647+450332103
1616+454702373+461222194+466362412+470161587+474098846+478745090+483558939
1603+488471076+493857679+499478768+504925293+510461977+516353479+522288126
1589+528101758+533795319+539620884+546078669+552955680+558778676+563347896
1576+569588883+576973166+582281737+587655790+595606260+603867621+610840026
1562+615491894+618274705+626540488+639833017+650748632+660084231+668803184
1549+677666041+685367003+690835215+694655719+700127052+713175406+726715752
1535+735531204+743821892+753816471+762574049+769170991+774856001+780760606
1522+788923517+799568556+809457596+818252435+826813634+834155130+839034461
1508+842097861+849439357+862099243+871889898+877927872+881836747+886360708
1495+892544472+897482001+900810515+905287527+911245453+916417729+920975699
1481+925648115+929929592+932733667+933398823+934259644+939377948+946283896
1468+948722716+946451339+946089467+949449778+949896900+943899308+939965333
1454+943666968+947609267+947566610+943142724+939901607+941006603+941900067
1441+939545847+934322980+926288757+919835718+917392476+914996444+914185108
1427+915124416+913247425+913269859+919561632+924436671+924891141+928260491
1414+933166028+937239810+942072778+945820777+947333099+948739623+951975018
1400+958310034+965637094+968867482+968031306+968090285+970062019+971328671
1387+970323751+968500277+968553079+970940723+974467632+978459416+983136905
1373+988175356+991216322+990361158+988233750+989086703+991230888+989334714
1360+985495482+985955805+989023367+988704932+985736926+984258287+984118155
1346+983247125+981467283+979206961+974988820+968229376+962413403+960250165
1333+960803151+961453741+960558066+959457297+960018606+961833626+963919483
1319+966582319+970357760+973662539+974848558+975633233+978006831+980912867
1306+982873222+984632255+986078315+985549909+985221200+988169698+992511780
1292+995330291+997077814+1000197267+1005901784+1013321117+1020191951+1024024225
1279+1025514048+1028033956+1032812431+1036842971+1037176557+1035236295
1267+1034077327+1036318597+1041276025+1044335848+1045184054+1047221791
1256+1050029962+1051646131+1053269194+1056090565+1057491107+1055693708
1244+1053470451+1054767145+1060031693+1064435745+1064276951+1062754484
1233+1063319760+1064097087+1062842140+1061528409+1062009931+1062522405
1221+1061934890+1062111372+1063615241+1063924572+1062393652+1061197879
1209+1061345880+1062353011+1063470296+1065852739+1070162828+1073369481
1198+1073741823+1072124678+1069676624+1067108661+1064035247+1061830327
1186+1062277905+1062401065+1059022677+1055927999+1057491107+1061252176
1175+1061471186+1056648558+1051946099+1051637093+1053625214+1054231977
1163+1052857836+1049586481+1045527395+1044789343+1046241126+1044524750
1151+1042778723+1044060266+1041705460+1034557028+1032185185+1036983623
1140+1040396411+1039710771+1038296769+1033999100+1028019000+1026130174
1128+1026480862+1024842324+1022545131+1021888753+1023130240+1024102972
1117+1022008207+1017635172+1014665801+1018077353+1028452272+1033506459
1105+1024467901+1013263894+1011540756+1017076465+1020174264+1016676811
1094+1012796353+1013297122+1016174221+1016925668+1016684289+1020322134
1082+1023964855+1023015078+1022396545+1025382369+1028841586+1029635169
1070+1029702862+1031404476+1032154883+1030246744+1028118230+1028148338
1059+1028636167+1027763706+1027060899+1025475292+1023797867+1027279128
1047+1035192077+1041338190+1041481769+1035909905+1030050364+1028709972
1036+1031514826+1034987894+1034187612+1028006710+1022964877+1023114568
1024+1024408597+1023150203+1021361063+1022239181+1024785750+1024982196
1013+1022303102+1021964444+1027549313+1033075983+1030973090+1025847634
1001+1025338216+1028608335+1032020473+1033619800+1032607662+1031516322
989+1033748488+1037139882+1037686560+1037525359+1038246568+1038439697
978+1040881509+1045976403+1049183576+1049094945+1046622376+1043692281
966+1043074464+1044758781+1047158325+1050071969+1053160339+1055463449
955+1057692234+1060305000+1061175705+1059904306+1059577093+1059260153
943+1054763503+1049826234+1050947031+1056224195+1060685470+1063225472
932+1065054213+1067713018+1070186757+1069815391+1066649964+1062748762
920+1060084820+1059577743+1061312391+1063239452+1061763935+1057632734
908+1056217887+1061584917+1069048858+1071089911+1071270294+1072454818
897+1069225145+1063196080+1062508229+1067088048+1067396404+1059422460
885+1052714517+1054482069+1056531445+1051604124+1046272534+1043801915
874+1041964981+1041506544+1042553666+1044437940+1046709057+1045987457
862+1041519549+1038575603+1039050491+1040193983+1040331839+1038245658
851+1034204389+1031150158+1031830920+1035604410+1037944065+1035813666
839+1031051837+1027694908+1030052640+1037021013+1040572503+1037782669
827+1033721177+1031126813+1029266339+1028574066+1028981263+1027781718
816+1023411415+1018396048+1015633591+1014756318+1017202291+1024027281
804+1028455458+1026674446+1024473493+1023277200+1016802053+1008287673
793+1007324760+1010249654+1009582611+1006862486+1005085506+1004014779
781+1000117739+992650937+987118610+987038562+990417991+993772255+994078595
768+991173794+989810708+991194733+989724158+985417645+986602039+994903456
754+1001280219+996400042+980510028+965493320+960983340+963774669+967094923
741+969981581+970250986+963353817+951894711+943471238+940706635+939364097
727+937225570+935272563+930826763+923261641+917828154+917510890+919455183
714+921933865+926386101+930838598+932780551+933263633+934909975+938485329
700+940405562+937565658+932746347+932443063+934309780+927158422+915880739
687+916608712+928018267+935912359+935128269+928783370+921146588+917584045
673+921247249+929007126+933368456+930994727+929086068+931034263+934981309
660+937131541+934411416+927487846+921781377+924756666+932881732+930090078
646+925550315+944791472+972056708+966378396+939871304+925858411+932062398
633+935115394+874498828+791677326+779492198+845056243+905639840+910068213
619+905134714+907116528+916505449+918455595+907695719+902250657+906984069
606+913463183+918843218+921335230+920393971
##END=
