##TITLE=Sample description
##JCAMP-DX=4.24
##DATA TYPE=INFRARED SPECTRUM
##DATE=12/9/2023
##SAMPLING PROCEDURE=Instrument type and / or accessory
##ORIGIN=Default
##XUNITS=1/CM
##YUNITS=ABSORBANCE
##RESOLUTION=4
##FIRSTX=4397.6552
##LASTX=599.8556
##DELTAX=-1.9287962
##MAXY=1.8428557
##MINY=0.29309815
##XFACTOR=1
##YFACTOR=1.7162931e-009
##NPOINTS=1970
##FIRSTY=0.32326329
##XYDATA=(X++(Y..Y))
4398+188349697+188343654+187902374+187050531+185712278+184858420+184615840
4384+184635792+184432854+184069957+184961530+187208824+188762899+188804366
4371+189210500+190274796+189724451+187824703+186819481+186944539+186895936
4357+185784826+184193747+183574048+183973863+184316600+184808966+185744488
4344+186064409+185202217+184049797+184058792+185653447+187455850+187851497
4330+186778154+185691406+185951680+187118981+187802668+187460955+186578030
4317+186212996+186498153+186450349+186013358+185899899+186378635+187300856
4303+188127520+188128458+187340550+186572108+186415864+187030388+187554531
4290+187377866+187401291+187838161+188791950+190265385+190153489+188045126
4276+186476448+186155155+186171808+186485165+186793556+186724897+186681538
4263+186569799+186154669+185825250+185807590+185909172+185823444+185603177
4249+186032441+187406413+188397588+188191352+187475524+186627848+185923185
4236+185568518+185318298+185416128+185981547+186426161+186607618+187040581
4222+187834393+188833538+189999398+190426596+189243423+187705775+187276667
4209+187346333+187195558+186951276+186794841+187133029+187805689+188198419
4195+188212606+188156380+188075080+187357689+186355662+186150467+186625573
4182+187278004+187708345+187644288+187594105+187859936+187792388+187385385
4168+187968445+189275513+189358219+188527873+187998086+187280852+186604597
4155+186911234+187667417+187945785+187505408+186490131+185528320+185384074
4141+185995039+186526753+186816095+187364600+187896731+187934290+187629111
4128+187101426+186429252+185879618+185704342+185940480+186294088+186533646
4114+186742817+186875689+186830559+186792236+186778293+186852317+187324158
4101+187902444+187969088+187311778+186283165+185765135+186201918+186750405
4087+186491017+186079030+186310358+186427533+185959407+185704116+185827334
4074+185482009+184474373+183597542+183325599+183480819+183993502+184880334
4060+185734678+185930982+185429568+184748018+184537492+185261968+185892520
4047+185341496+184853350+185389318+186118256+186314855+185847199+185073182
4033+184573176+184526709+184854947+185219286+185114840+185018867+185448305
4020+185628408+185365095+185259398+185216334+185128644+185382633+186084430
4006+186991544+187669692+187338137+186100006+185149759+184994834+185248667
3993+185519360+185720300+185823357+185812748+185713997+185433163+185038054
3979+184891534+184997873+184751907+184298177+184553519+185334447+185827368
3966+185855308+185699775+185784305+185983491+185733288+185037030+184379963
3952+184245875+184751820+185434326+185597430+185203467+185221387+185828810
3939+185833620+184860903+183891312+183957141+184834318+185137865+184237992
3925+183403148+183557795+183580994+183497020+184426065+185838933+186499091
3912+186042044+184674063+182207213+179198960+178158870+179635951+181750062
3898+183610982+183799507+181667598+180093051+181283898+181768520+180970558
3885+181284263+180775748+180377791+182254930+182454065+180580190+178878258
3871+177391609+177691699+178426837+178106985+179531349+182221816+182802828
3858+179702770+173254586+170773949+177776559+183627409+184555065+182263074
3844+179207399+176876582+175348935+176121632+179052978+180699206+180984363
3831+181534848+181982605+181933968+180136184+175954483+175028025+177755791
3817+178867249+181469297+185163251+185328751+182038761+179682679+179766410
3804+177957044+177040102+180162230+182028603+183147614+185304910+186632710
3790+186936048+186724706+186057047+185715386+185309216+184688857+185949110
3777+188301650+188764705+186844399+185024944+185982120+188558261+191080068
3763+191705637+189713980+188923051+190600326+190420605+187031152+185973819
3750+191754882+196296355+198119231+204532321+212018876+214835739+215207544
3736+216328934+219277020+224561288+230156257+233105523+234150701+235459157
3723+237323932+239344431+241228255+242997301+244323052+246416100+254123025
3709+266813469+278578392+287514975+296210748+307944642+320185713+329255914
3696+335096484+337664881+336524251+334008851+333907859+333972802+330459889
3682+323669697+315656395+307074410+299008007+295591640+293820719+291529214
3669+293219321+296169386+296657186+296046481+295214486+293673608+292755415
3655+293343615+291542480+286819324+286967720+294677788+301795021+305221251
3642+306597827+307771831+308736526+309064295+308976466+307930715+307272085
3628+311435641+316130858+316107347+312426277+308582191+308513533+310056147
3615+309658573+309396684+311202681+314391367+318378049+321797056+323416698
3601+323806354+324066403+324327598+325092602+326427886+326415696+324765318
3588+324408481+325980615+326620595+326152869+326018539+325983671+325586513
3574+325993117+327347849+328065275+327884200+328128898+328642744+328627533
3561+328395476+328377938+328518728+328164043+327220082+327094017+328422356
3547+329806364+329836821+329092516+328575857+328357066+328494696+328879559
3534+329272167+329598304+329317037+328557555+328251977+328314592+328477227
3520+328700637+328542552+327711181+326366277+325431172+325514104+325946233
3507+326330819+326895473+327561327+327669159+326737596+325486356+324793796
3493+324487940+324071091+323401244+322846418+322902922+323408850+323699842
3480+323459172+322952584+322450650+322127082+322088568+322133264+321951980
3466+321428063+320966310+320776483+320134940+318981425+318285358+318350683
3453+318525368+318221388+317858334+318126474+318503281+318441533+318431705
3439+318617955+318736275+318639556+318210274+317813013+317513547+316958409
3426+316392088+315960931+315517966+315076356+314535456+314073738+314189384
3412+314726047+315008461+314990541+314908060+314569490+314151947+314140070
3399+314273845+314100236+313948714+314138229+314134270+313601219+313072440
3385+312955508+313176522+313368919+313056985+312420929+311968865+311892046
3372+312146433+312214467+311998836+312061383+312168556+312102397+312440794
3358+313036044+313284285+313280673+313249903+313249938+313229240+313364578
3345+314079746+314611720+314284784+314025465+314140521+314226371+314378274
3331+314614707+314812904+314811862+314462144+313942984+313799555+314105480
3318+314116211+313600768+313124915+312887926+312540153+312232283+312397626
3304+312325321+311570215+311378582+312148100+312745712+312826873+312944187
3291+313516273+314296661+314580152+314471451+314743655+315336682+315625451
3277+315677753+315985137+316701659+317608391+318418126+318774929+318617260
3264+318516721+318291540+317435824+316856480+317176817+317330700+316471408
3250+315194850+314357784+314177334+314214181+314002093+313837340+314123782
3237+314478605+314356048+314143751+314304232+314540631+314630057+314513473
3223+314000703+313333113+313492796+314423386+314860308+314485412+313600316
3210+312688722+312586134+313381803+313851057+312994543+311574938+310756104
3196+310640874+310755583+310850566+310601805+309849963+309082493+308553366
3183+307871295+306492217+305235073+305259036+305491058+304584604+303320444
3169+302963155+302932143+301927615+300248378+299522478+300157284+300632164
3156+299964436+298723926+298393795+299010299+298514026+296589256+295907080
3142+297657512+298263736+295431193+292596254+293093499+295115301+294088234
3129+290248732+288587606+291112400+293241201+290582388+286509787+286228536
3115+288940849+288676355+283798551+280102132+281412133+284304462+282456634
3102+276946351+274482367+276889917+278961346+275493389+270097989+269200599
3088+273056302+275334088+271544387+266665854+265957875+268160526+268382286
3075+264897573+261741497+262190383+265492354+266829496+263864654+260799915
3061+260877429+262949639+263129413+260510521+258477589+258643696+259589793
3047+259196508+257581380+256593192+256693106+256836449+256169449+255112064
3034+254396531+254296183+254693583+254581271+253435848+252416526+254558506
3020+266063711+286862960+300175482+293923967+279348883+268318767+261897082
3007+257446129+253802861+251161812+249681762+248924415+247904555+246654373
2993+246283992+247613493+249385144+249276425+247887590+247333528+248568429
2980+250578874+250465571+248272922+246823710+247153494+248673240+249160970
2966+247363342+245331331+245296185+248128138+250667588+248709844+244881976
2953+243342834+244845112+247738499+247966511+244999047+242663749+243276971
2939+246154037+247261032+244465596+241300040+240787062+243173098+245923646
2926+245028965+241359582+238829752+239079694+240988332+241045999+238389895
2912+236131783+235983769+237628034+239005253+238079560+236326472+235786267
2899+236604597+237768842+237421659+235767930+234973927+235541099+236589889
2885+236988991+236143868+235082073+234854982+235528562+236448665+236350348
2872+235312150+234704624+234937862+235550737+235719379+235044913+234431465
2858+234500610+234715581+234449454+233425982+232006932+231066652+230940223
2845+231214388+231366552+231202719+231040727+231188116+231400430+231401298
2831+231294837+231236927+231283551+231408817+231439274+231239532+230988027
2818+230921122+230840968+230419379+229928106+229887804+230220036+230493820
2804+230524485+230440720+230454976+230544906+230554022+230444922+230295224
2791+230241481+230277581+230155788+229772157+229446350+229400195+229452202
2777+229492018+229493581+229322247+229014203+228704927+228407666+228258367
2764+228368180+228473981+228397994+228316798+228295562+228141905+227927420
2750+228025043+228315514+228429267+228409246+228331298+228216241+228092538
2737+227894688+227766800+227889531+228102366+228210112+228226608+228179672
2723+228040097+227867913+227841797+227902537+227825283+227802327+227964267
2710+228007261+227924711+227902520+227834538+227661832+227514583+227442243
2696+227392963+227289766+227170873+227179312+227256132+227339932+227486070
2683+227565321+227511249+227459347+227468428+227433665+227216194+226938277
2669+226851681+226850327+226657270+226346535+226155388+226005933+225717719
2656+225414676+225224155+225124518+225173937+225229798+225057197+224793883
2642+224646113+224603310+224547605+224379553+224152722+223964822+223751467
2629+223407079+222948000+222470706+222200343+222278205+222417537+222276035
2615+221902041+221581582+221502401+221559477+221489551+221153881+220665248
2602+220276408+220092623+219983211+219839156+219704026+219569001+219395497
2588+219251633+219112388+218823497+218391177+218140922+218285098+218461138
2575+218354990+218165909+217995686+217749963+217581460+217596410+217519035
2561+217241448+216970669+216691745+216356457+216093595+215893610+215728284
2548+215659729+215610015+215446304+215212354+215057829+215002297+214958522
2534+214941383+214974480+214936052+214737161+214454973+214183099+213986379
2521+213947795+214010723+214018589+213964656+213912580+213813204+213674966
2507+213640515+213643658+213490921+213262129+213153063+213201371+213328686
2494+213493439+213688250+213821243+213801309+213724159+213794884+213993810
2480+214178237+214373170+214523007+214479109+214334951+214274991+214238266
2467+214131354+214101765+214209181+214312933+214329654+214294700+214355406
2453+214555929+214735320+214797277+214804240+214859997+215022475+215265923
2440+215517793+215754191+215944418+215989409+215888383+215752872+215672492
2426+215757004+216029034+216304694+216470992+216507700+216426626+216454496
2413+216659604+216887789+217199878+217564998+217756354+217762813+217691706
2399+217714523+218222951+219738581+223197787+230154729+242153098+259995476
2386+283184930+309798842+337384446+364610886+391791519+419703469+449183004
2372+480485934+511981575+541653680+568769196+590864817+604010536+608957919
2359+606935666+593662353+570219016+543015740+516219137+499839098+503648039
2345+522341982+530975852+521679220+509593038+500651542+496528410+499497854
2332+505144777+504654199+499002171+495926701+496236550+494157933+485890347
2318+472442731+458684709+452890676+456743826+459414359+450853941+431940894
2305+410382735+394280943+384519501+376056531+366207157+354709315+341066454
2291+326649281+313695994+302456082+292365273+283644859+276662982+271201893
2278+266615098+262402193+258469254+255007166+252149410+249724617+247547335
2264+245645192+243982016+242378818+240837801+239503020+238369058+237320980
2251+236318640+235335731+234282409+233295437+232675807+232434373+232257309
2237+231875380+231414426+231127549+230968266+230749197+230481161+230347855
2224+230356850+230386907+230463623+230580121+230632873+230629956+230661872
2210+230801447+231005009+231187022+231405605+231646379+231818980+231973870
2197+232171355+232463563+232828735+233101407+233269373+233466945+233662762
2183+233771706+233842449+233922533+234022326+234129690+234176001+234161953
2170+234162960+234172927+234125592+234021857+233943631+233856305+233640154
2156+233405093+233224243+232980673+232714946+232499681+232273284+232021761
2143+231953415+232250068+232788554+233367655+233827498+234144033+234449177
2129+234777155+235073807+235378482+235681473+235867428+236067899+236435190
2116+236827138+237065724+237132108+237210265+237459670+237830815+238129725
2102+238334451+238615267+238980579+239446395+240020096+240596401+241163347
2089+241754604+242378436+243065508+243900143+244929277+246201997+247676804
2075+249216970+250876759+252736985+254800218+257102089+259642772+262286512
2062+265054807+268176987+271572726+275121705+278840976+282652747+286506627
2048+290302683+293883126+297199440+300403858+303494157+306282734+308744062
2035+310800244+312299031+313212257+313799971+314210187+314208728+313773230
2021+313097340+312247876+311143052+309827007+308427232+306864092+305180896
2008+303511730+301819122+300090536+298404352+296817771+295281026+293711323
1994+292165097+290843218+289823913+288907370+287937571+287009220+286225984
1981+285548583+284996466+284609710+284281072+283964763+283683947+283383508
1967+283152597+283181162+283414921+283693549+283987562+284371679+284859079
1954+285327587+285802849+286381082+286926097+287347270+287820344+288623654
1940+289711635+290723057+291579467+292428757+293319514+294165158+294858447
1927+295310337+295537602+295795636+295990846+296047107+296684552+297778888
1913+298303882+298277107+298377334+298757405+299099899+299312856+299523173
1900+299692892+299717896+299763738+299933006+299846462+299660108+300090501
1886+300857901+301377964+301814260+302318070+302644242+302678970+302554781
1873+302072225+300912113+299969784+300629282+302073302+302998995+303291376
1859+303089325+302627225+302264275+302021382+301705698+301179419+300016112
1846+298277697+297728914+298666693+298962234+298425363+298102109+297668764
1832+295839255+293408037+292819976+293526879+294118274+294637295+294928877
1819+294941761+294618090+293776821+292589898+291670282+291612077+291885322
1805+291905673+291704351+291019865+290333088+290342569+289800766+288291769
1792+288429277+290781557+292647479+293441030+293526289+293093986+293110898
1778+293630961+293043698+290633752+288857969+291014344+294853932+297072368
1765+297220902+296623395+297127690+298378028+299299311+299985064+299811386
1751+298581156+298068838+299488131+301561783+302659314+302581452+302937769
1738+303694473+302976630+302952494+306307461+309724662+311998906+313495435
1724+314421685+314503228+312663197+309964915+310782706+315273129+319242967
1711+321371490+321507383+320469308+320166334+319778137+318194299+318537870
1697+321687104+326773193+332237999+335212305+336324387+335562544+332553440
1684+333315353+340409143+345926285+347636570+347907766+349304416+350641194
1670+352156824+357002312+362269303+364791580+367275030+371849530+375635342
1657+375640933+372052589+373080281+381160089+385283498+388403004+395984559
1643+403360729+407350572+408195174+406753585+408575870+416272828+422163651
1630+424255952+425264612+426532870+428215129+431494769+434143042+434058547
1616+435384385+440355105+444492996+446775887+448888852+451656764+454765088
1603+458112554+461759763+465470803+469116172+473027736+477346216+481716616
1589+486239648+491256731+496818187+502991076+509412206+514287700+517245023
1576+522729520+530810786+536081771+540530727+548061127+556450958+563458517
1562+567228492+567491840+574627305+591070619+605566244+618161305+629519954
1549+639609270+648058973+654750570+659045747+664076965+679070391+696073081
1535+707355049+717719277+729472792+739224127+747225691+754681945+761289360
1522+770086281+781527029+792146513+803693115+816334295+826620939+832275537
1508+834180615+842430142+859960639+873737240+881753529+886511918+892023295
1495+899583943+905746345+910325672+915564706+922824743+930811513+937005795
1481+941467531+945760694+949068951+949598355+949383037+954426549+962349974
1468+964486484+961510997+961578996+963779338+961177602+955766799+957974920
1454+965193908+968624826+966633621+960744465+956809147+955697342+954242487
1441+951034665+943574591+933218837+926865567+923222040+919502873+919331452
1427+920255374+919714787+923539113+928032799+925449747+925916223+935332079
1414+943031643+945229067+946997106+949616137+951884407+955780760+961046536
1400+964711109+966280569+967437104+969818938+973085868+974297066+973222630
1387+973897269+977645053+980916983+981297193+980242899+981267952+984173425
1373+986083365+987742842+990414660+992039478+990476686+987680191+987761526
1360+989662228+989834135+988480688+987400139+988013101+989790586+989124003
1346+984895574+981742068+981641702+980888436+977048900+972469642+969026707
1333+965633226+963620002+965313861+968445973+970778840+973421069+976154149
1319+976750372+976031210+977472312+980960255+982907286+983099891+985856517
1306+991994608+996817245+997894183+997467992+997802985+999200121+1001086376
1292+1002491916+1003566006+1006609838+1012611515+1019861967+1026254550
1281+1030756085+1034075455+1037315366+1040416292+1042852928+1045432160
1269+1048914963+1051260610+1051648529+1052568979+1054481489+1056251959
1258+1058147938+1059938411+1060571724+1060785028+1062259400+1063483796
1246+1063329322+1064798972+1067445716+1067371744+1065700877+1066063305
1234+1067993874+1068807915+1068924812+1070206857+1071820422+1072044214
1223+1071179956+1070679376+1070706742+1070177407+1068297403+1066416080
1211+1067390984+1069284810+1067084399+1063336546+1062671769+1063284592
1200+1064062862+1064917119+1063046700+1059696699+1058121127+1057799470
1188+1058414168+1059383377+1057653123+1054536986+1053615563+1052483130
1177+1049370673+1047828163+1049273016+1050883178+1050522625+1048123982
1165+1044726056+1042971283+1042940653+1041762794+1039651288+1039062428
1153+1040063865+1040905203+1041989086+1042817783+1040097761+1035274707
1142+1032491618+1031884143+1031990621+1032088834+1031040235+1029175512
1130+1028605961+1027808729+1024384409+1021390655+1021171725+1021944092
1119+1022853012+1023636561+1023765196+1023308791+1021314669+1018675495
1107+1017405744+1015292710+1011894506+1012473503+1017636759+1022701664
1096+1026559468+1027139437+1023918280+1024439072+1028490245+1029122238
1084+1030088530+1035571151+1040530550+1041911919+1042479386+1043893470
1072+1044278472+1043106795+1043496659+1046117913+1048391463+1050583400
1061+1052740817+1051234216+1046910561+1045845015+1048898432+1051456480
1049+1051712500+1049669340+1045446815+1041992767+1041294859+1044334802
1038+1050133455+1052339144+1049007064+1044722027+1039884040+1033392411
1026+1029268099+1030047550+1031908453+1032249072+1032658940+1034993543
1015+1037198330+1035157324+1031770233+1031422598+1031395093+1030067137
1003+1030382960+1031999164+1032700615+1034731341+1038460441+1040300090
991+1039880706+1039090281+1040740033+1045653104+1048708814+1047411488
980+1046431930+1048937606+1052746234+1054897400+1055139112+1054384874
968+1053735447+1055150989+1058701583+1060452188+1059508053+1060755022
957+1064457867+1065314485+1062258358+1059889305+1061995115+1066274734
945+1066793997+1063399544+1062274195+1065305594+1068722344+1070468225
934+1069964312+1068959958+1071555998+1073741823+1068986212+1064760145
922+1067147188+1067203032+1062292879+1061452583+1065698307+1069930417
910+1072306485+1070172684+1064611993+1063168737+1065400265+1066616117
899+1068107646+1068581067+1066235351+1063365718+1060705013+1058203295
887+1056832137+1057647428+1059436234+1059404561+1057183035+1054914417
876+1053356973+1049063046+1041178101+1035966433+1036903067+1040703499
864+1043772614+1044967768+1043864089+1041245058+1039397977+1038590187
853+1037536796+1037397881+1038169831+1036966203+1033701427+1031323135
841+1033124652+1039063817+1042640597+1039290040+1032550031+1027506033
829+1027159719+1030015808+1030924519+1031075242+1034769474+1038360631
818+1036586966+1030028796+1023178142+1020244816+1019192050+1017272525
806+1016525441+1016905789+1017122010+1017225988+1017123538+1017132776
795+1016296370+1014077275+1011523951+1008475812+1004217378+1000108971+998325096
781+999441555+1002703762+1004184663+1000369923+993587753+987069869+983571924
768+984890920+988245922+989244928+987330404+984521546+981846115+981036381
754+980976370+975375671+965811106+960466497+960043848+960670910+960567696
741+957582555+950991532+945826887+945850016+946919244+944182899+938742925
727+933453395+930260438+929586214+928307087+924454006+921562216+920611621
714+918015928+915017868+915684243+919077376+922378618+926530783+932619212
700+936725117+936885217+936007553+935429598+935792165+936302330+933668366
687+928199011+926510918+932894263+939818404+939169602+935061960+933206821
673+935876209+943346771+950309183+946186051+936486184+931186166+929371244
660+930684475+935192678+937463519+933932790+929990596+928240685+927343295
646+930131108+936447496+939218569+936092013+933760258+934161375+931124141
633+925447455+922293949+914963483+899898377+894392974+907689624+923190575
619+926196137+923786381+923365122+919337494+915799056+926137098+941430858
606+938965189+919326173+903723606+903301374
##END=
