##TITLE=Sample description
##JCAMP-DX=4.24
##DATA TYPE=INFRARED SPECTRUM
##DATE=12/9/2023
##SAMPLING PROCEDURE=Instrument type and / or accessory
##ORIGIN=Default
##XUNITS=1/CM
##YUNITS=ABSORBANCE
##RESOLUTION=4
##FIRSTX=4397.6552
##LASTX=599.8556
##DELTAX=-1.9287962
##MAXY=1.8861922
##MINY=0.25479272
##XFACTOR=1
##YFACTOR=1.7566534e-009
##NPOINTS=1970
##FIRSTY=0.2680541
##XYDATA=(X++(Y..Y))
4398+152593620+152917812+152887613+152370542+152346145+153077184+153736273
4384+153845225+153649478+153518879+153931341+154694309+154870342+154378566
4371+153887757+153755614+153926421+154571463+155667665+156052016+155152562
4357+154073868+153875881+154480579+155114423+155392486+155319518+154726187
4344+154221433+154762815+155429081+155065682+154618728+154837039+155165014
4330+155177399+155012003+155176059+155445232+155375266+155903518+157175974
4317+157300635+155879936+154974951+155257102+155047003+154171860+154247305
4303+155023947+155207818+155005404+154874855+154693766+155216165+156752823
4290+157504186+156822652+156103285+156163733+157258816+158491114+158306480
4276+156951437+155780129+155535250+156000407+156821465+157816417+158095549
4263+157314496+156740641+157059964+157334176+157133068+157013411+156988693
4249+157248127+157850620+157562140+156558077+156456641+156887358+156533121
4236+155781265+155915275+156774131+157185050+157260817+157645491+158179748
4222+158592211+158611280+158086659+157576662+157438598+157308253+157527106
4209+158691119+160025142+160252513+159242647+158347146+158331317+158260504
4195+157882769+157933479+158375325+158690508+158625463+158432787+158556227
4182+158939340+159304503+159501811+159226988+158367640+157573405+157528056
4168+158026415+158264558+158018679+158267239+159395964+160149227+159855658
4155+159225801+158789281+158506977+158473385+158757997+159184286+159804456
4141+160312638+160053525+159396557+159305979+159462095+158826503+157972838
4128+157872216+158309313+159028035+159466166+158988930+158169128+157935820
4114+158537056+159450049+159905231+159725516+159364357+159283330+159329205
4101+159247550+159356943+159456564+158971829+158527539+159034261+160076446
4087+160415313+159945015+159703275+159787440+159824815+159882887+159911729
4074+159933699+159882769+159883973+160196527+160273414+159817231+159365528
4060+159218794+159245922+159427112+159928100+160600558+160956882+160589581
4047+159905418+159745179+160000169+160341309+160626973+160533663+160525401
4033+161047155+161483607+161392553+160902457+160270886+159913306+160009127
4020+160384775+160691374+160520498+160116705+160059379+160091307+159940417
4006+160119555+160555311+160961514+161506374+161458634+160444951+159442245
3993+159295834+160293280+161696963+162423337+162387778+161949493+161280124
3979+160450957+159675621+159145962+158835393+158728528+158977580+159498587
3966+159659402+159505407+159993417+160909124+161095523+160525214+159897817
3952+159366647+159223510+159956212+160159576+159124280+159248568+160476761
3939+160277808+158743203+157122974+156600287+157797212+158838464+158049047
3925+157094099+157518641+157693282+157403446+158533087+160633861+161634785
3912+161460330+160483581+157286316+152492336+150166380+151478162+154715160
3898+158833035+160813270+158753179+156400129+157414745+157542698+155934310
3885+156205281+156044755+156085200+158629467+158506247+155240951+152434756
3871+151562039+154221009+156033218+154694937+155559324+158676173+158904849
3858+154250494+146302545+145044391+154928822+161589403+161764367+158438810
3844+154745562+151800844+149142332+149479231+153301586+155927168+157109588
3831+158343278+158723269+158290617+155967172+150937407+149880225+153117884
3817+154784718+158484243+162747342+162572497+158679142+155686446+155135834
3804+152762680+152162003+156122270+158413141+160062415+162431022+163357095
3790+163160738+162371643+161636821+162127647+162087269+161041896+162240043
3777+164721555+164799375+161909302+159038384+159339469+161094777+162824687
3763+163104311+160391001+158500988+159305097+157694351+151489630+147229280
3750+151251487+153999067+152564626+155938348+160911330+159873658+154931553
3736+151864668+154756878+161389313+166126493+166762848+166138946+167201896
3723+169617615+173058334+176886457+178890596+177176345+174181986+177447418
3709+186383109+193989562+198867521+204227297+213552006+223337443+229201906
3696+231159814+229219414+224405330+222200015+226427453+230902331+230964560
3682+227499309+222080952+214975453+210204512+212860275+214928731+214842343
3669+219500837+225223266+227697330+228634956+229298558+228833740+228746164
3655+230456548+229160867+223958461+223696753+232116578+240133271+243953556
3642+245632282+247203533+248769422+249758250+249277128+246054704+242949256
3628+247709678+255160982+257362446+255217036+252790916+254280190+257110052
3615+257904202+258293473+258908096+260257490+263792722+267063786+267778827
3601+267756009+268581358+269265895+270355413+272722408+273634383+271647005
3588+271175724+274919953+278567055+280095621+280817583+281339015+281487530
3574+281880754+282083728+280114249+277504478+279233473+283594377+285741060
3561+286187555+287009156+287741891+287584452+287685770+288489963+288677227
3547+288481311+289351704+291041457+292163956+292300052+292279694+292456609
3534+292214072+291426708+290485264+289725282+289407011+289560887+289956588
3520+290370137+290704558+290751044+290325178+289717580+289576529+289934906
3507+289670925+288571906+288459595+289488445+289393778+288097554+287258479
3493+286998637+286666692+286008740+285068348+284151725+283657947+283926882
3480+284517550+284402270+283473109+282694126+282435505+282120950+281838764
3466+281803595+281294056+280182297+279192502+278648930+278397893+278184418
3453+277914464+277224583+275967430+275176470+275154211+274902631+274377416
3439+274292081+274715299+275033129+274776714+274195666+273760419+273399056
3426+272699437+271894989+271572918+271752700+272207050+272797378+273360884
3412+273646819+273452785+273042817+272922634+272986491+272645640+271973420
3399+271553153+271401906+271352350+271542346+271719838+271614262+271564248
3385+271620115+271635791+271829638+272102984+272203046+272097284+271778199
3372+271503376+271547741+271807227+272153779+272643604+272994296+272758714
3358+272232651+271947921+272059807+272575861+273126829+273263689+273062988
3345+272806760+272580170+272465043+272589518+272919834+273220851+273240056
3331+273254324+273378138+273000573+272516838+272897949+273663122+273795351
3318+273155467+272427193+272171355+272092619+272019735+272250193+272676737
3304+272873180+272554671+272123530+272265784+273058560+274268753+275391099
3291+276142513+276818177+277319844+277528434+277961713+278792220+279682293
3277+280438695+280634866+280400166+280529477+280634934+280403746+280547426
3264+280864628+280613913+280171100+280138611+279994269+279412729+279039457
3250+278975548+278483280+277422315+276713942+276722391+276681623+276024417
3237+275236951+275021474+275173738+275307409+275297806+275157994+274878914
3223+274219129+273533066+273318708+273434531+273430476+272918274+272136508
3210+271599587+271310310+270881730+270464076+270361181+270082541+269582045
3196+269389997+269146119+268369426+267631432+267349229+266945741+266192800
3183+265482170+265001982+264843779+264646421+263591224+261985381+260968492
3169+260530174+260159854+259986162+259901081+259615723+259515610+259913431
3156+260173647+259654030+258517739+257314282+256491205+256168048+256342521
3142+256711789+256711976+256174631+255070523+253635386+252533093+251960358
3129+251799628+251880095+251626530+250934681+250446689+250205407+249650282
3115+248656415+247468820+246595696+246325047+245885067+244651733+243114634
3102+241735823+240491733+239470213+238962014+238749743+238185711+237329570
3088+236786965+236635617+236342031+235684045+235165854+235146225+235204433
3075+234747131+233858042+233091020+232737766+232682052+232676029+232599837
3061+232341963+231918914+231646145+231672339+231937915+232306217+232415220
3047+232167271+232154055+232618126+232850433+232618822+232379185+232101021
3034+231518242+230716560+230155005+230049039+230002130+229839126+229724338
3020+229509794+229012080+228597463+228683715+228972500+228797875+227929450
3007+227037613+226903230+227249545+227455471+227410699+227168569+226989822
2993+227265662+227932572+228731829+229565440+230192210+230474446+230574220
2980+230598531+230604147+230614513+230545243+230211924+229634506+229295199
2966+229350557+229336136+229089069+228729793+228115018+227339037+226915920
2953+226951293+227069474+227159170+227361941+227554108+227462104+227133705
2939+226899074+226763639+226434188+226029733+225839975+225820889+225778323
2926+225620477+225412260+224930901+224053535+223422457+223339649+223332574
2912+223120082+222869758+222892118+223162954+223291501+223159188+222952312
2899+222700104+222430405+222301231+222305845+222384463+222596327+222864617
2885+222916226+222738344+222608796+222592374+222654314+222812042+223024906
2872+223265069+223392716+223356902+223341786+223322191+223165278+222985971
2858+222860817+222620587+222120023+221422033+220688161+220043000+219694124
2845+219820805+220203357+220555695+220838593+221005905+221055953+221150671
2831+221351898+221442035+221312945+221180937+221062095+220859206+220815706
2818+220984563+221013862+220846940+220790699+220925388+221064724+221213087
2804+221479579+221719097+221869156+222121771+222344102+222206275+221978023
2791+221998076+221912044+221658344+221729870+222040014+222167119+222097476
2777+221942548+221700367+221423152+221192287+220875662+220470698+220394082
2764+220715848+220986548+221007738+220891067+220765625+220748998+220862463
2750+221008179+221099707+221123713+221042025+220939927+221031863+221166483
2737+221083200+220943965+220945169+221060466+221142477+221098095+221201924
2723+221614064+221906089+221844471+221746530+221837804+222028919+222066158
2710+221875450+221753740+221838058+221932148+221936491+221860894+221688678
2696+221499989+221398332+221414721+221609992+221943549+222215606+222241784
2683+221993987+221700537+221563354+221539298+221514850+221359600+221096891
2669+220965087+220990246+220982154+220867179+220592408+220228568+220056216
2656+220113305+220129829+219918254+219655918+219629062+219652491+219443715
2642+219221655+219209847+219295115+219339378+219238043+218948461+218530366
2629+218086161+217793066+217679975+217606583+217576079+217649064+217747311
2615+217718045+217565798+217416757+217255891+217098537+217048913+216986294
2602+216747743+216451833+216248825+216137515+216105315+216069806+215927144
2588+215700419+215366523+214981323+214810702+214815826+214688433+214408571
2575+214169682+214048108+213924684+213778629+213700266+213523453+213158171
2561+212790785+212471564+212141587+211859792+211790726+211962161+212118141
2548+212079121+211913827+211654579+211338123+211176256+211259946+211339921
2534+211194205+210966801+210868198+210830247+210717206+210607763+210613073
2521+210648021+210647513+210646274+210627392+210581212+210509482+210430695
2507+210352349+210264112+210223954+210173618+210002369+209842131+209864084
2494+209980263+210049109+210151631+210361849+210564552+210688179+210794925
2480+210926610+211056633+211086034+210940895+210831027+210913598+210938181
2467+210819626+210790276+210887234+211011285+211144395+211209559+211148552
2453+211074023+211123969+211349507+211669729+211965656+212211909+212390741
2440+212536643+212717359+212865382+212955977+213079604+213234295+213379909
2426+213488402+213537449+213620478+213824130+214095509+214349871+214553761
2413+214656436+214633804+214646715+214813162+215073361+215387136+215697314
2399+215959752+216184424+216339675+216444182+216560870+216671280+216614005
2386+216100208+214825903+212557935+209325111+205389478+200949667+196245943
2372+191556639+186981666+182643495+178738026+175533110+173405497+172747884
2359+173905789+176991422+181873351+188463271+195137475+198343511+196426472
2345+191766434+188616180+187958618+188602913+189861033+191011982+191688291
2332+192308817+193657753+195776850+197844677+199454965+201196972+203709344
2318+206578905+208882619+210583163+212320555+214174788+215878793+217501686
2305+219080028+220435681+221517073+222406670+223123408+223712531+224294105
2291+224918313+225622377+226365902+226961727+227317423+227450754+227427614
2278+227413549+227507232+227628196+227707441+227792183+227897928+228016873
2264+228218439+228503695+228800640+229084522+229299728+229437793+229583186
2251+229763444+229940952+230058183+230173158+230368565+230552487+230701613
2237+230894594+231103167+231284425+231458372+231566543+231523434+231457930
2224+231540247+231741914+231967825+232116934+232091334+231981279+232025202
2210+232245532+232472410+232676334+232888962+233027043+233101827+233252751
2197+233467600+233647875+233761831+233834477+233904222+233975137+234116917
2183+234339639+234527225+234674519+234840763+234992281+235050947+235071306
2170+235185211+235363908+235511167+235658614+235840042+235960428+236031683
2156+236131846+236169730+236182590+236336568+236531551+236659911+236889385
2143+237225114+237423524+237440371+237412853+237467905+237651454+237887680
2129+238128317+238324997+238377437+238366410+238446164+238557542+238634412
2116+238731352+238872997+239042277+239149651+239167329+239199360+239247338
2102+239302238+239401876+239478593+239542621+239654949+239763069+239872106
2089+239964839+239963770+239946754+240027271+240203542+240411215+240574813
2075+240639451+240663983+240745688+240742617+240525545+240332156+240380627
2062+240569350+240769117+240917412+240979285+241045568+241143221+241210387
2048+241244589+241205196+241098568+241069184+241209573+241391798+241483920
2035+241536479+241591600+241688302+241828895+241909192+241943072+242018788
2021+242030613+241817901+241646839+241941087+242480519+242830651+243040037
2008+243234953+243361362+243456792+243604018+243760202+243869679+243839651
1994+243511930+243211642+243463494+244066088+244621535+245015217+245269477
1981+245498459+245700670+245854682+245993051+246126060+246141346+245886967
1967+245776997+246331766+247156318+247737993+248062779+248165114+248233994
1954+248468982+248805897+249123710+249227776+248852959+248166421+248214823
1940+249347874+250421648+250935360+251242111+251563131+251935318+252264735
1927+252242137+251717482+251385469+251492046+251540923+252182809+253564165
1913+254368071+254330577+254418407+255133583+255996902+256592794+257046262
1900+257430495+257560042+257622153+257950145+257928938+257580333+258250856
1886+259624663+260585872+261254105+261817288+262296781+262818705+263222142
1873+262683100+260719271+259384043+261139758+264152066+265952909+266709227
1859+267319200+268080319+268867157+269512809+269847113+269603964+268492103
1846+266902700+267291649+270322042+272768282+273707555+274446805+274939616
1832+273856426+272297187+272853228+274541217+276452624+278974225+280914150
1819+281851709+282591078+283164661+282990732+282775305+283822342+285549453
1805+286483805+286074362+285345325+286028216+287616313+287742468+286217754
1792+286717283+290580575+293743095+294784024+295131815+295449882+296225167
1778+297476568+297296328+294737742+292765345+295074336+299581058+303140398
1765+304324210+303836455+304418945+305980881+307336552+308620120+308131754
1751+305665189+304934116+307412421+310353271+311896342+312333845+313367072
1738+314340784+312653338+311478314+315472817+320514729+324428647+326860331
1724+327760617+327520115+324753670+320191098+320199343+326145375+331947914
1711+335080473+335285008+333832566+333235622+332315894+329655618+329766571
1697+333870467+340418024+347322364+350507889+350836441+349186590+344983141
1684+344819086+352494367+359100931+361462378+361707969+362999172+364110711
1670+364758721+369313285+375102829+377512424+379300645+383480648+386814721
1657+385436588+379350422+378705194+387279234+391085455+393190419+401222381
1643+409848913+414168710+414117441+411120232+412754237+422601089+430401609
1630+433438212+435348787+437825565+441023984+446315593+450933744+452652203
1616+456497342+464388356+470872463+475106686+479595595+485475666+491412028
1603+496815643+502543602+508666685+514655470+520805834+527366489+533803941
1589+540164642+547067217+554715150+562917207+571020322+576945453+580455119
1576+587249421+597682190+604883798+610683114+619722345+629578630+637465300
1562+641054635+639565345+645785674+664365973+680540647+693476627+704584280
1549+714209971+721056391+724637379+726382169+730699252+746424410+764729870
1535+775727995+783864735+793884634+802403096+807436797+810836730+813421036
1522+817987306+827605397+838545296+848626813+857511117+863638001+865591125
1508+864125450+870789458+888741156+901431069+906464160+908324314+912720591
1495+920158425+924550020+924791336+926972882+935138803+943823933+949015412
1481+952145867+954142966+954754059+954716871+954640256+957284347+963169575
1468+966829826+967163026+967814565+966989300+960208027+950540941+950965890
1454+959340485+963056178+960689098+956079125+955018177+956525111+954568662
1441+948340936+940148074+931939740+927953346+927460061+924572211+918862676
1427+915458060+915176638+915382666+914709750+915637757+923157839+933118224
1414+939257323+942925309+947346221+952500376+955961385+957174886+958344684
1400+961103122+966085316+970370029+972613737+976520461+981263918+983417709
1387+982809262+981991055+981756254+981617748+983571755+987188167+988866180
1373+990664309+995154099+997758288+996432476+994146287+993420507+996756311
1360+1001412838+1001456337+998706925+998319299+999326773+998583620+996970482
1346+994799115+990792160+986134412+982369519+979676160+977608893+974725046
1333+970971758+968456807+967808797+969208103+972630295+975708904+977186318
1319+977888822+980300080+985390106+988469936+987535346+987211375+989969134
1306+993349185+994674725+994825038+995814935+997581101+999170759+1000929663
1292+1002979965+1004446047+1007473624+1015155692+1025277248+1032641995
1281+1036006844+1038643470+1042741292+1046805794+1048825898+1050521352
1269+1053167546+1053742809+1052618682+1053287186+1055475248+1058199212
1258+1061059578+1062111297+1061653095+1062496140+1063719413+1063311904
1246+1064305330+1068519806+1072072903+1072426055+1071625152+1071627188
1234+1072488759+1073330989+1073741823+1073685973+1072791218+1071787070
1223+1070990036+1069964104+1068790166+1067612564+1067755617+1068833191
1211+1068102864+1066397095+1066055480+1065729134+1064969627+1065462777
1200+1065833233+1065223836+1064098216+1061039219+1057108812+1054708887
1188+1052767774+1049506821+1047002185+1047549828+1048542983+1046913897
1177+1044097166+1042853128+1042232737+1040928098+1040877270+1041214678
1165+1040153526+1039768344+1039381125+1036348255+1033673219+1034977383
1153+1037558295+1038366934+1038555793+1037857972+1035351572+1033517613
1142+1033304934+1032088380+1028898681+1026185304+1025987962+1027331147
1130+1028652208+1029083469+1028607691+1028372686+1027643853+1026171867
1119+1025992237+1026864259+1026984713+1025948127+1022157108+1012454801
1107+1004540714+1010104347+1020566568+1021449176+1018622265+1018598649
1096+1018346612+1018867110+1021730869+1023730750+1024111454+1024790748
1084+1025930348+1027234647+1028860679+1029977206+1031183717+1035634351
1072+1040876998+1042676620+1043769191+1043959340+1040936852+1039363346
1061+1041959119+1044822132+1045297231+1042459327+1038009914+1037861229
1049+1040370479+1041257295+1045011873+1050812274+1050627148+1044530056
1038+1038882275+1036881579+1037267237+1037911447+1038151541+1038240440
1026+1037774977+1035556989+1032305265+1030216146+1028062016+1024624148
1015+1023236853+1025355764+1028465657+1030796295+1032461483+1033631281
1003+1033519445+1032092248+1031933723+1035544299+1039761015+1040686782
991+1040316190+1040011967+1040911676+1044995315+1047542839+1044375263
980+1041710882+1045470821+1052231803+1056759868+1058862695+1059259346
968+1058209391+1057284166+1056825286+1055898093+1055104995+1055353572
957+1055901554+1057568846+1063386212+1070795816+1072753690+1070611775
945+1070799752+1073534099+1073158553+1066574214+1060698215+1063037743
934+1069556867+1072801601+1072126921+1068974750+1065102839+1064111721
922+1067224192+1071543040+1071519220+1064022075+1055717785+1055995542
910+1062633288+1066522775+1067989671+1070110278+1070435742+1069669178
899+1068331422+1066485180+1066277727+1064886496+1060816430+1057369536
887+1057055608+1061541734+1065128694+1058456407+1048183248+1046134507
876+1048088378+1046293846+1042754186+1042612694+1046594677+1047730205
864+1042927843+1038081780+1037512760+1039756400+1038895372+1035812556
853+1035802105+1035975899+1033482257+1030885669+1030115779+1031189417
841+1033539396+1036080338+1036251349+1033962106+1032377402+1031749343
829+1030570723+1029297029+1028875337+1030204203+1032823728+1033620627
818+1031309261+1029581505+1029903847+1027723726+1023902508+1023995071
806+1026629254+1029112853+1030212550+1025884541+1017416976+1013157914
795+1017931027+1027397855+1030917971+1024795023+1016897020+1011263490
783+1007031981+1004819965+1002378101+998996830+998594953+999587768+997299272
770+992329700+986475688+982098140+980859191+980670672+978760979+978219850
756+991169742+1010556305+1005308093+983226136+969950441+962950450+956675560
743+952941544+952446087+955037382+957980064+956646312+949312510+939705956
729+935148168+937396151+938255686+933467508+928005464+924124528+921185985
716+919086687+916515343+915568810+917715951+918523504+919661542+923712540
702+925544871+925946611+929059965+932364214+933370669+932582118+929265993
689+925406772+926252056+929826258+929774887+926964671+925673468+925924624
675+927336892+929878308+927729675+918386423+914761054+920508184+923272525
662+924407171+928167857+929115748+923976047+918885952+918857450+923605794
648+927280567+921352789+908351391+900440630+902728312+909076017+924489759
635+969572791+1020553335+1021221500+990467578+943047868+896158292+878673889
621+881149887+888358349+896747806+900251228+899564672+900710312+905694813
608+911851624+916068950+910141919+895668399+894359960
##END=
