##TITLE=Sample description
##JCAMP-DX=4.24
##DATA TYPE=INFRARED SPECTRUM
##DATE=12/9/2023
##SAMPLING PROCEDURE=Instrument type and / or accessory
##ORIGIN=Default
##XUNITS=1/CM
##YUNITS=ABSORBANCE
##RESOLUTION=4
##FIRSTX=4397.6552
##LASTX=599.8556
##DELTAX=-1.9287962
##MAXY=1.7917441
##MINY=0.16566437
##XFACTOR=1
##YFACTOR=1.6686917e-009
##NPOINTS=1970
##FIRSTY=0.18160187
##XYDATA=(X++(Y..Y))
4398+108828888+109011477+108905828+107956594+107192565+107647023+108315422
4384+108106999+107542481+107699950+108779292+109647434+109542392+108826156
4371+108372466+109079379+110138075+110094908+109546928+109458898+109345525
4357+108793660+108440833+108703388+109032489+109224355+109627315+109913740
4344+109872305+109903301+109824012+109360196+109031194+109128163+109123287
4330+108917187+108939065+109173661+109686439+110341327+110394478+110053304
4317+109991608+109826093+109539793+109820396+110431135+110840890+111158060
4303+111341640+110854472+109906185+109530015+109820941+110422928+110984491
4290+110902122+110803867+111515567+112432546+112685278+112036766+111070449
4276+110495635+110104945+109522264+108916365+108583523+108955496+109905881
4263+110430590+110383619+110688154+111547669+112079665+111703192+110967453
4249+110799375+111155917+110953058+110186493+110091095+110631744+110718319
4236+110403720+110608633+111224980+111635298+111833282+111656399+111174062
4222+110952718+111172634+111923437+112901425+113005744+112202084+112015245
4209+112744385+113142013+112980838+112802456+112586711+112262012+112048544
4195+111915159+111754744+112117778+112973078+113194708+112624109+112039677
4182+111914400+112371760+112919999+112821074+112263638+111987813+111960451
4168+112188073+113140816+114049428+113648514+112133262+110814859+110756092
4155+111625243+112026005+111386378+110868340+111586702+112743715+113176420
4141+113236982+113444663+113262682+112311091+111439556+111639611+112305260
4128+112166659+111724328+112240831+113233321+113521505+113064797+112485884
4114+112223685+112256922+112384539+112504404+112531462+112569851+112494054
4101+112074343+111925679+112442458+113051839+113630726+114312600+114436216
4087+113840524+113549009+113807608+113754190+113356544+113338988+113652309
4074+113561725+112943172+112616501+112894308+113069092+112941350+112959648
4060+113164588+113358892+113425178+113247001+112972739+112875591+112760441
4047+112508539+112565931+112953057+113103079+112777068+112511905+112876404
4033+113332826+113254913+113005449+112957656+113081692+113175848+113041374
4020+112902452+113129529+113641915+114103266+114395978+114497626+114287427
4006+113788061+113217381+112913436+113101186+113487625+113555143+113241992
3993+113071217+113432090+114016156+114277461+114024014+113566065+113354213
3979+113304197+113098909+112892183+112992376+113366090+113547375+113374189
3966+113307296+113436484+113825486+114476436+114705995+114401541+113971292
3952+113357240+112840363+113171321+113601016+113263879+113486402+114429590
3939+114465934+113213371+111375600+110556528+111607330+112635825+112276747
3925+111820646+111990581+111436886+110490036+111242394+113415106+114577772
3912+114466220+113891415+111347310+106757342+104288695+105721623+108925322
3898+112376511+113599739+111531283+109899541+111418249+111860009+110689029
3885+110643326+109465461+108853186+111266942+111276506+108450031+106211211
3871+105650979+108243037+110089149+109147514+109994921+112330433+111958567
3858+107359455+99959925+99277998+108545875+114184733+114229695+111532381
3844+108413141+105932171+104012933+104548161+107466569+109272505+110275372
3831+111528568+111810921+111294964+109278783+105255324+105147238+108224507
3817+109201906+111924464+115000332+114115724+110584237+108703879+108870796
3804+107107196+107360973+111423107+113065109+113752368+115199450+115575110
3790+115227222+114594899+113813591+113696226+113110026+112184010+113656033
3777+116025050+116260253+114472140+112998823+113606124+114733597+115782024
3763+115631467+113220497+112213443+113509914+112258601+107173643+104112706
3750+107514513+109036212+107928501+112556367+117812751+116541257+111676982
3736+109146335+112350070+118508833+122486106+122664819+122025612+123551535
3723+126925981+131277647+135335173+137302865+136394182+135371437+140181374
3709+149703368+158678033+165921818+173424067+183031564+190803978+193498916
3696+192287779+187841447+180965341+176296817+176976700+177606593+174492845
3682+168684605+161905226+154641046+149970861+151376848+151912031+150809963
3669+153712521+157000294+157693803+157748793+157516974+155915353+154727290
3655+154887635+152084145+146486301+146281870+153466075+159363560+161239274
3642+161298139+161130455+160644367+159860881+158492274+155148243+152024262
3628+155479434+160396368+160516742+157509509+154911638+155744275+157522654
3615+157368757+156795854+156668175+157245507+159239685+160657137+160029512
3601+159069321+158905351+158671157+158867399+159998882+159723540+157299408
3588+156929105+160075304+162380473+162677908+162323250+161996382+161983380
3574+162290513+161872114+159591985+157264867+158605041+161694053+163042138
3561+163527869+164265974+164583912+163984362+163401672+163468664+163065910
3547+162520350+163362631+164813231+165475075+165448732+165469949+165724718
3534+165691106+164977093+163987273+163404333+163127222+162991220+163306587
3520+163964788+164455340+164415710+163822857+163099004+162923764+163230094
3507+162966592+162066553+161984398+163067088+163883812+163691999+163161352
3493+162917246+162739220+162592253+162776672+162869935+162555015+162254883
3480+161969075+161594825+161578947+162036834+162626258+163011223+163100933
3466+163099343+162971093+162755687+162795085+163082966+163435963+163645082
3453+163497703+163008294+162495525+162573161+163237238+163702822+163754883
3439+163980683+164588091+165075286+165357058+165716056+165923675+165900868
3426+165790138+165474986+165369310+165954697+166779690+167465449+168159423
3412+168701822+168664656+168326750+168537012+169416138+170295853+170616613
3399+170596806+170833090+171214948+171517367+171881794+172248203+172718020
3385+173420478+174022974+174355754+174691695+175120649+175507722+175941820
3372+176477164+177025957+177715877+178585179+179434765+180248506+181030546
3358+181627292+182036029+182477396+183112612+183627453+183697784+183869523
3345+184722324+185858379+186709947+187308014+188113290+189237629+189831392
3331+189492237+189263472+189896437+190796227+191234986+191339840+191515133
3318+191927817+192520223+192917637+193160118+193773009+194710428+195390204
3304+195351966+194799298+194582106+195406938+197145312+198801638+199871719
3291+200909974+201910260+202415939+202855109+203735610+204865753+205855788
3277+206479716+206960070+207754434+208669225+208991200+208783259+208925565
3264+209409492+209213892+208402491+208112592+208450355+208617575+208382059
3250+207936871+207395668+206974394+206808370+206804887+207182513+207937299
3237+208141721+207625451+207360395+207549726+207624505+207212606+206617414
3223+206498754+206751916+206637114+205888417+205113342+204692747+204130809
3210+203361735+202860681+202596804+202407742+202339946+202235735+202005470
3196+201762757+201400687+200800137+199934121+198888650+197898955+197001934
3183+196277063+195845823+195500380+194977931+194290958+193683121+193306156
3169+193091233+192857485+192565104+192342233+192108164+191831785+191684353
3156+191583339+191355181+190962447+190440390+190022366+189917226+190069801
3142+190263793+190290065+190091197+189359718+188053531+187179782+187147313
3129+187172531+186806710+186205214+185686283+185240219+184565623+183723538
3115+182787244+181624435+180559979+179883954+179119916+178003221+176933908
3102+176071767+175177300+174085930+173004650+172265330+171690713+170928193
3088+170183908+169655851+169126829+168663173+168464252+168343235+168060337
3075+167650529+167335627+167280244+167452572+167520492+167232987+166805783
3061+166416835+166294210+166763616+167420549+167689534+167657887+167437409
3047+167082376+166873811+166764581+166425729+165877454+165428586+165124025
3034+164708751+164200268+163812552+163564392+163422336+163300515+163073214
3020+162733469+162366060+162116935+162030476+161896528+161479630+160828555
3007+160202483+159770975+159503222+159252097+158889045+158473968+158286352
2993+158557016+159158066+159757455+160328269+160975611+161406762+161378847
2980+161154440+161081894+161245007+161442392+161348307+160957484+160663067
2966+160567035+160415853+160179640+159840467+159319803+158841431+158701411
2953+158779726+158702358+158564445+158700697+158967985+159088645+159050676
2939+158931426+158849772+158894135+158832127+158372364+157702019+157240167
2926+157145189+157132670+156720039+155890206+155167639+154841057+154634206
2912+154424712+154556302+155002991+155189374+154982952+154793871+154752633
2899+154740953+154740435+154768368+154859309+154999561+155163442+155375865
2885+155575537+155767635+155985792+156085484+156155012+156420479+156728005
2872+156847540+156791121+156702287+156666514+156624633+156536209+156505687
2858+156565964+156461967+156041442+155396475+154593861+153929712+153753348
2845+153945286+154224951+154528173+154852398+155111952+155279869+155461217
2831+155670318+155799640+155909977+156086288+156172515+156081073+155939749
2818+155854826+155803516+155751490+155795550+155987613+156203805+156378544
2804+156625222+157035031+157452787+157650922+157700054+157820268+158100058
2791+158456966+158546121+158222807+157913263+157865113+157881098+157910816
2777+158004741+158066892+158117953+158218789+158184534+157968807+157850147
2764+157973147+158199501+158328180+158339360+158386706+158463092+158491578
2750+158639706+158910245+158941410+158754223+158743096+158847968+158849058
2737+158882795+159019993+159197464+159474647+159822679+160036513+160023029
2723+159880973+159758705+159842182+160084180+160155298+160135170+160374400
2710+160761420+161054087+161224950+161260455+161320303+161572982+161787352
2696+161784584+161727951+161734273+161799229+161873614+161938284+162057569
2683+162190338+162260152+162290138+162277315+162191553+162015992+161796336
2669+161692928+161769885+161832680+161721825+161577965+161547746+161579305
2656+161582734+161445589+161222093+161214199+161413263+161409512+161070482
2642+160718199+160587877+160533905+160393635+160261974+160183855+160046586
2629+159863345+159716217+159556766+159284923+158964699+158772154+158691874
2615+158588324+158408030+158174604+157981791+157894439+157842414+157715038
2602+157559909+157410834+157173158+156977147+157005116+157141778+157224558
2588+157202394+157038978+156753669+156474165+156286459+156205948+156218486
2575+156229844+156189928+156133134+156094789+156023958+155806534+155498829
2561+155197411+154837770+154428962+154163799+154179230+154301623+154228487
2548+153949519+153697518+153583859+153494793+153359577+153259456+153199197
2534+153139528+153106345+153058249+152941339+152799051+152645457+152449429
2521+152284817+152270154+152351969+152303373+152074197+151915782+151958842
2507+152045425+152003723+151844468+151743472+151830234+152006009+152089199
2494+152140689+152308820+152519689+152694607+152846165+152999508+153237542
2480+153512242+153622758+153548711+153456591+153422943+153407406+153377526
2467+153388742+153527798+153755509+153944196+154024547+154025494+154023726
2453+154082948+154237435+154476719+154756062+155015653+155218718+155387206
2440+155543514+155701626+155884706+156085574+156252008+156295139+156223540
2426+156203841+156352558+156641224+156934391+157091771+157145064+157190535
2413+157258938+157401619+157660245+157957019+158126722+158197339+158388027
2399+158705269+159017528+159281405+159457894+159558730+159632919+159593128
2386+159192910+158145064+156206323+153272333+149558034+145575769+141696983
2372+137803874+133706244+129521718+125500903+122197753+120291355+120067341
2359+121515575+124558224+129086718+135128260+141272566+144132403+142076037
2345+137362132+134138047+133499920+134218165+135528906+136840790+137683544
2332+138315429+139540979+141354372+142988739+144373535+146257081+148900199
2318+151624955+153749115+155257688+156628526+158198411+159850611+161392742
2305+162774529+163949697+164902225+165669531+166292942+166839913+167379936
2291+167928997+168443195+168911941+169381419+169782351+169959912+169922496
2278+169883133+170014366+170196231+170241809+170260312+170425621+170689623
2264+170969092+171275207+171560944+171728522+171782101+171830840+171992470
2251+172209626+172300496+172283619+172357272+172540530+172640045+172650225
2237+172742309+172901064+173061980+173234826+173307658+173275600+173369863
2224+173570285+173671638+173711394+173783404+173885740+173958537+173949053
2210+173956322+174065159+174233111+174423514+174560426+174591948+174666263
2197+174888116+175127257+175259169+175291209+175316177+175410976+175549174
2183+175717109+175912083+176060872+176175782+176318159+176419674+176454732
2170+176519313+176628882+176715305+176788887+176912744+177053425+177160833
2156+177255043+177331500+177403939+177521617+177664369+177809658+177965341
2143+178089519+178173335+178286780+178451071+178574749+178591930+178607593
2129+178725967+178889991+179038030+179199267+179351574+179385008+179327928
2116+179333679+179407261+179494863+179652975+179805871+179788012+179715680
2102+179776099+179905064+179972717+179997185+180043566+180074696+180067141
2089+180074267+180141848+180267795+180382954+180418245+180403885+180443391
2075+180550710+180670102+180753971+180726360+180611183+180553210+180653010
2062+180855932+181059408+181221824+181256596+181139973+181005364+180965537
2048+181009776+181046852+180992916+180896224+180940373+181142187+181324821
2035+181424585+181540923+181730575+181889848+181977824+182029225+182024474
2021+181976467+181900063+181948945+182289780+182677907+182853360+182942391
2008+183090948+183256971+183383454+183466912+183543816+183686283+183781189
1994+183569337+183302496+183455589+183915530+184424763+184807711+184969502
1981+185097198+185323927+185585804+185772670+185895616+185918262+185706285
1967+185631257+186108468+186766151+187229449+187553138+187778581+187998720
1954+188284779+188521098+188655135+188672120+188429978+188056478+188306675
1940+189310443+190164476+190586429+190846966+191070784+191380024+191751756
1927+191803745+191402563+191199141+191300102+191290851+191855574+193082232
1913+193758167+193665547+193690568+194316836+195118397+195671226+196066908
1900+196421012+196591929+196678799+196890650+196808603+196621612+197340107
1886+198511400+199280224+199859967+200398062+200839857+201235771+201469929
1873+200997558+199586714+198824141+200334981+202603877+204012382+204768240
1859+205356431+205937103+206511042+207039671+207421904+207376237+206558263
1846+205382952+205998755+208701515+210703533+211446657+212088767+212494021
1832+211618468+210530991+211250058+212796493+214469553+216611788+218261113
1819+219092160+219725000+220126897+219951372+220000200+221174118+222692567
1805+223455086+223220482+222823728+223568388+224900900+224958640+223931208
1792+224794045+228141952+230718124+231666563+232077532+232402293+233151525
1778+234352750+234377271+232561780+231432868+233648256+237286633+240087872
1765+241058672+240824906+241528221+242906846+244030471+245011825+244679706
1751+243112911+242948602+245053028+247456817+248795526+249238786+250145344
1738+251017147+249947834+249641719+253239697+257269897+260415043+262432224
1724+263304009+263293811+261280970+258093229+258728409+263741839+268345854
1711+270817635+270947814+269853515+269673668+269300669+267611017+267952548
1697+271167721+276587923+282307722+284863194+285137609+283788827+280679936
1684+281382304+288014323+293232657+294996856+295240855+296482389+297576313
1670+298568616+302935471+307840529+309804131+311643929+315571740+318455759
1657+317310917+312829063+313818311+321602708+324592885+326663467+333901250
1643+341167895+344785769+345076953+343323596+345383640+353447327+359598527
1630+362260157+364258156+366650427+369581774+374190646+378088703+379778087
1616+383592239+390464720+396010583+400088451+404412997+409529799+414814447
1603+420036121+425627241+431699715+437799943+443955894+450578447+457387348
1589+464054228+470775188+478042083+486084195+494293403+500804011+505536401
1576+513194316+523225570+530166668+536764539+546850336+557431455+565844477
1562+570031647+570707565+579990569+598242996+613038252+625741137+637769641
1549+648999744+657575897+663304215+667796428+674478025+690203842+706726130
1535+717176908+726816999+738413369+747767633+754679263+761635328+768700765
1522+777370289+788848928+800569744+811702048+821659399+829301990+833879572
1508+836267056+845613605+863374713+876372997+882859495+885667753+890202686
1495+897861280+902605457+903777125+907851421+917397141+925897926+930993797
1481+935698683+939999225+942203326+943261763+944618385+948209398+953879922
1468+956556947+954502296+953421285+955927500+956684108+951684537+946666249
1454+948788052+953133958+954595738+950565020+944814842+942013513+940867064
1441+940000940+938385495+933520800+927682467+922826059+915972366+910211901
1427+908810558+908667537+909513515+912254978+915574095+920499655+927237760
1414+932241761+934323272+936112456+939721543+944967363+950063163+953409426
1400+955465148+957336773+959487723+963495866+969970291+975049016+976472362
1387+976629242+978065590+979555374+980051945+981650102+985079377+988200108
1373+990629598+992757545+993590521+993726612+994222111+994777476+995033084
1360+994615596+993367489+991170890+988801480+987179177+985893565+985048015
1346+984070590+981399566+977749402+974850131+972101810+968976863+967023727
1333+966611811+967100953+967264619+965637958+963584093+964097952+967730542
1319+971773548+973977792+974794623+975644815+977967218+981365204+983715682
1306+984481149+985099237+986587235+988859702+991701608+994613524+997188963
1292+999529440+1001833626+1005296478+1011303479+1018967359+1024818766
1281+1027030439+1029201034+1033440640+1036954641+1040458642+1045455427
1269+1047767614+1046681602+1045952712+1045683888+1046148811+1049429066
1258+1054859270+1059356412+1060515220+1059668171+1059939852+1062086159
1246+1064659383+1064995503+1062365484+1060798761+1062259112+1063988359
1234+1066329265+1070816405+1073741823+1072312405+1069711676+1068190316
1223+1066830408+1066045010+1066119306+1066360626+1066142738+1064891273
1211+1063784973+1063284615+1062699603+1062757683+1063474786+1064006076
1200+1063827693+1062175886+1059696317+1057104733+1053817264+1052082659
1188+1053463713+1053876201+1050381059+1045701605+1043300405+1043402491
1177+1044081731+1043500290+1042065371+1041311835+1040339696+1038536153
1165+1036897776+1036192390+1036333981+1035040082+1031689032+1029008435
1153+1027966644+1027175674+1026904706+1027579660+1026046084+1021737540
1142+1018765258+1017696820+1016203821+1013945356+1011207608+1008442713
1130+1006823267+1006744185+1006964002+1005604236+1002999293+1001000007
1119+999468503+998343271+998365774+997543442+993562660+988907566+988050515
1105+989975076+990555159+991129384+992784906+992939142+994192250+998935070
1092+1002717681+1002338484+999762259+999436641+1004675461+1013602878+1020577517
1078+1021303621+1017226896+1015368631+1018553442+1022412994+1025179103
1067+1028674531+1033089018+1036077873+1035048155+1032467144+1032787332
1055+1035103163+1036118879+1037183888+1039483145+1040456213+1041081659
1043+1041663600+1039661671+1038956570+1041972144+1043192104+1039990646
1032+1033972644+1027010864+1023373774+1024624595+1026780332+1027064515
1020+1025878846+1023578731+1020869345+1020412422+1023255971+1026119166
1009+1026432425+1025137025+1023586661+1022758114+1024690819+1028802477
997+1030535011+1029877631+1031021794+1033310835+1033790690+1034319194
986+1036986932+1037461500+1035222108+1036643954+1041104305+1044831123
974+1049022222+1053962999+1057668099+1057444139+1054161170+1053623950
962+1055990574+1055590874+1052982644+1052867199+1053941067+1052392560
951+1050409348+1051125522+1052892846+1054958998+1058653811+1062855769
939+1064036509+1061196174+1058163813+1056411277+1054680530+1053550726
928+1052996289+1053811691+1056963499+1058727108+1056064585+1051998361
916+1049347054+1048750040+1050604733+1051699175+1049650812+1048184888
905+1050009434+1051371986+1048269686+1045360199+1047776330+1051081444
893+1050577087+1048893132+1049049369+1049824622+1049147383+1049330266
881+1053923707+1057544010+1052201176+1042330195+1036580445+1035412707
870+1033362271+1029442783+1028474216+1028951713+1025925638+1022537511
858+1023136311+1025128953+1024981003+1023954928+1023551585+1022127524
847+1019496149+1017544227+1015647670+1013718609+1014762473+1017742255
835+1017911922+1014689176+1011113666+1010110023+1012788905+1015985290
824+1015851914+1015014509+1017034440+1018917137+1015935569+1009494006
812+1006167460+1008066659+1011396206+1012550371+1009960858+1006590020
800+1005581447+1003822553+999082448+995024654+994452644+995077947+993169175
787+988918711+986075662+984415854+980629670+978168819+980461217+982400423
773+980536728+976534014+970866419+965185393+962323770+961659390+960794766
760+959400567+958127171+955805768+951571164+947576450+945938216+945253976
746+942892424+939571021+936919429+934999726+934830559+936035660+935673393
733+931016514+923414357+918994726+918508585+915875424+908773052+901476153
719+898983869+899091313+896464295+892126532+889924218+890666395+892276411
706+894735976+899004157+902007372+902081240+900827846+898667324+896883926
692+896575453+895944078+895846349+898236548+899506515+898416002+898612530
679+900768552+904470724+907331061+905041948+897843206+890180469+893097028
665+904730261+910111243+908301771+905724617+904980225+902493370+897039948
652+894318345+897418931+902130175+906278410+911272409+914385425+912599027
638+906980368+900940577+900743549+905109815+901400857+888986227+882998015
625+886534448+888435363+886322489+883903858+880436720+878782270+880802130
611+882476869+884613817+892378497+903504157+914775981+922316200+913480082
##END=
