##TITLE=Sample description
##JCAMP-DX=4.24
##DATA TYPE=INFRARED SPECTRUM
##DATE=12/9/2023
##SAMPLING PROCEDURE=Instrument type and / or accessory
##ORIGIN=Default
##XUNITS=1/CM
##YUNITS=ABSORBANCE
##RESOLUTION=4
##FIRSTX=4397.6552
##LASTX=599.8556
##DELTAX=-1.9287962
##MAXY=1.9068612
##MINY=0.27629226
##XFACTOR=1
##YFACTOR=1.7759029e-009
##NPOINTS=1970
##FIRSTY=0.28687409
##XYDATA=(X++(Y..Y))
4398+161537036+160718669+159969660+159759488+159575681+159522483+159972211
4384+160269059+159864255+159762442+161075595+162763747+163136750+162370825
4371+161449000+160675859+160261222+160320427+160281914+160017403+160316702
4357+160855388+160694755+160405778+160426520+160369966+160246202+160075686
4344+160292100+160993466+161310905+161357675+161540342+161612989+161577765
4330+161196975+160760354+161502902+162931260+163095937+161983961+161237637
4317+161436716+161675936+160977792+159717367+159541430+160838892+161782465
4303+161381085+160818636+161194693+161710674+161205232+160733621+161422250
4290+162470138+163294462+164063441+164848799+165303796+164666065+163049603
4276+161928683+162213330+163034181+163349472+163050191+162393060+161885504
4263+161952680+162270304+162359111+162439981+162780864+163212082+163521717
4249+163477162+163041934+162756162+162977409+162876301+162165067+162089214
4236+162746043+163124197+162991287+162635620+162638758+163046985+163181321
4222+163087362+163258667+163463368+163416346+163490789+163817374+164318939
4209+164880432+164754487+163756574+162706203+162301316+162866937+163927259
4195+164325316+163821737+163496713+163832528+163917090+163322571+162935573
4182+163320524+163901214+163992539+163345327+162429946+162218684+162768731
4168+163581896+164402495+164534750+163647142+162804207+163005938+163855032
4155+164536780+164727049+164551665+164426425+164265893+163958892+164121153
4141+164637637+164584742+163826855+163130171+163344471+164296855+164823996
4128+164473833+163880707+163701800+164059246+164362638+164018148+163571273
4114+163768875+164077554+163813447+163368200+163257744+163556220+163982336
4101+163971059+163644189+163477062+163356067+163376557+163617691+163794601
4087+163943386+164168493+164519160+164863617+165077866+165312052+165233062
4074+164537804+163748435+163437206+163472648+163516196+163814068+164325165
4060+164317513+163819455+163550028+163601094+163793427+164136961+164341007
4047+164424310+164701910+164707112+164166127+163695272+163478455+163295855
4033+163381659+163804955+164275878+164520183+164266783+163786395+163518495
4020+163421851+163626165+164149580+164380142+164173007+164226154+164775698
4006+165325058+165443485+164976288+164373697+164057148+163495119+162685260
3993+162588347+163297332+164104388+164686857+164992314+164854118+164400816
3979+164189403+164409325+164661551+164658463+164524530+164465660+164465375
3966+164263527+164150705+164738561+165220626+164660930+163663823+163047606
3952+162949602+163251871+163966461+164215616+163529219+163297852+163708009
3939+163766006+163274408+162569165+162805315+164233203+164935945+163872216
3925+162689287+162703770+162836579+162850927+163640597+164865362+165184395
3912+164467858+163542107+161985203+159908374+159344297+160548152+162531508
3898+164870917+165380118+163177998+161524567+162384384+162605867+162354060
3885+163146550+162632096+162356493+163840046+163266219+161226309+160184900
3871+160003559+161361736+162138703+161515992+162433839+164203986+164166295
3858+161304746+156191439+155578477+162078709+165795443+165383139+163156015
3844+160959433+159399794+158216278+159130283+161975453+163244202+163185785
3831+163652865+164128536+163824187+161816364+158603998+159070608+161751117
3817+162010257+163020638+164702514+164018433+161511276+160239574+160480237
3804+159146208+159346361+162312979+163181523+163467580+164699057+165215189
3790+164982581+164430251+164055889+164198499+163648502+162727784+163382162
3777+164624950+164645843+163417739+162382270+162854501+163887588+164919432
3763+165044236+163744710+163348666+163905426+162387556+158827813+157605431
3750+160507491+161251515+160256540+163305957+166276955+164834551+161805490
3736+160795646+162701068+165810748+167703081+167637801+167260150+167874017
3723+169341761+171839504+174675997+176090913+174959353+173121141+175458955
3709+181523422+187055948+191083627+195397028+202046061+208640085+212372057
3696+213522882+212349167+208868145+205751182+205848347+206010641+203507814
3682+199372247+195008485+190227233+187046601+188238172+188598991+187328279
3669+188646113+190423409+190518560+190196355+189845756+188734955+188231392
3655+189001059+187408293+183677563+184071794+189155432+192698461+193518842
3642+193401874+193419998+193192810+192808413+192262410+190479006+189031853
3628+191594137+194428231+194271542+192324368+190835647+191969573+193570025
3615+193478683+193181030+193395581+193693923+194284011+194537663+193949371
3601+193378733+193287089+193371685+194047308+195135588+195057420+193552253
3588+193114525+194904641+196444949+196642215+196253304+196079598+196310361
3574+196614811+196405512+195385901+194767402+196013160+197407015+197667968
3561+197804167+198206772+198412127+198231608+198105781+198277254+198162536
3547+198090946+198904177+199723064+199464982+198663816+198380343+198792564
3534+199104280+198744837+198293381+198391905+198596304+198658781+199017721
3520+199477702+199499367+199080618+198406690+197860972+197927276+198239714
3507+198057013+197687988+197863741+198353140+198595750+198536025+198434211
3493+198466365+198344548+197978308+197775655+197780672+197634338+197399665
3480+197610424+198155789+198201972+197718514+197659577+198248155+198750912
3466+198827536+198628659+198343356+198158793+198024608+198059547+198461783
3453+198681890+198358577+198268779+199125307+200327971+200837222+200730458
3439+200661335+200784008+200980050+201061994+201081242+201348102+201796067
3426+202048310+202069018+202296642+202857329+203466129+204108491+204814825
3412+205417482+205693924+205662358+205642556+205717703+205943012+206450820
3399+206974017+207417535+207913697+208184501+208245401+208645103+209422825
3385+210032681+210266582+210511407+210965599+211370654+211727076+212249870
3372+212794799+213299755+213985581+214714973+215340688+216022906+216509570
3358+216636875+217016506+217984866+218979707+219379275+219381355+219802823
3345+220803571+221524270+221640465+221909825+222666251+223342210+223754364
3331+224453548+225200342+225238453+225248203+225905014+226487232+226665401
3318+226725613+226744610+226873559+227256848+227773517+228069191+227965481
3304+227907686+228210323+228464546+228672419+229478552+230968783+232410986
3291+233021262+233144321+233755704+235052696+236766021+238425108+239525353
3277+240100909+240606905+241672799+243127319+243825111+243545866+243203826
3264+243313241+243542493+243369979+243210387+243935214+245053802+245499351
3250+245396766+244968283+243888964+242963984+243391661+244450205+244686002
3237+244272354+244372792+245036853+245318094+244902903+244089872+243244588
3223+242683834+242283696+241752309+241157825+241016206+241457643+241691393
3210+241564927+241655363+241662075+241036075+240042392+239386688+239124343
3196+238526183+237738677+237627869+237876050+237389672+236115419+235017757
3183+234425437+233906855+233564462+233469227+233080215+232538794+232307377
3169+232254448+232327565+232130164+230932854+229363364+228823704+229321007
3156+229875703+230175639+230349915+230315378+229921802+229372342+229213421
3142+229324598+229038977+228332761+227651482+227256899+227045032+226650902
3129+226137942+225878080+225642602+225215076+224874294+224511780+223849381
3115+222967580+221999136+221020959+219975354+218788465+217594092+216451976
3102+215407495+214670988+214066586+213118414+211967337+211185084+210816965
3088+210617953+210482543+210031121+209192515+208626676+208495630+208392037
3075+208299169+208233519+207961894+207719569+207890673+208092991+207828498
3061+207294309+207017867+207214765+207544555+207711128+207739673+207680183
3047+207714149+207827776+207753182+207549824+207316914+206979052+206559648
3034+206185219+205995521+205759724+205178111+204630631+204480973+204527609
3020+204628953+204732310+204689484+204401580+203911846+203487542+203123249
3007+202635998+202242354+201988131+201774872+201768512+201849097+201812647
2993+201827885+202004208+202339603+202960385+203757791+204254910+204130240
2980+203635588+203371011+203512278+203711239+203699727+203393213+202950165
2966+202692887+202594867+202480434+202287043+201944751+201677892+201716707
2953+201873128+202009326+202160343+202328460+202474308+202538514+202471841
2939+202261871+202057892+201932014+201760054+201501384+201184129+200942493
2926+200820676+200630558+200313992+199808113+199077346+198462723+198238069
2912+198238891+198309860+198507882+198749637+198867510+198868265+198853833
2899+198890366+198846734+198612716+198522935+198874357+199323967+199480521
2885+199477434+199543402+199722276+199992458+200237653+200392311+200574524
2872+200782632+200864005+200836282+200816581+200878572+200944506+200796829
2858+200478115+200220116+200043642+199830349+199509604+199132658+198882949
2845+198843546+198919147+199113527+199420209+199692371+199852148+199899237
2831+199940519+200065072+200136611+200118554+200222163+200403286+200390549
2818+200330656+200487647+200733848+200888892+200932843+200947644+201030444
2804+201233131+201554833+201887123+202058681+202059033+202171973+202570584
2791+203008497+203135365+202904687+202622774+202500773+202501847+202643953
2777+202926519+203180189+203294521+203316102+203203028+202890892+202672431
2764+202938065+203463595+203682728+203561817+203464333+203531157+203661885
2750+203788585+203857239+203802581+203748427+203830522+203994125+204190519
2737+204410693+204600156+204756425+204905965+204984670+204988127+204982153
2723+204970540+204983512+205074435+205201353+205240823+205306691+205616763
2710+205922119+206000270+206096630+206232191+206210375+206198795+206370319
2696+206592355+206843491+207147689+207325069+207394914+207554019+207735646
2683+207848149+207919789+207924052+207910106+207954007+208039408+208095743
2669+208084919+208066040+208038384+207959561+207807454+207603139+207481876
2656+207457375+207397196+207267291+207223910+207402902+207562326+207435257
2642+207195046+207110132+207189861+207292110+207331312+207280481+207114780
2629+206894976+206737079+206635803+206427947+206102554+205947090+206035276
2615+206026668+205799496+205649570+205622049+205452975+205172741+204956125
2602+204832160+204828888+204851090+204746994+204623415+204619807+204668087
2588+204691699+204640633+204450414+204183018+204007886+204022838+204107803
2575+204088672+203972007+203804880+203630067+203562639+203539984+203322680
2561+202994501+202796933+202608930+202307467+202073767+202037150+202023540
2548+201828405+201542213+201299905+201148838+201117574+201085186+200930729
2534+200726112+200653549+200721967+200699563+200476252+200178817+199997627
2521+199985997+199997476+199974435+200003265+200001587+199834091+199651424
2507+199566845+199450029+199373220+199503462+199701131+199786331+199826657
2494+199902140+199956294+200033707+200218186+200396892+200500770+200625238
2480+200759272+200806596+200797316+200833967+200939220+201005423+200947561
2467+200891007+200981795+201122139+201131201+201059577+201089398+201218112
2453+201326504+201427595+201589705+201762772+201919730+202103387+202267376
2440+202390115+202535192+202705289+202863857+202982637+203035868+203067837
2426+203169650+203360506+203612917+203873298+204004983+203985248+204006594
2413+204112385+204180551+204250077+204328060+204344087+204459695+204778627
2399+205141930+205499426+205824769+205973823+206020995+206158000+206328298
2386+206193862+205308352+203419963+200659741+197415020+194017957+190618712
2372+187215524+183745394+180243144+176833730+173990708+172294232+171952057
2359+173253849+176280880+180505137+185677734+190762429+193097743+191389587
2345+187536940+184853208+184116232+184464381+185409347+186527063+187452479
2332+188254148+189577722+191582743+193515082+194876885+196121670+197885892
2318+200118840+202271571+203924482+205165760+206345684+207604632+208882376
2305+210061361+211078102+211990965+212788120+213449362+214114463+214823532
2291+215421323+215850460+216251806+216701500+217058627+217182357+217126022
2278+217082541+217173178+217330471+217512668+217739570+217892198+217956572
2264+218161609+218551292+218847301+218921895+219009427+219198974+219323241
2251+219412284+219557746+219660130+219725594+219893728+220100963+220198296
2237+220229157+220304204+220449951+220645506+220865663+221063651+221183974
2224+221235175+221308493+221418798+221435781+221381744+221452529+221668221
2210+221870841+221955873+222015213+222234580+222547035+222703640+222718374
2197+222799379+222975215+223075250+223038817+223057730+223229975+223437378
2183+223590023+223681582+223748440+223801788+223850421+223927180+224039045
2170+224221511+224463869+224644992+224759190+224909452+225034591+225103530
2156+225207592+225245233+225212777+225330399+225554348+225714578+225833760
2143+225964102+226091004+226175163+226242104+226384881+226586041+226730899
2129+226788493+226869598+227005277+227062569+227103868+227246477+227394943
2116+227534649+227645542+227657138+227696759+227785986+227768651+227694812
2102+227722837+227846752+227937473+227985954+228158334+228450316+228644528
2089+228653036+228584752+228546625+228534542+228535415+228560016+228636305
2075+228783328+228938154+229059316+229089305+229008233+229002259+229146765
2062+229318289+229499764+229685938+229780904+229763049+229708022+229700571
2048+229757024+229832189+229893710+229942661+230004870+230068204+230130966
2035+230274029+230475172+230603735+230677423+230797209+230943879+231029901
2021+230999225+230926678+230982645+231221059+231517740+231721685+231873826
2008+232081934+232269786+232367622+232453006+232588886+232737688+232830708
1994+232864623+232978049+233250615+233553772+233842096+234132818+234380681
1981+234537320+234649487+234863183+235123665+235327695+235504975+235589570
1967+235628101+235820769+236129431+236420859+236681157+236872735+237041422
1954+237303935+237617380+237864052+237956686+237866284+237764940+238063986
1940+238754159+239320351+239640475+239887784+240153921+240457935+240762318
1927+240942568+240972792+241147236+241353933+241366050+241727725+242492827
1913+243021763+243249958+243554626+244100814+244658984+245071892+245460670
1900+245831809+246021306+246143861+246401122+246540408+246660111+247310931
1886+248177931+248742847+249154883+249659637+250248047+250730062+251003366
1873+250886315+250317892+250239052+251421695+252868865+253777449+254322563
1859+254791706+255335578+255958256+256576973+257061657+257296615+257147947
1846+256794881+257408900+259102472+260381793+261089772+261801291+262324387
1832+262136501+261914213+262741743+263976073+265221093+266680714+267872973
1819+268672025+269385725+269936410+270160460+270602552+271730051+272949043
1805+273632251+273768903+273874358+274663391+275817422+276210663+276014504
1792+277029365+279344407+281079078+281959016+282542576+283061594+283876303
1778+284912661+285261549+284635901+284453956+286195775+288743711+290712249
1765+291530649+291842416+292886595+294155847+295154414+296066354+296263168
1751+295909649+296392218+298012707+299743014+300840558+301413881+302445910
1738+303497842+303248033+303588026+306277396+308964921+311083116+312613052
1724+313572350+314045152+313350431+312156260+313326333+316801682+319837826
1711+321651537+322180658+322109538+322560826+322690077+322243622+323424067
1697+326067892+329797816+333616012+335556356+336225905+335754982+334333219
1684+335836641+340686798+344088006+345336416+345956157+347478642+348896578
1670+350282059+353618927+356940524+358544903+360332268+363256143+365366115
1657+365177524+363312529+365099255+370448964+372530777+374461221+379773708
1643+384755499+387257252+387603555+386816536+388951916+394972616+399400987
1630+401729823+404052585+406727859+409779710+413983477+417527932+419763967
1616+423919436+430163969+435443430+439870794+444552867+449657599+454654897
1603+459687972+465232010+471064993+476771779+482535554+488567062+494613975
1589+500640180+506824433+513161800+519847149+527136028+533748444+539258349
1576+546514504+554333779+559531414+564908141+573276473+582289349+589802764
1562+594369885+597367196+607592166+622661219+633995246+643694150+653629405
1549+663808797+672017101+678095966+683493972+690756202+703859872+716424789
1535+725231521+734503705+745231182+753964948+761144143+768133639+774513699
1522+782650111+793288981+802852626+811208473+819677494+827834312+833545125
1508+835515207+841326374+855748600+868611556+877057755+881937548+886622810
1495+893233313+898590909+901760465+905149188+910805898+916993843+922630683
1481+928358748+933139530+936151877+938341930+941070872+944760520+948132193
1468+950233372+952324079+955519412+956381108+953088376+948023986+945769089
1454+946999643+948909043+949909354+948636779+946264345+944981029+944788042
1441+943131909+937242675+927789250+920937698+918805507+916828914+913380315
1427+909550037+907757571+910856846+916809112+922522073+927246134+930844894
1414+934888767+940185547+944958475+947976998+950293852+952519885+954875539
1400+958202036+961968678+964118792+965782846+968803584+971309196+972323336
1387+972126523+971695977+972311254+973929393+976704584+979704312+981777969
1373+984501003+988374040+991362356+993115486+994316706+994459349+993490385
1360+991994146+990383457+988901651+987698081+986713611+985419891+984235385
1346+983079542+980793297+977025984+972361397+968678930+967173160+966775706
1333+965674706+964069588+964290097+965886018+967029309+968780157+971495203
1319+973063065+973155699+972804697+971768607+971196895+973100588+977109153
1306+981805088+986261114+990111597+994131304+997721942+998316343+997313548
1292+998380046+1001820456+1006576603+1011157685+1014996219+1019300944
1281+1023899747+1028500229+1032732323+1035431259+1037462425+1039111980
1269+1038632633+1036783781+1036896150+1040482559+1045309322+1049448984
1258+1053243484+1054649237+1052944638+1052475428+1054374960+1056041430
1246+1057516524+1059895135+1062578766+1064367943+1065896604+1067972006
1234+1068916402+1068254271+1067823456+1068636822+1069569135+1069623709
1223+1070481647+1071109275+1067707060+1062364634+1059921515+1061087293
1211+1063775824+1066343193+1067915285+1067821979+1066597332+1065140698
1200+1064387275+1064844135+1064976642+1063501145+1060992578+1059221055
1188+1059672209+1060686819+1058176172+1052882614+1050375323+1050176227
1177+1048946009+1048513314+1048360468+1046219417+1044384527+1044166905
1165+1044914823+1046912963+1047698472+1045326238+1042559706+1040236542
1153+1037953519+1037623527+1038458374+1037063495+1033241407+1030737338
1142+1032560212+1036847484+1038469852+1035506440+1030308939+1024973696
1130+1022022367+1023386971+1025493789+1024205976+1020903443+1017592251
1119+1014915601+1013819299+1013362707+1012185720+1010631887+1008300533
1107+1005581728+1005374644+1006491621+1005336517+1004617328+1006817115
1096+1009571497+1011876336+1012508327+1009907866+1007796215+1010006004
1084+1014574735+1019342226+1024110389+1026782474+1026359244+1026175185
1072+1028854856+1032062070+1033113532+1031822900+1028774036+1028138017
1061+1030744520+1030555091+1029543233+1034908481+1043785360+1046931355
1049+1043997344+1045289654+1053013376+1056886211+1052606659+1045526609
1038+1040131892+1037739857+1036097082+1033154478+1032517251+1035521275
1026+1037411678+1037341061+1035942625+1031567485+1027569728+1028161511
1015+1032166786+1035663112+1034797321+1031035243+1031310191+1034913717
1003+1034331265+1032156583+1034575738+1038123012+1038489185+1037713543
991+1038621624+1039435192+1036995094+1034828870+1037024428+1040835776
980+1044546435+1049948200+1055351778+1056882922+1055851799+1057599962
968+1061814939+1061184760+1055126637+1052783603+1056876075+1061127636
957+1061684178+1060885848+1063011058+1067586904+1070834797+1072613502
945+1073741823+1073403978+1071690250+1069453746+1067147497+1065601719
934+1065753693+1066953570+1067149310+1066305066+1067517429+1070393309
922+1070893666+1068088134+1063141819+1059279455+1059414781+1061127569
910+1062179836+1062844384+1061741436+1060506586+1063230627+1067502460
899+1070017403+1072542617+1073616163+1071609162+1068261990+1063569882
887+1059658919+1057713271+1054823026+1052242433+1051409668+1049319632
876+1045770277+1043777775+1044618193+1047369084+1049355679+1048612124
864+1045757523+1040778786+1035533894+1035624716+1041057090+1044802991
853+1042995086+1038332580+1035439448+1036496683+1038590478+1038090456
841+1035562624+1030588654+1024294515+1023815571+1028893587+1029815697
829+1025944607+1025248175+1028644751+1032401123+1035687076+1037280648
818+1035879124+1031985747+1028190442+1030797080+1039179106+1041311901
806+1033749416+1027393455+1026752804+1025411492+1022080431+1021446291
795+1021925638+1021051523+1020190699+1018222228+1013535020+1007283305
783+1002113796+1000839476+1002166557+1001214039+997706436+995615192+995973779
770+995838520+991641668+986046043+984158862+984250623+983155395+982735857
756+987532683+993236313+985797542+969112833+959639607+958528402+958764485
743+958431338+957481438+955183244+952463164+950907586+950052064+947462343
729+942227184+937346250+934676917+932347241+929449680+926776184+924489268
716+922769097+923531783+927983043+930679294+927534843+924566396+924909947
702+926265758+928922270+930393069+927325342+923758199+923956355+926681067
689+930423544+932117200+928024997+924238754+925491527+924802747+920323964
675+920254825+925961946+928649873+925767280+925875823+929537011+930425491
662+927497454+922195035+919002656+921513907+928020567+933143289+935555731
648+937650264+939554226+940224211+938090543+933401724+930483353+931379083
635+935837861+940060625+943011015+951630331+955322732+937807272+917288526
621+913021392+919405479+921057987+914227647+911567107+922451725+937181926
608+946331605+958488664+970133081+969254939+958040531
##END=
