##TITLE=Sample description
##JCAMP-DX=4.24
##DATA TYPE=INFRARED SPECTRUM
##DATE=12/9/2023
##SAMPLING PROCEDURE=Instrument type and / or accessory
##ORIGIN=Default
##XUNITS=1/CM
##YUNITS=ABSORBANCE
##RESOLUTION=4
##FIRSTX=4397.6552
##LASTX=599.8556
##DELTAX=-1.9287962
##MAXY=1.7984066
##MINY=0.1685265
##XFACTOR=1
##YFACTOR=1.6748967e-009
##NPOINTS=1970
##FIRSTY=0.18786278
##XYDATA=(X++(Y..Y))
4398+112163805+111278266+109867541+109346858+109607311+109853120+110432913
4384+111749928+112444667+112081466+112082400+112613172+112845440+112742389
4371+112598448+112596304+112869514+113047040+112522229+111485872+110776035
4357+110761275+111326762+112245015+112517407+111821831+111872890+113237387
4344+114252116+114170488+113797785+113678079+113661149+113534174+113055484
4330+112165585+111666209+112085069+112562069+112353360+111860061+111723273
4317+111977979+112231527+112077756+111449760+111241949+112143414+113229833
4303+113645161+113644449+113533364+113317725+113045199+113167173+113713711
4290+113985498+114065702+114222294+114090373+113697848+113140083+112620378
4276+112522487+112387399+112097880+112559275+113680143+114339678+114399375
4263+114673974+115194630+115221383+114777123+113927865+112384774+111405703
4249+112165229+113396354+113471229+112823856+113204122+114604980+115133768
4236+114399980+113753613+113676166+113745534+114026565+114150008+113549165
4222+113266862+114198335+115284399+115385964+114790477+114359545+114566697
4209+115025094+115156268+115164559+115128083+114964293+114925939+114765308
4195+114437774+114661608+115358562+115558366+115204470+114884463+114533645
4182+114186618+114308548+114998101+115927920+116473781+116071157+114945005
4168+114104074+114094012+114311431+114399909+114733938+114986758+114688040
4155+114318664+114028941+113624182+113793524+114812256+115627689+115642244
4141+115401996+115461169+115734789+115892466+115884423+115651319+115007638
4128+114141396+113728524+114161004+114933110+115268892+114953555+114533405
4114+114537444+114841998+115204346+115393126+115177647+114949151+115103625
4101+115149568+115194150+116004450+116818717+116678050+116284529+116117785
4087+115718712+115344363+115549656+115994708+116179974+115942279+115433722
4074+114934987+114648698+114878030+115499941+115989894+116054859+115757760
4060+115305831+114736732+114467791+115027985+115949049+116407090+116325623
4047+116216842+116365978+116590150+116772792+116680497+116124583+115860527
4033+116212127+116363238+116165534+115902644+115710376+115940758+116378345
4020+116423843+116040179+115825927+116321726+117001884+117121554+117164579
4006+117499666+117471464+116887213+116163817+115539665+115094133+114990032
3993+115543135+116602997+117468839+117723972+117420797+116994553+117006928
3979+117024624+116285836+115524727+115590706+116101362+116419412+116404786
3966+116344866+116218968+116132127+116069102+115643472+115442138+115677876
3952+115573348+115338358+115611515+115464932+114530781+114771518+116112634
3939+116332278+115153643+113577857+113153161+114586323+115733419+115076953
3925+114399740+114724410+114184189+113018820+113643035+115898026+117477736
3912+117833651+117259009+114418432+109594900+106809706+107866303+110852200
3898+114068816+114746687+111993477+110565066+113218472+113996654+112265985
3885+112116403+111506939+111383541+113607368+113000199+109843796+107583093
3871+106820818+109029973+110535119+109506164+111052849+114532684+114461831
3858+109139706+101005590+100619043+110860323+117060255+117230397+114346119
3844+110760634+107729498+105681285+106948976+110790607+112810120+113458489
3831+114275070+114411777+113905943+111608896+106946574+106387207+109798805
3817+111562544+114863422+118184388+117266998+113120884+110493135+110492237
3804+108377547+107769142+111540213+113931530+115974521+118332217+118714297
3790+118033223+117037604+115996976+116005001+115666141+114856562+116536538
3777+118984261+118633008+115724264+113612368+114696536+116530916+117859096
3763+117681801+114912648+113486674+114815940+113648711+108163517+104739856
3750+108610260+110622201+109369999+113818310+119205497+117796071+112415913
3736+109590914+113194504+119897958+124046724+124199580+123533159+124862771
3723+127877128+132119426+136508485+138896821+137952625+136359624+140761779
3709+150424199+159547795+166601168+173664380+182907122+190496756+193088437
3696+192080612+188001819+181080100+176184869+176952197+177666020+174634394
3682+169189877+162756911+155178647+149899147+151462611+152167075+150648095
3669+153699685+157847410+158895075+158523831+157905559+156378412+155438611
3655+155946189+153304419+147256274+146418199+153402764+159420073+161628214
3642+162161309+162459404+161968533+160617382+158830502+155639820+152909634
3628+156560493+161513108+161560030+158231714+155166192+155596795+157031203
3615+156779674+156507397+156652788+157378034+159661247+161504389+161284301
3601+160422098+160017526+159376728+159144558+160307525+160693609+158954790
3588+158737905+161781541+164085697+164376354+164062476+163853349+163750733
3574+163795235+163123476+160487916+157844509+159154949+162497322+164104593
3561+164478649+165004465+165327400+164730498+164066640+164257368+164288258
3547+163961160+164583239+165886348+166634726+166507325+165946900+165603111
3534+165551421+165226564+164541229+164074433+163896943+164118988+165043771
3520+165863715+166004444+165825832+165282222+164464343+164169984+164475677
3507+164316105+163667157+163874114+164792651+165149767+165083771+165156333
3493+165074963+164598435+164179895+164206141+164264183+164070447+164082814
3480+164271746+164038917+163544969+163419578+163753296+164141034+164181177
3466+163918740+163717993+163846747+164147760+164246675+164380197+164768666
3453+164942971+164518239+163851249+163852210+164418186+164916690+165656972
3439+166435421+166670171+166609157+166609566+166760331+167058319+167392659
3426+167363656+166841718+166639388+167336076+168379364+169099610+169428684
3412+169664199+169930497+170051974+170094020+170478200+171431613+172335346
3399+172501075+172436627+172667231+172978422+173298990+173606249+173930180
3385+174429253+174903788+175333217+176186560+177096236+177273246+177233993
3372+177790771+178747422+179473772+179748895+179994001+180562576+181291523
3358+181903442+182384117+182974417+183764236+184388238+184669998+185151011
3345+186127324+187282248+188384362+189199110+189742471+190360938+190809104
3331+190903196+191121718+191466931+191776218+192396269+193365198+194253700
3318+194647506+194529855+194271760+194071013+194139874+194733591+195508659
3304+196066753+196430542+196703886+197089526+197737904+198736174+200087486
3291+201561822+202921835+203908273+204762718+206107766+207295823+207369772
3277+207224773+207814415+208572295+209133734+209573821+209742255+209953802
3264+210470028+210724867+210302039+209677789+209487540+209703465+209913180
3250+209823269+209364249+209088200+209490779+209751116+209306580+208920390
3237+208920390+209094748+209195478+208982845+208987097+209249463+208932845
3223+208325160+207965535+207455413+206906429+206893991+207052870+206639526
3210+205826718+205332858+205415580+205410189+204434178+202932351+202141820
3196+202263617+202509417+202191446+201395061+200719174+200283428+199757736
3183+199045444+198242973+197490894+196860309+196460115+196253603+195654673
3169+194703734+194166084+194076885+194098166+193862972+193194825+192914683
3156+193416728+193649485+193140394+192580699+192338262+192252355+192122231
3142+192106999+192364418+192274970+191449190+190529603+190105032+190004925
3129+189804339+189311618+188615340+188117050+187922210+187313672+185875688
3115+184337811+183503757+183163634+182435095+181071399+179723966+178632191
3102+177577106+176583711+175665939+174852650+174094966+173188652+172097785
3088+171183589+170986846+171193855+171044799+170521901+169845391+169181087
3075+168873366+168934522+168863757+168560200+168539737+168887351+169156158
3061+169052493+168767227+168712263+168850679+169031621+169291158+169380339
3047+169177617+168880181+168485823+168151749+168156393+168131429+167617410
3034+166833960+166144728+165679392+165473645+165398806+165241066+164964697
3020+164714573+164577563+164412599+164049451+163615307+163168885+162431094
3007+161652556+161589976+162088960+162132447+161359034+160423272+160030124
2993+160298059+160873787+161462717+162129423+162811021+163149543+163225059
2980+163486749+163860502+164038971+164059665+163944220+163769808+163673171
2966+163411998+162860167+162338052+161946274+161492984+161093412+161022202
2953+161059907+160867755+160730833+160911117+161070031+160910744+160545496
2939+160381173+160625620+160852452+160676634+160346724+160146352+159912954
2926+159546549+159128971+158572425+157860417+157222163+156944068+156954015
2912+156862271+156704870+156814140+157077395+157150473+157107537+157143516
2899+157155864+157021577+156774069+156708553+157028480+157426450+157649635
2885+157837072+158122213+158394490+158471198+158367586+158295807+158423902
2872+158647211+158790769+158883153+158976267+159072156+159143953+159117654
2858+159011818+158774969+158292390+157766076+157368141+156978552+156651062
2845+156546899+156713339+157056523+157293479+157388782+157511913+157702215
2831+158015221+158351109+158567372+158695236+158661802+158470486+158334881
2818+158285878+158166750+158087089+158239544+158485290+158732976+158998153
2804+159182707+159335287+159567866+159790250+159900587+160006548+160228113
2791+160449518+160460656+160286671+160194145+160330088+160557613+160654553
2777+160621599+160598574+160589446+160589482+160585318+160460852+160283166
2764+160331458+160571652+160685353+160698663+160787257+160853199+160848644
2750+160946580+161169088+161313055+161353358+161402895+161483606+161599140
2737+161700207+161769139+161869957+161972146+162015526+162036629+162114334
2723+162287038+162452322+162476468+162428781+162410009+162454226+162610542
2710+162751057+162806858+162991466+163275699+163416731+163484453+163646819
2696+163885573+164084184+164139664+164106017+164081070+164152956+164395286
2683+164665694+164789751+164752723+164660285+164658274+164655801+164475161
2669+164258525+164205732+164207084+164126408+164020928+163938206+163859754
2656+163731961+163507104+163320877+163383617+163613652+163696107+163509560
2642+163253564+163122106+163033957+162874455+162684225+162470738+162252999
2629+162154422+162165579+162081558+161805509+161512432+161406934+161398144
2615+161243323+160960459+160760513+160697595+160631029+160447738+160193860
2602+160010587+159914751+159759147+159601959+159568613+159530838+159483827
2588+159498898+159459094+159313383+159160323+159128597+159133259+158936303
2575+158660841+158549436+158477052+158381073+158390308+158332515+157985061
2561+157519920+157154441+156888196+156713161+156641560+156671738+156775083
2548+156780065+156571827+156287184+156041954+155841172+155758129+155762773
2534+155708681+155612507+155464678+155173060+154859449+154746265+154853133
2521+154956299+154918097+154841816+154745268+154570411+154424825+154393686
2507+154406390+154395536+154357814+154372245+154465376+154513365+154490696
2494+154480376+154507689+154575037+154736247+155053096+155412437+155659126
2480+155821723+155942381+155973751+155890424+155791973+155836848+156014925
2467+156171117+156242398+156306971+156418340+156503144+156547664+156647023
2453+156757574+156837734+156992769+157187733+157322465+157488230+157749492
2440+157990879+158180167+158366020+158487479+158571678+158739239+158937495
2426+159036178+159047566+159110590+159329006+159610820+159759485+159771709
2413+159803879+159939253+160177739+160474251+160733823+160853662+160918537
2399+161157060+161518927+161720082+161754798+161875028+162040562+161964868
2386+161517147+160511101+158608724+155714517+152104655+148205541+144232958
2372+140055064+135761494+131831536+128326201+125219264+123097867+122505182
2359+123716370+126872096+131622088+137626657+143602124+146502478+144670679
2345+140142110+137028847+136405389+137002896+138235115+139633713+140632464
2332+141310077+142452271+144179862+145814794+147292351+149168216+151537771
2318+153935645+155969072+157622304+159162423+160748182+162326931+163809737
2305+165054839+166066383+167023052+167899206+168609256+169267226+169917793
2291+170453146+170888572+171359691+171854814+172226521+172426253+172517338
2278+172576377+172687658+172843654+172967550+173098635+173246410+173341944
2264+173437281+173592316+173755376+173841390+173894593+174069130+174302207
2251+174454893+174613024+174798647+174888415+174895835+174954037+175140852
2237+175369819+175464996+175456509+175545459+175731401+175864959+175921561
2224+175953055+176003838+176116845+176242823+176297022+176382787+176587768
2210+176753283+176805027+176864262+176974884+177042695+177057179+177173638
2197+177424918+177649490+177730433+177725735+177779970+177920948+178088901
2183+178256659+178417868+178533740+178558757+178578579+178695073+178861959
2170+179023453+179160232+179255463+179368648+179526067+179632205+179692401
2156+179810034+179942880+180021207+180094196+180174125+180263573+180423982
2143+180607219+180704550+180736205+180804621+180967503+181181203+181310010
2129+181308623+181331665+181438480+181534707+181624048+181719351+181810365
2116+181916716+181986645+182001663+182030328+182061680+182070364+182141876
2102+182296395+182420309+182418423+182352889+182400220+182504543+182471287
2089+182415736+182517088+182688102+182856482+183009826+183016552+182897407
2075+182851179+182952585+183144666+183257690+183190751+183098314+183162513
2062+183373241+183543739+183553739+183524931+183548383+183553899+183576799
2048+183687030+183751176+183633828+183501497+183629415+183930481+184116815
2035+184162633+184218736+184343202+184493380+184607561+184612276+184561493
2021+184548540+184477490+184418967+184670141+185157648+185479710+185545600
2008+185626418+185835457+186030990+186114192+186142946+186207911+186173836
1994+185864958+185671133+186031933+186626325+187075932+187326412+187457301
1981+187635236+187844702+188020662+188203829+188418490+188538383+188411942
1967+188403276+188920552+189562631+189908662+190101010+190274462+190442290
1954+190670261+190963783+191213052+191279956+191000188+190469959+190584870
1940+191688638+192732762+193209771+193404041+193543916+193785143+194120978
1927+194192063+193772918+193451300+193455518+193482279+194212365+195598641
1913+196307447+196204440+196268052+196910078+197685982+198266158+198739555
1900+199120070+199210852+199208557+199464357+199447862+199198735+199862914
1886+201088817+201930896+202547797+203090162+203519004+203929305+204230086
1873+203708647+201946625+200813587+202440075+205133909+206782515+207508811
1859+208013009+208610142+209263235+209821561+210160937+210050795+209146990
1846+207813543+208280392+210963229+212998755+213776582+214451864+214877805
1832+213973289+212787849+213442081+214958108+216591500+218763129+220513034
1819+221438475+222125003+222591745+222493525+222534414+223626492+225069227
1805+225730524+225369938+224929192+225770025+227277475+227384663+226162942
1792+226910466+230436770+233122205+234026240+234473605+234900098+235701804
1778+236912440+236812209+234649993+233131511+235301307+239225616+242358950
1765+243484462+243145566+243707201+245085630+246274736+247326921+246895375
1751+245021930+244695490+246981068+249644101+251024096+251339042+252239590
1738+253138519+251819876+251345412+255317177+259660862+262856633+264909508
1724+265845999+265798864+263392432+259479350+259773032+265197105+270366943
1711+273110101+273138659+271741511+271338363+270788365+268750988+268929956
1697+272336135+278030794+284072765+286854178+287230636+285705677+281954089
1684+282203430+289168387+294740324+296592915+296854657+298147090+299216304
1670+300107226+304504861+309506551+311451846+313327818+317444956+320447863
1657+319166230+314107566+314371123+322125970+325183646+327206414+334828130
1643+342582799+346185669+346002253+343602404+345414248+353957740+360555402
1630+363373577+365404424+367601391+370165438+374662254+378569286+380056612
1616+383995850+391560271+397500925+401569487+405979542+411232405+416420535
1603+421598167+427386224+433539440+439516785+445599289+452185208+458972407
1589+465742027+472626592+480031476+488222407+496510811+502815378+507167426
1576+514683093+524708928+531344811+537328063+546861409+557221833+565699453
1562+569874420+569746093+577861046+596530337+612430349+625781688+637735025
1549+648612423+657300718+663439130+667633848+673539164+689576187+706594559
1535+716609042+725700111+737486830+747181812+754543137+761925317+767683730
1522+774004205+785169929+797983334+810059019+820577984+827957743+831366485
1508+832186340+841269438+860648655+874945827+881548009+883887004+889055597
1495+898359193+904368922+906114325+909602283+917757058+925429200+930183347
1481+934583544+939414416+942170705+941175548+939006659+941427362+947937516
1468+952518852+953817423+954978771+956525314+955166102+949733026+947652108
1454+951768036+954841690+954908167+952964686+951223056+949945409+947446771
1441+943179669+937081328+929858508+924765502+921221244+915946103+911837720
1427+912509959+915809307+918527660+918868014+919141394+924510129+933506110
1414+940577686+944110199+946157025+948694026+952211380+955342258+956711861
1400+958008654+960712629+963638669+967377374+972652799+976669226+977785734
1387+976810577+975445529+974464465+975177559+978983666+983810125+986638442
1373+987983633+990255439+992414933+991936999+988651103+985135885+985349051
1360+988230180+990098856+990920846+991379705+990119070+986314172+983230839
1346+982126216+979234127+973339273+968102353+966401932+965717237+963994041
1333+962920308+962960237+963213332+963637387+964860301+967147410+970169748
1319+972886250+973625180+972248672+971555792+973600482+976064602+977432924
1306+979958324+983801086+986786697+989213237+992548456+995702181+997225449
1292+997957475+999033556+1001263868+1005551113+1012000626+1018958537+1024617591
1279+1029640419+1033665244+1034883318+1035785094+1039370846+1043141864
1267+1043813534+1043273394+1045349970+1048785331+1050112230+1051138276
1256+1054650292+1059784294+1064133673+1065421640+1064564917+1064546198
1244+1065109043+1065023207+1065373882+1066629963+1068363266+1070347814
1233+1072053644+1073587873+1073741823+1070748453+1067312665+1066697151
1221+1067083698+1065987972+1064930610+1065141997+1065095378+1064361929
1209+1064004635+1064128478+1064433814+1064603849+1063594316+1062396598
1198+1062458021+1062005923+1060375324+1058242876+1055932137+1054340613
1186+1052910583+1051418631+1050377354+1048826256+1046224059+1043067416
1175+1039720667+1036641675+1035265309+1036120680+1037100961+1036735411
1163+1036002673+1035168726+1033095495+1030358993+1028442203+1026609612
1151+1023737523+1020512339+1018639961+1019137753+1020240169+1019594976
1140+1018251991+1018039252+1018343521+1017824662+1015061184+1009320921
1128+1003170338+999213983+997673134+998830781+1000651273+999416188+996011646
1115+993234859+991307250+990729459+991984828+993366531+993278489+992101269
1101+992850020+996699828+999694906+1000016684+1000439815+1003346921+1008184412
1088+1012735285+1015112074+1012889235+1007308971+1004202790+1007312387
1076+1016898758+1027528754+1030364972+1027186407+1026517726+1028793447
1065+1031822190+1035962531+1037527294+1034247093+1030507106+1029377288
1053+1031625252+1035641465+1037256049+1037157900+1037112135+1036733276
1042+1037929926+1038495262+1035608653+1034429298+1037468789+1040363725
1030+1039373337+1034101470+1028700209+1026169542+1024203571+1023403147
1018+1025643423+1028102916+1028986115+1029689387+1030613156+1030530594
1007+1029018001+1025591608+1020785576+1019765010+1025568904+1032916706
995+1035736055+1035420469+1035380754+1035574703+1035503672+1034887446
984+1034286381+1035704383+1039025794+1042521653+1045256803+1046318223
972+1045140718+1043075245+1043227202+1046957153+1052006671+1055694416
961+1057401029+1058974119+1060680234+1058852198+1055396837+1055762601
949+1057234909+1055986159+1054204101+1053937056+1054659331+1055449363
937+1057087151+1059692124+1060464648+1058461950+1056719608+1057271990
926+1058701166+1059249848+1057365727+1053356916+1051760196+1054749437
914+1058772696+1058764583+1053959120+1050185112+1051381834+1054820113
903+1056745586+1055820964+1052717772+1050648812+1052401545+1055023173
891+1054025312+1051200340+1049394937+1047026690+1042743574+1037504803
880+1033617486+1032417064+1031975998+1032342544+1033813286+1032803041
868+1029138072+1026142425+1025389616+1027351531+1029981841+1028574373
856+1023804070+1021354898+1021470698+1021271695+1019842946+1018154554
845+1020328069+1025924561+1026970607+1021335894+1015668300+1014332077
833+1015686876+1015361610+1012878844+1011867246+1011785538+1011704044
822+1013578200+1014776701+1012172227+1008232028+1007239078+1010483052
810+1013424749+1011326821+1008257081+1009327326+1009957146+1005973958
799+1000926290+997670145+996333424+996444100+996865237+995491007+992492584
785+991079422+989826686+985643641+981146220+978582030+976841681+975258839
772+973612084+971377786+967898653+963594185+962250987+966022005+969239360
758+967284420+964478381+962471698+957494492+952100704+950294305+949139220
745+945778236+941198039+936830297+933283122+931494374+932037219+930830960
731+923345009+913623977+908048623+905699379+903203019+900419755+897988376
718+896703256+896367243+896746957+899973066+905314826+909022499+910823062
704+912812378+914726393+913780346+909395522+904134332+898397556+893335012
691+894366040+902838607+912339426+915243900+910900641+905550483+902044660
677+899182891+897966810+896495000+889326842+882200177+890648118+902470708
664+903134122+901682597+905111125+911715087+916376707+915461906+911961136
650+911415230+912534728+911278220+910889823+914139918+915163402+910561710
637+904604295+901883237+904133193+906166638+901685800+893783694+890253315
623+895917636+901901671+895109098+884374262+880615343+882154768+887740727
609+890935092+886774751+883444159+886528774+892747826+895955429
##END=
