##TITLE=Sample description
##JCAMP-DX=4.24
##DATA TYPE=INFRARED SPECTRUM
##DATE=12/9/2023
##SAMPLING PROCEDURE=Instrument type and / or accessory
##ORIGIN=Default
##XUNITS=1/CM
##YUNITS=ABSORBANCE
##RESOLUTION=4
##FIRSTX=4397.6552
##LASTX=599.8556
##DELTAX=-1.9287962
##MAXY=1.9423945
##MINY=0.3116948
##XFACTOR=1
##YFACTOR=1.8089958e-009
##NPOINTS=1970
##FIRSTY=0.31953725
##XYDATA=(X++(Y..Y))
4398+176637914+176488325+176549495+176570978+176391291+176618573+177188179
4384+177520651+177637637+177380222+176915592+176728375+176862198+177408905
4371+177629581+177073302+176957289+177451524+177411573+177211375+178091361
4357+179193490+179076636+178318578+177568081+177047948+177076844+177197240
4344+177092940+176719249+176089741+175999658+177014241+178023569+177546796
4330+176578441+177138723+178695976+179118844+178061905+177309382+177694474
4317+178036715+177947819+178203915+178212943+177081210+176003431+176299363
4303+177412397+178259797+178586058+178486420+178186518+178105859+177872118
4290+177019381+176302905+176893994+178794395+180406854+180639227+179797939
4276+178616437+177964442+177746319+177372611+177457257+178539106+179474561
4263+179116109+178272087+178204937+178595317+178568282+177928247+176899859
4249+176837058+178381593+179233621+178461527+177977605+178301296+178515712
4236+178610868+179250277+179947742+179426192+177984409+177361129+178342565
4222+179759933+180263542+179721745+178875070+178618480+178794197+178972155
4209+179406439+179786523+179876127+180122125+180398798+180333641+179748697
4195+178668743+178127062+178843241+179657741+179515402+178657475+177745199
4182+177429761+177549152+177737077+178307540+179181546+179554611+178979683
4168+178372713+178705103+179417312+179630361+179260722+178895729+179074890
4155+179541118+179506291+178726816+178066781+178110702+178420884+178627771
4141+178829370+179155137+179526851+179881053+179871251+179168201+178499451
4128+178423356+178590786+178968563+179495780+179628301+179258284+178890441
4114+178942896+179098432+178716256+177953124+177514720+177786813+178466074
4101+178789782+178893901+179326043+179370953+178969090+179184462+179443639
4087+178936619+178590094+178960573+179355203+179313737+179203078+179338515
4074+179378004+178984395+178607359+178918299+179544907+179538878+178770391
4060+178127605+178466947+179358597+179771926+179694792+179799982+179964134
4047+179689784+179670410+180571912+181258322+180500594+179115713+178489995
4033+178345415+178216666+178598216+179216900+179349190+179282254+179435583
4020+179460574+179123605+178969848+179514693+180292620+180406574+180048220
4006+179804463+179223341+178331527+177997489+178218577+178700457+179224923
3993+179300327+179204396+179267262+179149256+178880869+178755762+179104165
3979+179803722+180129604+180070922+180131828+180440890+180622472+180270181
3966+179545237+178952336+179349470+180617744+181177301+180546689+179661959
3952+179142517+179120211+179536736+179659043+179196241+179243292+179847923
3939+179812157+179041496+178338397+178530325+179639932+180219456+179403292
3925+178648743+178957509+179169684+179207608+180051400+181286263+181436873
3912+180289901+179208399+178301840+176840666+176248506+177633732+179797775
3898+181480629+181128174+178535382+176578919+177243748+177754968+177741887
3885+178758727+178714081+178255678+179092979+178638958+177206499+176447337
3871+176130993+177086548+177719268+177325362+178235464+179686967+179282798
3858+176407765+172302663+172648018+178317985+181429147+181444616+179809850
3844+177470865+175424072+174564663+175990828+178238940+178813423+178843933
3831+179514446+179978253+179985024+178724032+176064930+176006841+177907094
3817+178601956+180425091+182120186+181216214+178631972+176931885+176573235
3804+175404336+175927121+178653224+179553128+179821712+180220313+179682140
3790+179077460+179021430+179342238+179844068+179588894+179095087+179968912
3777+180935373+180313410+178483438+177261375+178048709+179460970+180503757
3763+180513773+179027245+178133833+178496008+177628526+175016427+174076095
3750+176720336+177507719+176433564+178631906+180836394+179484116+177110073
3736+176584322+178358891+180992737+182393350+181910219+181336955+181999099
3723+183102100+184507327+186325800+187592673+187383299+187080827+189801411
3709+194128590+197228203+199275869+202273242+208202484+214650394+218665479
3696+219995599+218692481+215778733+214340162+215318831+215324300+213188363
3682+209989458+206372249+202269107+199825591+200818394+200449909+199062491
3669+200638592+202246240+202034592+201713207+201607639+200914638+200536367
3655+201046220+199872131+197015731+197482734+201955136+204942838+205489742
3642+205219445+205174782+205242575+204883216+203927876+202414560+201660802
3628+203969524+206323599+206234917+204864617+204223560+205239214+205597765
3615+204650448+204283066+204435439+204630036+205652296+206652727+206559877
3601+205992462+205671275+205526348+205740220+206417751+206541343+205800946
3588+206092314+207715860+208521958+208443358+208383045+208367098+208357954
3574+208572074+208484512+207578974+207061163+208299486+209626080+209736657
3561+209636426+209944895+210114319+209854861+209619474+209622274+209715652
3547+210385192+211481308+211594735+210594040+209722357+209778930+210530119
3534+211048852+210803348+210334929+210281370+210545275+210745408+210597862
3520+210222721+210171848+210572359+210760927+210490959+210286411+210284352
3507+210145389+209907283+210186592+210937962+211093926+210480234+210034170
3493+210217746+210553990+210474880+210123725+209912951+210013462+210439394
3480+210785227+210653743+210266609+210109524+210457301+211043020+211347650
3466+211305525+211008687+210586956+210545918+210966990+211403498+211753368
3453+212061770+212175066+212141029+212220832+212321310+212393814+212889549
3439+213763176+214265846+214131826+214015516+214255994+214261464+214073704
3426+214273259+214686292+215224102+215881930+216273776+216512178+216840285
3412+217180368+217527931+217862858+218286862+219025019+219674692+219590705
3399+219410523+220022913+220783723+221092175+221329342+221750431+222397170
3385+223096299+223538459+223791771+224032019+224263222+224627935+225274164
3372+226043952+226683344+227011104+227187481+227547943+228063364+228800385
3358+229721145+230256666+230522614+231109848+231672930+231774347+231897082
3345+232379884+232874614+233326823+233900827+234535376+235041572+234963236
3331+234665607+235129431+236134738+236999765+237560508+237882091+238147001
3318+238380181+238419934+238206359+238101910+238376310+238753642+239099409
3304+239237696+238722538+237904430+237772403+238554449+239768900+241106350
3291+242671281+244694565+246738640+247930867+248396041+249095121+250366838
3277+251583958+252061554+252332725+253339334+254327969+254467162+254629387
3264+255062749+255098713+254909174+254848827+255194627+255907743+256036162
3250+255569752+255373458+255257610+255202881+255696062+256423214+257005044
3237+257173134+256633297+256054103+256166344+256478585+256345141+255827298
3223+255151085+254479733+254021626+253851411+253981033+254083306+253462399
3210+252597701+252631885+253231904+253336945+252739546+251987122+251357302
3196+250868536+250718519+250581797+250193674+249733195+248998201+247968363
3183+246897421+246097254+245936677+245907583+245389130+244812934+244574004
3169+244565586+244723593+244919442+244845323+244276063+243584595+243460360
3156+243763294+243750345+243335698+243009502+242865597+242709386+242522302
3142+242249072+242047638+242074953+241758626+240859776+240162707+239959971
3129+239636050+239033972+238649309+238487611+238030691+237254297+236552202
3115+235903403+235035378+234174864+233532968+232688864+231613276+230720934
3102+229833073+228675376+227450134+226418879+225615582+224901164+224304227
3088+224097653+224139564+223764604+222987007+222576281+222624173+222479296
3075+221872803+221183707+220701037+220432074+220541185+220820609+220693113
3061+220397000+220545699+220955140+221143938+221184531+221262110+221240825
3047+221201846+221299820+221286228+221116376+221008616+220921829+220641894
3034+219949256+219035266+218492925+218439383+218384391+218076532+217935428
3020+218192233+218402810+218400932+218419713+218296170+217734554+216972674
3007+216458488+216191865+215834203+215301187+214936375+214847380+214858731
2993+215237957+216026362+216648999+216929560+217005112+216899593+216790268
2980+216762657+216775804+217036183+217406926+217312477+216916249+216801586
2966+216911372+216995623+217037419+216904107+216400630+215837168+215700100
2953+215748535+215523576+215177496+215148369+215512225+215893972+216105456
2939+216209871+216075027+215774104+215580298+215414366+215119242+214802997
2926+214665518+214596572+214243012+213633587+213125464+212897144+212872910
2912+212932597+213057836+213179929+213074953+212840603+212978000+213341527
2899+213364608+213251724+213287721+213301379+213294789+213352927+213439979
2885+213518348+213590984+213729502+214008811+214355171+214604183+214745386
2872+214867479+215024563+215210560+215290346+215158221+214943706+214858484
2858+214866375+214690987+214270574+213830853+213335810+212770323+212603683
2845+212896419+213231922+213523356+213730029+213787871+213951331+214360031
2831+214700542+214806111+214897693+215045782+215101038+214926111+214646770
2818+214563079+214633359+214773788+215091367+215380726+215402999+215422538
2804+215759853+216267334+216638571+216842509+216963794+217028654+217126529
2791+217240121+217228754+217165475+217147666+217141291+217150072+217157782
2777+217197650+217270187+217234125+217161291+217185360+217168342+217130269
2764+217292280+217580254+217768146+217862825+218020964+218208065+218272151
2750+218271541+218290009+218369251+218555430+218660257+218611163+218663750
2737+218849055+218930505+218820323+218701229+218802943+219061181+219300308
2723+219533802+219707822+219721150+219679403+219729305+219937905+220232584
2710+220450723+220626309+220805453+220835189+220824942+221057414+221323543
2696+221339639+221322620+221455174+221660134+221901337+222121848+222321701
2683+222558901+222723498+222807386+222901109+222867155+222680400+222545161
2669+222517467+222527616+222563596+222641883+222644815+222452986+222253315
2656+222222557+222214188+222108504+222032804+222151470+222406693+222564617
2642+222528472+222391157+222199987+221936527+221744088+221764780+221820480
2629+221729788+221592341+221498239+221348172+221110808+220942965+220872141
2615+220793953+220707215+220601926+220512635+220532882+220467758+220149701
2602+219916208+219943012+219947938+219844511+219700787+219554592+219523258
2588+219565597+219504164+219293438+219115678+219165020+219261115+219168067
2575+219031444+218981691+218928050+218883635+218895085+218784458+218450487
2561+218179350+218108410+217913237+217510073+217231851+217197996+217203367
2548+217141686+217061966+216884634+216638703+216542623+216515622+216346511
2534+216089723+215911732+215848915+215774071+215625405+215477975+215362768
2521+215272900+215269984+215346459+215294976+215005799+214668368+214542799
2507+214642882+214715188+214677841+214656111+214592239+214448598+214382749
2494+214418845+214466489+214542980+214651152+214758104+214963146+215301566
2480+215558337+215638140+215708420+215827152+215943001+216057185+216059624
2467+215890809+215804714+215929689+215994302+215871386+215790183+215874137
2453+215989574+216086955+216254171+216449246+216607451+216793052+217022921
2440+217203531+217306579+217455097+217642050+217689941+217656070+217710666
2426+217787783+217831078+217968987+218205017+218399531+218546369+218682761
2413+218819368+219003075+219194410+219363142+219549930+219709453+219816603
2399+219956702+220204742+220459274+220552898+220582865+220712948+220831054
2386+220590032+219583390+217595592+214703673+211195854+207462499+203759029
2372+199976267+195979880+192102060+188737866+186008089+184145464+183616550
2359+184789090+187623497+191782850+197336111+203194002+206115378+204478273
2345+200380914+197434480+196472254+196652748+197612603+198838389+199769858
2332+200606466+202058711+203956327+205572592+206973700+208746127+211112822
2318+213745844+216015044+217657355+219021362+220428153+221860629+223235855
2305+224562317+225729009+226540691+227140083+227779690+228441257+229117206
2291+229834325+230488429+231053093+231558696+231897115+231985517+231951497
2278+231986259+232148862+232376639+232566392+232636854+232620165+232669358
2264+232898172+233276213+233636444+233804007+233864534+234046495+234348094
2251+234626925+234837420+234953615+234954966+234966069+235104571+235293368
2237+235443962+235598987+235801014+236010438+236151081+236203338+236266337
2224+236406090+236602318+236804328+236860655+236768760+236749402+236859501
2210+237021759+237174741+237225203+237249667+237417856+237587724+237579141
2197+237549536+237651151+237821481+237986292+238186754+238430000+238559424
2183+238559078+238638452+238827612+238984878+239093445+239183940+239256609
2170+239341568+239428273+239488537+239564863+239702360+239865507+240034947
2156+240227847+240361076+240402098+240463597+240577551+240679265+240742099
2143+240792132+240867964+241005757+241237520+241525462+241735248+241796303
2129+241811212+241909549+242068248+242143223+242115381+242119467+242225793
2116+242411675+242587228+242715762+242857953+242939469+242913670+242944214
2102+243069091+243149041+243156735+243195022+243318976+243477197+243606291
2089+243688664+243759191+243865831+243960905+243940395+243836440+243831811
2075+243969867+244106375+244245947+244422323+244506838+244517530+244542620
2062+244535405+244562176+244718980+244918717+245062638+245116922+245096757
2048+245042935+244976147+244984038+245116279+245273594+245404830+245551486
2035+245704271+245779263+245757467+245772014+245861767+245901372+245908291
2021+245985689+246151175+246398309+246639694+246805493+246976202+247229448
2008+247525034+247749038+247866650+247963899+248100308+248264806+248418941
1994+248532006+248706883+249084462+249532124+249768418+249795189+249918863
1981+250215206+250474252+250657629+250817086+250956115+251071453+251124880
1967+251224600+251490301+251762311+251965129+252230583+252510995+252695016
1954+252823089+252959333+253161656+253387110+253435166+253354425+253631180
1940+254352368+254967362+255229866+255337066+255501350+255773871+256118831
1927+256354993+256356459+256410908+256620332+256892145+257488357+258220649
1913+258578640+258689234+258959465+259453997+259982697+260426916+260765978
1900+261025715+261268500+261625519+262064696+262287877+262473709+263047994
1886+263731456+264257371+264759152+265275562+265742285+266113604+266418119
1873+266464099+266113489+266108744+267159258+268517351+269390417+269842346
1859+270247866+270813107+271460127+272077723+272597972+272916045+272884447
1846+272678268+273284646+274721404+275780254+276477159+277319632+278011924
1832+277988860+277840392+278581020+279699079+280831372+282136154+283283636
1819+284170064+284918600+285463412+285780085+286300844+287293796+288334919
1805+289089583+289480161+289718020+290389027+291336806+291629261+291524022
1792+292736052+295127920+296810034+297658339+298294354+298869611+299695511
1778+300732219+301089255+300618479+300798085+302726986+305164028+306991479
1765+307768977+308051351+308952342+310173333+311294951+312270242+312551825
1751+312403126+312981249+314568338+316255130+317275166+317812564+318785384
1738+319731779+319726244+320543775+323188527+325532059+327390845+328775627
1724+329649468+330094115+329621099+328882975+330153851+333205623+335917525
1711+337713214+338469657+338706660+339221917+339297073+338951669+340099020
1697+342436489+345769052+349290051+351204949+352139416+352213980+351428047
1684+353039748+357330633+360244843+361403133+362272328+363930389+365233226
1670+366541170+369832020+373078586+374703335+376644560+379651257+381672943
1657+381483486+379932081+381784278+386559810+388537773+390803282+395845240
1643+399996949+402061403+402684996+402496791+404636204+409873451+413816790
1630+416255380+418899144+421784721+424800182+428667046+431977039+434440835
1616+439016269+445190421+450092676+454248239+458620146+463285036+468061853
1603+473282560+479049463+484646909+489862343+495355571+501270712+507152343
1589+512881651+518699723+525084750+532218015+539556290+545691101+550678529
1576+557338581+564640611+570172554+576536724+584819713+592571893+599491056
1562+604848633+609415499+619586269+632174048+642019018+651268534+660130569
1549+669053494+677291079+684080488+690182977+697829852+709451697+720428203
1535+729468558+739565720+749862289+757552064+764265032+771805613+779036606
1522+785757679+793095888+801722865+811726583+821194023+828114768+832126905
1508+834523089+843244234+859465433+871385006+877670889+881045198+884560529
1495+889376292+893374327+896670152+902054154+909933978+917167475+922234178
1481+925939559+930020691+935012666+937584469+935814249+936185058+941098679
1468+944600765+944816120+944088276+944212626+945024094+945705546+947402684
1454+949859231+949585623+946376586+943512854+942895126+942152916+940825730
1441+939506517+935670262+928260422+922663833+920883334+917920294+912631317
1427+908084418+906496011+909960535+916296698+920434502+923880113+929746423
1414+934884164+938532807+943215061+947064891+947083869+946286964+948413956
1400+952186157+956527850+961825789+967458886+972361239+974919072+973813303
1387+970798731+970365781+972328949+974017521+977053510+982428615+986814064
1373+988564514+989956808+991791871+992478001+991351079+990257699+990941588
1360+990319379+987569322+987557065+990439050+991071737+988261185+985870338
1346+985592908+984529972+980829006+975607641+971562884+970168548+967669496
1333+961666777+957623735+959742093+963743620+964994629+964896704+966381453
1319+970058893+974175017+977084811+979484752+981044229+979802446+978098191
1306+979066036+980259845+980636584+983102357+987236866+989746132+990088736
1292+992052432+997221936+1001962509+1006007265+1011468566+1016828713+1021323882
1279+1025303267+1028435797+1031934324+1035789096+1038231409+1040191810
1267+1042829511+1044811263+1045222665+1045111890+1047087975+1050399615
1256+1050922187+1050426040+1052811747+1055846813+1057952190+1061077800
1244+1063714183+1064261862+1065602755+1067647769+1066875049+1064364992
1233+1063305945+1063866408+1065331256+1067337060+1069075912+1069105434
1221+1066314982+1062301725+1059781915+1060256645+1064014349+1066945955
1209+1065380086+1063606308+1065048487+1067727836+1068873671+1066768294
1198+1063443013+1062043536+1062506931+1062567492+1060553450+1058304876
1186+1058491632+1060613614+1062327095+1061984755+1060919250+1061408411
1175+1061632266+1058587843+1053007267+1048772658+1048829726+1048698259
1163+1043746153+1039841958+1041445191+1044153930+1044449747+1044499697
1151+1045459832+1043252972+1037758130+1035103954+1035782836+1035312192
1140+1032928594+1031548491+1032986386+1034222765+1030850960+1024681058
1128+1021727903+1022727181+1023580231+1022875847+1021838019+1023049159
1117+1025780303+1024266691+1019590632+1017212371+1016684462+1015415859
1105+1013463695+1013026725+1013008142+1009977820+1006444828+1006494713
1094+1010287673+1015054737+1015546271+1012340792+1012297300+1016393127
1082+1019817453+1020643023+1021056468+1022452650+1024449558+1025979513
1070+1027119483+1029163970+1031226184+1033768201+1036887946+1037888410
1059+1037367288+1035250050+1032311459+1033723654+1040217511+1046144381
1047+1046925997+1043446844+1038532827+1035168930+1034572420+1034753311
1036+1036302046+1039150226+1038606369+1034581778+1031710732+1030953300
1024+1031870403+1034625073+1035169654+1029841073+1024176279+1024043297
1013+1026167257+1026670388+1025930287+1023392026+1019390565+1017840248
1001+1022138843+1027879090+1029478502+1031241077+1034478120+1035352192
989+1036539345+1040027131+1044515974+1048931077+1049294637+1045349914
978+1045075514+1052060048+1058338682+1057226850+1053544599+1053768653
966+1057986457+1060888607+1058940134+1055478114+1052200213+1049056943
955+1051673424+1061074769+1067241179+1064249407+1058854137+1058107314
943+1061018097+1063142320+1062190884+1060087484+1060148901+1061844919
932+1063761235+1065820746+1066469710+1064987070+1063695073+1065342854
920+1067974163+1066798410+1063254545+1061168278+1059580465+1057890378
908+1057508630+1057760361+1057905271+1058424613+1058659276+1058030543
897+1059068964+1065706808+1073741823+1072546894+1064376261+1058591269
885+1056503883+1055355609+1051803837+1048546826+1051626439+1056964049
874+1057470146+1054293992+1050920407+1047435785+1044479467+1044449088
862+1044942334+1043348261+1043330732+1045850805+1045235383+1040656062
851+1039452105+1040979490+1037930387+1034902965+1036666660+1035991996
839+1031905856+1031650962+1033908761+1034226126+1036273513+1041233065
827+1040191151+1031180516+1024771734+1023723691+1024097399+1025906037
816+1026091276+1022252254+1018593594+1018734748+1023375222+1026738724
804+1023201054+1018592869+1018765456+1021769155+1023794004+1021842500
793+1016366109+1012276542+1011381910+1010025794+1006445553+1003021425
781+1001582409+1001176609+999920724+996547930+992792664+992398462+993128217
768+990387781+986966025+985466186+983479294+981014839+979370089+978169493
754+978676447+980981165+980271443+974070173+969294806+970341003+969738892
741+963256963+956441985+951774558+947755436+945228246+946498827+948073197
727+943789363+935560608+927037684+918874893+914429741+916515348+921538295
714+922098164+917485697+915247667+918798913+925621865+932994604+937882723
700+938604175+936990398+934859453+933916517+935025845+934045414+928731857
687+925009935+926922033+929309190+927770932+926889282+928259763+928929024
673+928778776+924100872+914957320+915668294+925373956+931321321+935852338
660+941445633+947177642+951917359+950423846+941049454+932537667+931475456
646+934419517+936086276+935059453+932398095+930510906+927901146+924891582
633+929065762+947187263+978467088+1000545240+992557870+981315202+979395658
619+960166279+935359223+937732146+948762293+940851166+936826443+951887244
606+965371302+960026707+949278670+950114652
##END=
