##TITLE=Sample description
##JCAMP-DX=4.24
##DATA TYPE=INFRARED SPECTRUM
##DATE=12/9/2023
##SAMPLING PROCEDURE=Instrument type and / or accessory
##ORIGIN=Default
##XUNITS=1/CM
##YUNITS=ABSORBANCE
##RESOLUTION=4
##FIRSTX=4397.6552
##LASTX=599.8556
##DELTAX=-1.9287962
##MAXY=1.7530313
##MINY=0.11847306
##XFACTOR=1
##YFACTOR=1.6326376e-009
##NPOINTS=1970
##FIRSTY=0.14025395
##XYDATA=(X++(Y..Y))
4398+85906357+85687599+85483418+85297263+85619238+86541024+86722251+85566520
4382+84696092+85320409+86834221+87956200+88021331+87369778+86861648+87049930
4367+87384308+87352756+87300887+87353350+87560013+87695586+87270175+86841048
4351+86950600+87440385+88246541+88683936+88232731+87898362+88555154+89357667
4336+89145089+88333312+87922412+87956218+88353975+89132558+89344716+88433554
4321+87478135+87433868+88358995+89485264+89328625+87945494+87410896+88552059
4305+89750751+89746991+89237099+89215632+89420106+89133954+88781988+89158743
4290+89951920+90251342+89822079+89654068+90418833+91215651+91273964+90905186
4274+90452986+90000887+89527905+89048717+88827304+89003073+89395545+89848484
4259+90488427+91215451+91126526+90002512+89301344+89942556+91085637+91553681
4243+91129720+90604513+90556971+90680122+90711565+90866761+91034489+90952674
4228+91213415+92130957+92780630+92512422+91825758+91607686+92016678+92394008
4212+92420038+92490399+92422548+91674660+91154354+91427216+91440962+91060857
4197+90967633+91187750+91545156+92040006+92481418+92224948+91283885+90747562
4182+91285346+92268529+92705806+92653627+92668851+92794521+92848708+92561234
4166+92017572+91660221+91492265+91253857+90911794+90957320+91712528+92531662
4151+92839317+92720501+92605427+92879439+93259663+93420335+93468462+93156454
4135+92427331+92037049+92187682+92344978+92372194+92443112+92674245+92908691
4120+92898031+92781351+92714121+92551514+92334500+92192638+91875099+91491142
4104+91474951+91613992+91584530+91532743+91703930+91826899+91659865+91801489
4089+92444700+92997151+93105352+92724325+92311509+92549241+93203249+93708568
4074+94073084+94010655+93424078+93084971+93113365+92957056+92627615+92509009
4058+92814993+93423201+93786805+93551948+93100268+92698778+92472665+92756653
4043+93328764+93782999+94085049+94220832+94116629+93646832+92934612+92621865
4027+93056513+93576791+93474249+93081886+93133253+93487684+93662768+93807404
4012+93740229+93171085+92847631+93259727+93552924+93165006+92660682+92156805
3996+91450107+91128808+91725598+92889196+93682428+93647617+93303628+93243681
3981+93302031+93105489+92941649+92952018+92919142+93102230+93416958+93453385
3966+93198859+92801175+93036853+93879645+93990174+93393712+92672922+91497276
3950+90555948+91183926+92018092+91707198+92336143+94110687+94613615+93322904
3935+90888182+89330378+90499525+91878567+90816699+89443845+89698052+89281694
3919+88093498+89281676+92433437+94204632+93976538+92511701+88880916+83730258
3904+81453014+83574131+87447148+91217303+91960501+88401965+85710225+87749500
3888+88313953+86577623+87283628+87173538+86885643+89681240+89699585+86329076
3873+83158358+81486173+84088459+86393111+85055551+85973376+89681568+90327060
3858+84863984+74780316+72565437+84546545+93557177+95074604+91675801+86575232
3842+82148769+78936322+79580801+83990626+87002296+88537219+90269195+90848197
3827+90155709+87048369+80859866+79879110+84110254+86074176+90345962+95486553
3811+95180980+89997729+85790726+84925956+82367344+82261224+87581873+90642409
3796+92969359+96386726+97619544+96948323+95808893+94670011+94359554+93425903
3780+91876486+93339662+96421145+96981171+94329672+91556702+92245894+94539266
3765+96649960+96983161+94050549+92303632+93655010+92132774+85130475+80040823
3750+84218300+86807452+85047081+90122980+97236518+96320674+90010918+86224106
3734+90545808+99765614+106565356+107926318+107310370+108974632+113060601
3721+118724911+124534606+127777683+126368129+123309646+127855464+140500961
3707+153164238+162426202+169760259+177958648+184739552+187227019+186072831
3694+181138201+172984170+167688456+169412464+171252440+168468727+162112176
3680+153848766+143861832+136731153+138611288+139997741+138866079+143529991
3667+149443661+151355020+151331527+150612279+148096554+145710789+145341974
3653+141208736+132260642+130364014+140264525+149527684+153024010+153383433
3640+153365179+152899070+151385020+148575569+143210845+138256766+142621430
3626+150383737+152020628+148181499+143559827+143574248+145586306+145498157
3613+145329270+145605518+146279377+149073194+151467501+150945471+149675488
3599+149288181+148553728+148240104+149658758+149781708+146711497+145784591
3586+150022325+153748679+154658755+154496896+154430962+154685443+154979480
3572+154073127+150578737+146775916+147988453+152355079+154951588+156182863
3559+157302313+157660678+156645823+155320886+154859368+154237852+153509112
3545+154545799+156757228+158085140+158028699+157547137+157609512+157812260
3532+157301711+156289485+155478455+155162641+155502916+156338588+157121233
3518+157678001+157951502+157551737+156514631+155841602+156038728+155793722
3505+154739950+154817822+156114775+156675084+156423634+156294925+156126385
3491+155442276+154696888+154559490+154687195+154659431+154790386+155229470
3478+155695460+156005616+156156778+156133741+155844067+155409345+155068304
3464+154878900+155070860+155615799+155966807+155975697+155900180+155875847
3451+155543166+154905240+155048188+155987197+156659934+156902914+156824166
3437+156774934+157269511+157925782+158281281+158500366+158727064+158833303
3424+158762805+158793728+159092876+159416795+159714318+160167367+160543000
3410+160567168+160608842+161028358+161692168+162284221+162487006+162498999
3397+162647350+162797198+163265872+164256795+165097871+165549441+165844153
3383+166041936+166305398+166813373+167493593+168049576+168444613+168927014
3370+169370479+169629122+169927521+170440936+171244719+172147639+172790092
3356+173336291+174261628+175454624+176276916+176622412+177071791+177899286
3343+178631603+178926973+179307206+180170880+181101638+181587891+181689237
3329+182015310+183020819+184359337+184964442+184546642+184291432+184695285
3316+184985325+184818866+184588335+184942592+186059560+187081132+187344776
3302+187359124+187808229+188866346+190357487+191725996+192597976+193217995
3289+193680572+193962762+194579239+195846402+197255801+198304042+198873241
3275+198881310+199066151+200274389+201308885+200828857+199914784+200019361
3262+200601722+200551870+200154624+199895106+199560307+199372546+199654772
3248+199947130+199796880+199435614+199035447+198418057+197778069+197783563
3235+198572761+199224651+199136374+198551768+197621193+196636074+196067185
3221+196107326+196495737+196442197+195736257+194988861+194382442+193889034
3208+193721406+193908036+194094629+193460646+191883566+190567464+190169944
3194+190141322+189975538+189611570+189057047+188335116+187506142+186442586
3181+185196926+184323395+184118657+184131216+183856802+183307080+182585039
3167+181693874+180919444+180647367+180784473+180867292+180871016+181085319
3154+181166367+180637856+179863956+179336686+179066033+179029981+179006050
3140+178675249+178189088+177612313+176870740+176291191+175937007+175552375
3127+175167067+174787546+174429730+174067605+173356517+172223649+170915415
3113+169718421+168871631+168081612+166968751+165701862+164404361+163031854
3100+161826463+160783789+159665890+158806670+158427587+158103814+157617543
3086+157179609+156816371+156283717+155751190+155458540+155047403+154493957
3073+154131833+153787706+153510573+153703975+154043556+153944965+153608086
3059+153616629+154048229+154332682+154139846+153834035+153702314+153590544
3046+153360743+153129884+152975536+152720097+152273027+151800383+151324106
3032+150806019+150462002+150268874+149909012+149356114+148885514+148694640
3019+148602567+148420564+148235586+147945702+147388441+146699997+146143147
3005+145812045+145446214+144908622+144527486+144395910+144317536+144558390
2992+145279226+145972453+146450299+146914537+147142394+147023797+146944949
2978+147111609+147377379+147421591+147043722+146585973+146426459+146391266
2965+146239236+145985796+145597979+145097643+144725881+144585607+144532068
2951+144361127+143989811+143697034+143807891+144103252+144143401+143925365
2938+143674198+143484876+143370833+143264668+143156311+143059866+142790718
2924+142303754+141774230+141112208+140295018+139693683+139338385+139005859
2911+138956555+139312628+139559442+139484728+139445062+139533859+139556549
2897+139424946+139206809+139167262+139375915+139523701+139512027+139601837
2884+139967896+140458073+140738538+140751891+140756600+140805430+140829087
2870+140919108+141068390+141196360+141219387+140977922+140573996+140298623
2857+140123558+139839369+139425567+138938830+138427907+138115196+138135933
2843+138294442+138489277+138827708+139314134+139728238+139889120+139982116
2830+140168207+140275651+140229851+140167833+140115498+140026428+139993844
2816+140055844+140100493+140071606+140032652+140059924+140113755+140257734
2803+140653702+141138996+141484035+141747241+141930220+141942277+141876480
2789+141795815+141693702+141669552+141733733+141829485+141962740+142060354
2776+141986397+141792301+141660187+141535932+141332535+141250985+141455185
2762+141771145+141876617+141807051+141869480+142020660+142099874+142274355
2749+142604599+142741989+142496161+142222012+142241845+142479522+142786565
2735+143001936+143021559+142968769+142968340+143036026+143180370+143398917
2722+143649601+143850834+143856137+143617118+143486838+143753394+144139942
2708+144408433+144574554+144572418+144496664+144528663+144610734+144660513
2695+144763393+145022236+145212325+145067752+144899468+145021907+145228936
2681+145295454+145210928+145091519+145094367+145128128+144907500+144576188
2668+144533300+144657236+144632410+144451257+144215624+143995187+143808932
2654+143639023+143498639+143457741+143495755+143470419+143333951+143130947
2641+142921500+142751691+142572509+142359876+142193408+142063493+141926296
2627+141788441+141529159+141127305+140863633+140926345+141082409+140943230
2614+140554957+140312141+140303187+140285882+140157574+139980190+139739738
2600+139431298+139166970+139067814+139146452+139286562+139326684+139165208
2587+138875753+138651876+138553066+138464972+138318976+138154507+138063209
2573+138088901+138061109+137872755+137675629+137493690+137210067+136872175
2560+136628847+136492626+136351969+136201090+136090443+135953227+135779913
2546+135658058+135549665+135440506+135409063+135359868+135185304+135003119
2533+134917188+134865611+134808841+134750757+134631092+134446306+134262441
2519+134105602+134017791+134015582+133976363+133848274+133793996+133834145
2506+133805350+133729066+133727596+133778899+133820793+133916517+134146035
2492+134445283+134684147+134830162+135008495+135286962+135553499+135744756
2479+135874150+135927242+135889794+135778462+135667587+135609612+135622335
2465+135734981+135906551+136086956+136265682+136381112+136420139+136487561
2451+136650132+136848590+137015177+137186830+137419049+137694357+137975169
2438+138245056+138446024+138524052+138544469+138581625+138651949+138773421
2424+138929210+139121837+139381218+139626243+139753018+139803591+139873513
2411+139996400+140182655+140435283+140686413+140840962+140945494+141126438
2397+141401782+141714931+142013139+142240357+142346605+142280854+141799731
2384+140450415+137991497+134590248+130580535+126298426+121924717+117285001
2370+112361853+107654432+103483627+100076555+97896002+97333265+98773139
2357+102267338+107426028+114189535+121035533+124247934+122057141+116968228
2343+113554530+112856037+113410295+114590395+115857147+116600071+117123206
2330+118486713+120708474+122759002+124362743+126141733+128564581+131381680
2316+133834401+135610141+137194131+138933354+140675680+142346769+143931526
2303+145284483+146383654+147301150+148063660+148730245+149376349+150023027
2289+150633006+151204770+151762013+152168888+152276705+152203616+152154257
2276+152197410+152332590+152551439+152776411+152845713+152777032+152814033
2262+153037427+153282689+153443233+153616501+153880072+154126046+154244132
2249+154242179+154215820+154292669+154499799+154734784+154902082+154982254
2235+154985923+154972653+155053391+155212457+155333080+155413142+155477853
2222+155519984+155580879+155678812+155783427+155868126+155970768+156119083
2208+156256719+156384023+156513554+156574760+156569192+156632461+156852733
2195+157109988+157226139+157203577+157192460+157286469+157442395+157620409
2181+157829619+158016195+158119549+158157591+158150892+158130867+158222758
2168+158496916+158801431+158995709+159098151+159125715+159122028+159157130
2154+159230165+159324739+159402192+159426926+159489556+159674524+159887185
2141+159998097+160007516+160049683+160243359+160514468+160683520+160697593
2127+160693322+160723058+160704238+160717472+160836635+160983745+161138266
2114+161274076+161333511+161356475+161416841+161507345+161546884+161515541
2100+161498291+161503037+161508130+161579923+161655641+161651881+161661045
2087+161711444+161769748+161892233+162065501+162132219+162034031+161938197
2073+161998818+162154763+162231722+162156369+162043450+162053745+162181341
2060+162314304+162385641+162409024+162475761+162627124+162787249+162845352
2046+162799297+162729238+162661460+162652990+162748186+162937024+163161641
2033+163281132+163304552+163341681+163387480+163442316+163574384+163661584
2019+163484428+163326475+163585793+164036505+164322985+164435284+164545630
2006+164702816+164803615+164894265+165049625+165208929+165151648+164608041
1992+164104045+164443170+165248723+165856657+166176907+166344717+166516963
1979+166703264+166902489+167114985+167310943+167305959+166875838+166636454
1965+167282941+168186318+168666620+168939372+169189599+169391252+169625288
1952+169876957+169987596+169845761+169276891+168422307+168571023+170143978
1938+171477641+171862200+171987277+172314409+172797047+173165378+173027541
1925+172193530+171522382+171438851+171379543+172155908+173898116+174825679
1911+174591881+174520306+175323578+176357362+177016317+177406261+177616183
1898+177468452+177250133+177428129+177309843+176905113+177679871+179160516
1884+180100109+180725549+181307380+181802176+182238960+182476372+181632358
1871+179122493+177364076+179293479+182738538+184783690+185559142+186045212
1857+186673555+187372778+187963316+188242732+187823380+186290839+184115900
1844+184364831+187887854+190684929+191662290+192428432+192789754+191158312
1830+189037825+189570954+191447475+193524572+196349339+198486255+199388536
1817+200121073+200673332+200216907+199728774+200861952+202752273+203556914
1803+202723833+201594927+202274034+204038256+203945854+201847253+202220641
1790+206695213+210418336+211555183+211685426+211697382+212349565+213664079
1776+213237864+209930769+207344657+209824932+214892178+219020506+220432953
1763+219603961+219817991+221215615+222402442+223578462+222781214+219760180
1749+218819765+221553754+224711366+226219811+226506510+227454299+228223162
1736+225873349+224293749+228958090+234843466+239303708+241892979+242651601
1722+242097808+238511152+232702133+232290996+239154645+246031383+249601811
1709+249402969+247114070+245985383+244561253+240978576+240583430+244977756
1695+252474330+260542659+264029812+263825786+261232828+255782191+255242107
1682+264115825+271701533+274026448+273707439+274762234+275807244+276525726
1668+282049159+288803540+291265360+293094786+297983451+301767909+299729072
1655+292057916+291263243+301702888+306101376+308406084+318206233+328797916
1641+334074226+334105952+330618434+332394265+343643096+352645870+356190779
1628+358294746+360752915+363628666+368482247+372158147+372134015+374688566
1614+382385150+388352743+391408697+394521897+398947967+403495720+407933619
1601+413181927+419013782+424565181+430153636+436427276+442955707+449525502
1587+456543472+464126588+472351847+480845989+487103347+490606381+497853330
1574+509030787+516174528+521872178+532072603+543692065+552694219+556152201
1560+553796912+560985959+582632651+601234086+615504006+627549518+638878886
1547+647407492+651529193+653455731+659130710+678267647+698910765+710161640
1533+719319355+731815525+742316814+749681903+756765734+762784109+769081918
1520+779061286+790917029+803979368+817028344+826028416+829027199+828306820
1506+837575519+859642311+874891783+880625467+883112405+889467094+899087513
1493+904715689+905641829+908839581+918640789+928446524+933710348+937281726
1479+941513317+944444779+944107151+942206315+944478293+951725315+956978187
1466+957355973+956608067+956010428+951706915+944133875+945087907+954373181
1452+958112642+954194218+949254368+948853946+949648802+948041420+944052243
1439+936855164+928053331+924010487+923162694+919158256+914870150+914512005
1425+914812102+914592469+914313254+914198473+918998569+927935264+933924140
1412+935512174+937097213+940895963+945628666+951031586+955530345+956897504
1398+957982892+961195394+964537062+967217712+968794939+969058893+968913152
1385+968892416+969820162+973327577+977972733+980135405+981986882+986736670
1371+991115244+992654356+992267369+990199253+986838455+985089421+986011764
1358+986697826+986475564+986625685+986366988+985296787+984635113+983507594
1344+980651996+976339795+970438027+964973115+962942311+962426304+960664054
1331+958967299+959459721+962337662+965697438+966841605+966286826+967369586
1317+970635609+972292278+971809128+973215497+975992237+977125013+977951047
1304+980591758+984309314+987316712+989590224+992065698+994909394+998264132
1290+1001074240+1002778881+1006220508+1012276560+1018915574+1025614754
1279+1030868721+1033623848+1036393651+1039942394+1042881595+1045495217
1267+1048441939+1050843009+1051472265+1050841695+1051350692+1054689147
1256+1058355811+1059208934+1058974260+1059990137+1061204472+1061868118
1244+1063548882+1066234133+1068134749+1069355948+1070860889+1072196942
1233+1072278356+1071827772+1072447535+1073664426+1073741823+1071258536
1221+1066287946+1061494128+1059879079+1060371866+1059663607+1057884490
1209+1057030126+1056409340+1054295297+1053220788+1055885594+1058670731
1198+1058053523+1055779939+1053643407+1051030077+1048643537+1048013259
1186+1047559390+1045854311+1044056064+1042509942+1041494868+1041613739
1175+1040895842+1038613642+1036852486+1034669589+1031439709+1030713050
1163+1032561898+1032145558+1028521244+1024632611+1021563659+1019293580
1151+1017120685+1014755539+1013407656+1013238988+1013314925+1013017019
1140+1013008695+1013256220+1011230673+1006385525+1002044628+1000768155
1128+1001220784+1001166679+1000252733+997464018+992992276+990518627+991121523
1115+992826748+993953902+992243274+990207504+991217540+990642390+986757480
1101+984253383+985698231+990705695+994823381+994416972+992732045+994110011
1088+998694709+1002646210+1002458850+1000384527+1001317166+1005004566
1076+1007077574+1007475805+1010830032+1017787690+1022458694+1021755838
1065+1019865444+1020716304+1024331345+1028018745+1029802974+1030925820
1053+1032355334+1033276728+1032542694+1030556211+1029347498+1029762669
1042+1030165062+1029213074+1029722656+1034378764+1039749338+1039875292
1030+1034427685+1028701303+1025003388+1023367967+1024315428+1025073922
1018+1024510454+1025035369+1025439223+1023335037+1020570563+1020401603
1007+1023109489+1026393036+1029019143+1030256990+1029001254+1027820068
995+1028616385+1028760519+1028285985+1029339174+1031353550+1032911719
984+1033430574+1033340764+1034295891+1037324318+1040034540+1041474569
972+1043648486+1044546953+1043544146+1044945038+1047774350+1047745216
961+1047346182+1049916651+1052767867+1053780458+1055012172+1058782008
949+1062368426+1060267599+1054304789+1050335399+1049608229+1050228796
937+1050517794+1051191298+1052394242+1051624942+1051022922+1053080450
926+1052362699+1048209162+1046260355+1045750336+1044492556+1044823758
914+1047746969+1050266910+1051402242+1051939788+1049929501+1045648040
903+1042059139+1041282390+1043489310+1045055220+1043089473+1040858311
891+1041224050+1040376257+1037002243+1035033137+1034983486+1035688678
880+1035442394+1031784419+1026640780+1022364649+1018860666+1017899624
868+1018372332+1015824864+1012378782+1011793702+1011820864+1010853032
856+1009934778+1008304979+1006420646+1007192575+1010600761+1014678433
845+1018058873+1017684080+1012727874+1007887253+1004889419+1001384414+998680544
831+998275741+999227948+1001490726+1003088032+1001701962+999566963+999294393
818+1000510700+1001587326+1000938576+999191367+998752903+1000468496+1000990782
804+997335728+993918489+992607333+991088520+990856912+992841059+998351240
791+1001368642+992500876+981273804+976770007+974500439+971188124+966199937
777+961285058+960145199+961217956+961302217+960984742+960493049+959062001
764+955833144+950643796+945490154+939894909+932926152+928186878+927843482
750+929116523+928648561+926279033+924360235+923264552+920858808+918443791
737+918397280+917332482+912753478+908240117+904763588+899787156+894913970
723+891742941+888070874+884633190+883039097+881618636+880855396+882586979
710+884398150+883762543+883582192+886668084+889702426+887903010+883649806
696+882590776+884266064+885589924+886029628+884429840+880574794+878032874
683+878308219+879000926+878943900+879686111+882872984+885999400+883676603
669+876993121+877283872+885268652+890772773+893222472+893830480+891957756
656+887179490+881953343+880589616+884792293+892049537+896963029+899528605
642+902289136+901651045+896774427+901619940+935017122+965099069+927625820
629+872178129+854684061+860453742+862955941+857766009+850354773+845490860
615+849603508+862855470+873534116+876419139+875968920+873658536+869283978
602+861101105+849552834
##END=
