##TITLE=Sample description
##JCAMP-DX=4.24
##DATA TYPE=INFRARED SPECTRUM
##DATE=12/9/2023
##SAMPLING PROCEDURE=Instrument type and / or accessory
##ORIGIN=Default
##XUNITS=1/CM
##YUNITS=ABSORBANCE
##RESOLUTION=4
##FIRSTX=4397.6552
##LASTX=599.8556
##DELTAX=-1.9287962
##MAXY=1.9345583
##MINY=0.29191938
##XFACTOR=1
##YFACTOR=1.8016978e-009
##NPOINTS=1970
##FIRSTY=0.30862641
##XYDATA=(X++(Y..Y))
4398+171297548+170699052+170647989+170254920+169154117+169068086+169936319
4384+170513923+170989368+171659371+172207630+172492173+172759810+173209269
4371+173600750+173697136+173309062+172112220+170650801+170212525+170993172
4357+171801625+172252771+173071579+173528019+172652292+171829564+172011153
4344+172077699+171955459+172459620+172864268+172800766+173052292+173232129
4330+172660761+172045642+172108846+172342954+172139265+172150795+173124677
4317+173911428+173272341+172384373+172373175+172573655+172634130+172878212
4303+173175525+173217291+173155526+173088915+172765136+172666716+173350713
4290+174141384+174407599+174442253+174764030+175346877+175454528+174779182
4276+173880661+173109806+172490039+172223808+172335014+172636677+173139746
4263+173833271+174454411+174868802+175220882+175155942+174309493+173633585
4249+174061225+175009601+175105805+173967701+173064798+173300064+173601660
4236+173485342+173882779+174853932+175318029+174937680+174415158+174263492
4222+174311213+174349539+174373309+174629897+175045082+174705027+174264782
4209+175066520+175998685+176000273+175309295+174351276+173954154+174050887
4195+174109526+174389702+174740508+174529889+173854146+173451251+173624735
4182+174016746+174319782+174393159+174285938+174258099+174210891+173990909
4168+174028424+174485442+174793903+174814266+174859456+174668405+174321585
4155+174586046+175213340+175393755+175199759+174932999+174783697+175201976
4141+175958457+176211141+176110057+176095236+175827020+175196650+174491711
4128+173837555+173553045+174189089+175431734+176132073+176021710+175616764
4114+175243924+175368728+175969374+175997990+175071465+174539532+175443776
4101+176548185+176515251+176168861+176163849+175913795+175561285+175595724
4087+175846538+176101141+176290787+176394649+176627781+176983187+176959268
4074+176559383+176317402+176339798+176289927+175632693+174540855+174143469
4060+174804209+175592002+175793292+175665908+175503457+175222603+175033437
4047+175271598+175825829+176337053+176643826+176656629+176152320+175460300
4033+175469266+176039674+176271251+176288636+176479721+176486999+176283740
4020+176414565+176897255+177122050+177008743+176942760+176820718+176622902
4006+176512605+176016401+175181465+174997973+175361070+175240451+174992150
3993+175726069+176856547+177126897+176810777+176684551+176746746+176756737
3979+176727856+176483227+175847035+175410247+175650376+176203135+176553594
3966+176414102+176101472+176554173+177643794+178029205+177420322+176419676
3952+175312157+174728053+175308882+176224589+176629717+176812597+176455223
3939+175558390+174729674+173789304+173667230+175332850+176680366+176192780
3925+175499619+175516805+174795839+173930285+175060846+177367820+178517503
3912+178132770+176644157+173639887+169883370+168209777+169383213+172044418
3898+175035604+175985468+174010179+172283505+173158107+173080264+171518886
3885+171347353+171136800+171779080+174318409+173899088+171126792+169204501
3871+167866050+168980979+170989053+171256046+172477765+174777709+174685790
3858+170354846+163064193+162024609+170914270+176930552+177554587+175082912
3844+171771752+169055812+167105632+167647590+170683586+172702892+173601247
3831+174652856+175080580+174531791+172239423+168212391+168050965+171201228
3817+172294406+174418516+177172997+177073866+174732353+173195076+172761646
3804+170232655+169363082+172709657+174640483+175799115+177517535+178026856
3790+177792566+177444571+176935184+176931363+176571458+175659540+176394285
3777+177934755+177851867+175889976+174045809+174642038+176566777+178377944
3763+178202160+175219840+173727076+175180224+174338606+169027593+164834371
3750+167435200+169204485+168065240+171692288+176362509+175175543+170492436
3736+168001109+170908861+176334985+179513782+179135765+178049981+179021366
3723+181445551+184405706+187106990+188097943+186510099+184329699+186736781
3709+193461061+199820243+203948027+207658311+214801052+223265669+228416795
3696+229751243+227773059+223373055+221196194+224765861+228178832+227332533
3682+223630354+218869900+213346134+209981297+211960325+212625829+211711644
3669+215275934+219539986+220960052+221376974+221716632+221292580+221356909
3655+222532843+220593531+215305146+215229205+223264793+230238796+232906601
3642+233772403+235060238+236267831+236440042+235354043+232596866+230507343
3628+234393245+239968835+241688413+240155718+238305878+239550739+241753768
3615+242026153+241905203+242154595+243111109+245915363+248362326+248596483
3601+248469166+249156917+249497535+250093648+251771823+252117916+250343355
3588+250474063+253694611+255956444+256667138+257409741+258192820+258539127
3574+258762881+258514812+256660026+254564018+255973299+259633893+261930148
3561+263007811+263802832+264039405+263737130+263663902+263917182+263631746
3547+263310135+264268733+265822038+266701503+266923272+267104034+267304729
3534+267103472+266575492+265890668+265124312+264732268+265065409+265763466
3520+266200254+266154617+265656560+264949918+264440315+264458196+264716074
3507+264245344+263315478+263364340+264208639+264583596+264401427+264176416
3493+263951604+263356798+262464381+262020745+262206586+262530099+262520142
3480+261877680+260988373+260505451+260552263+260740519+260555935+260006038
3466+259532743+259200049+258929153+258877098+258833644+258449126+257887667
3453+257533436+257229557+256546867+256074548+256344369+256632005+256563689
3439+256383324+256160579+255984928+255982546+256048330+256026132+255935337
3426+255612766+254981370+254568666+254663994+254911566+255126801+255290195
3412+255299426+255147048+254866690+254729580+255162844+256028828+256370256
3399+255716116+255135121+255345906+255621765+255543392+255391362+255422046
3385+256016224+256989544+257369066+257066262+256799832+256748389+256812734
3372+256926257+256920997+256851590+257179735+257889917+258216689+258164997
3358+258458439+259116268+259591332+259504408+259094285+258955570+259250550
3345+259699479+259960368+260124159+260645010+261481037+262109853+262126245
3331+261754017+261543133+261521447+261681335+262182882+262838461+263360503
3318+263486431+263133276+262581642+262098042+261664083+261156597+260730809
3304+260582699+260368854+259960450+260131305+261314947+262675464+263294388
3291+263780220+264979229+266064417+266331790+266457934+267046405+268116342
3277+269230229+269994815+270979731+272365258+273017976+272790269+272582941
3264+272302997+271718463+271362197+271408182+271479160+271542910+271667995
3250+271314691+270284237+269565620+269628807+269638054+269620073+270009190
3237+269894509+269050013+268580407+268756124+269083691+269126615+268382061
3223+267152583+266450093+266307226+266275467+266313413+266198054+265907044
3210+265751589+265798997+265854195+265595556+265021293+264470156+264070503
3196+263745633+263458642+263292336+263092766+262368988+261266944+260512580
3183+260157589+259722802+259194723+259148457+259693888+259752213+258734248
3169+257657115+257229276+257106275+257181323+257578859+257930029+257811677
3156+257298981+256655162+256006597+255395514+255082289+255248842+255435626
3142+255157617+254546700+254019795+253297968+251809637+250448358+250329973
3129+250970996+251331214+250972187+250477438+250415756+250189802+249274724
3115+247863888+246357345+245491212+245352481+244940968+243844895+242514103
3102+241340237+240582846+240173401+239700520+238982067+238167610+237439778
3088+236948322+236529613+235830133+235018852+234483428+234258798+234188101
3075+234152157+234179235+234217031+234134342+234099969+234282038+234373131
3061+233962660+233289647+232954885+232984378+233167523+233418040+233457259
3047+233350353+233392086+233367986+233145738+232979912+232756787+232139186
3034+231403267+231132371+231388429+231726284+231833173+231784724+231570565
3020+231104813+230645843+230444470+230283309+229846471+229302198+228943948
3007+228614595+228223179+228131094+228351258+228418962+228199228+228017506
2993+228323320+228970546+229428325+229880695+230534636+231166032+231658630
2980+231774816+231561467+231473798+231494475+231185782+230686849+230609833
2966+230668157+230277089+229875335+229826869+229821857+229640979+229350779
2953+229134238+229020285+228940871+228910154+228945420+228981777+228916042
2939+228800320+228655369+228449034+228303454+228188542+227954417+227564358
2926+227152002+226940191+226826106+226558436+226168277+225720572+225124723
2912+224653066+224861238+225457781+225670667+225518289+225391782+225325104
2899+225196694+225082229+225159724+225326146+225430422+225562272+225747319
2885+225967136+226337941+226775308+226935774+226842961+226816247+226786242
2872+226607546+226489194+226605264+226784174+226748776+226571139+226415867
2858+226141083+225739181+225395503+225013235+224475794+224048815+223963561
2845+224057234+224093873+224064744+224153835+224451759+224763280+224891111
2831+224888878+224946524+225170162+225335690+225156052+224915344+225029611
2818+225279252+225330066+225264480+225164571+225083172+225285438+225697414
2804+225880112+225890517+226052273+226300673+226504031+226646667+226713063
2791+226780866+226858543+226820135+226676672+226598134+226657468+226735344
2777+226729687+226681039+226697481+226747717+226597043+226273083+226115775
2764+226221871+226418645+226549834+226556384+226510416+226484347+226436924
2750+226416247+226478078+226516355+226549222+226648337+226734815+226839389
2737+227084232+227340290+227398681+227331292+227306364+227402320+227570809
2723+227718771+227877831+228011038+228007614+227923419+227960719+228170892
2710+228377642+228511824+228532931+228372017+228227579+228361365+228610608
2696+228627894+228571770+228769355+229055187+229141020+229095134+229084300
2683+229104199+229111891+228984854+228751689+228748595+228867907+228670455
2669+228404984+228490982+228583630+228368494+228071893+227798863+227598069
2656+227625114+227726214+227688252+227660860+227754417+227837934+227796878
2642+227594976+227342457+227178848+227106050+227053548+226919928+226679319
2629+226428636+226244003+226144772+226161876+226200996+226151157+226085736
2615+225976283+225706909+225350594+225151801+225200085+225219637+225043142
2602+224828420+224670600+224529735+224484064+224621290+224717544+224561130
2588+224296536+224117543+224029097+223959310+223870301+223718883+223477315
2575+223219652+222998644+222749516+222522207+222451212+222437185+222298801
2561+222008717+221622495+221254866+221020411+220882936+220731700+220579537
2548+220519426+220526241+220456950+220296202+220137687+220000147+219871059
2534+219737323+219662159+219716779+219784019+219723693+219568718+219436752
2521+219349480+219282621+219243352+219164351+219049091+219006680+219000625
2507+218957354+218943492+218990850+219011774+218957668+218893604+218864706
2494+218826413+218831938+218990138+219204447+219319193+219367097+219477278
2480+219689469+219882406+219879462+219697591+219517242+219419814+219395432
2467+219407044+219453806+219592488+219776790+219889320+219860539+219783771
2453+219791628+219856850+220018656+220260770+220426911+220578941+220834785
2440+221139723+221397270+221601124+221769563+221798742+221720204+221753767
2426+221918021+222123149+222358498+222556100+222715855+222943148+223168771
2413+223260972+223282839+223376148+223632058+224002631+224262114+224300655
2399+224271791+224371104+224638973+224947550+225198448+225328164+225208571
2386+224719314+223679382+221845140+219090262+215621646+211941584+208283355
2372+204507006+200659744+196924003+193380488+190395836+188473462+187890797
2359+188958038+191820897+196295320+202212537+208029646+210723337+209009896
2345+204905137+202088395+201569959+202219898+203411959+204713242+205563693
2332+206093691+207177523+208929009+210700461+212237705+213895518+216058898
2318+218484109+220523082+221999735+223371550+224893229+226425163+227900046
2305+229206937+230269249+231203746+231993508+232649997+233355233+234026526
2291+234518611+235010399+235618951+236162761+236490609+236680023+236825619
2278+236946667+237066310+237169544+237291999+237440606+237530160+237604314
2264+237707796+237798260+237926935+238185673+238498418+238674648+238789693
2251+239063053+239388519+239584830+239758100+239955040+240008601+239958414
2237+239990273+240066875+240129137+240244264+240391795+240567761+240812257
2224+241005359+241114449+241253726+241336631+241283947+241305202+241537706
2210+241816161+241978199+242058375+242155224+242290018+242426070+242540618
2197+242619983+242688265+242784569+242909571+243082691+243289904+243429181
2183+243474587+243566572+243799490+244043357+244178235+244279153+244355639
2170+244367748+244460461+244682147+244856343+244905437+244954102+245105686
2156+245295033+245454689+245557261+245616132+245757890+245978269+246147304
2143+246268816+246372182+246410988+246449529+246607482+246778105+246869627
2129+247015554+247224255+247367304+247443989+247523271+247615389+247706697
2116+247822585+247984391+248144114+248194432+248124231+248102479+248197442
2102+248308153+248414596+248497749+248540359+248647811+248826126+248972168
2089+249073037+249123090+249074343+249025084+249131708+249325903+249450607
2075+249496195+249577958+249745786+249868009+249821280+249663344+249580869
2062+249690323+249931362+250153891+250260516+250241758+250123637+250046770
2048+250085659+250120230+250083028+250023265+250107940+250386924+250644124
2035+250747904+250754884+250752568+250789753+250867993+250974238+251137814
2021+251288091+251275768+251257358+251485709+251875520+252162180+252245300
2008+252318611+252493237+252618140+252683990+252821663+253034268+253158079
1994+253007454+252891500+253261677+253812020+254185389+254482933+254736031
1981+254917604+255103941+255277310+255383538+255555914+255724502+255647040
1967+255626132+256045403+256584961+256912577+257161391+257389329+257592704
1954+257906971+258288412+258512231+258465916+258153501+257748390+257977982
1940+259037350+259904127+260222778+260463966+260775900+261130412+261516402
1927+261594014+261222729+261088100+261311589+261415286+261941661+263008505
1913+263686035+263817686+264073695+264825974+265662333+266135048+266369008
1900+266622105+266772879+266820336+267016134+267002240+266911809+267722495
1886+268964147+269733067+270247351+270796338+271371659+271851024+272089036
1873+271629189+270216369+269407882+270906436+273328951+274969876+275844378
1859+276464857+277101149+277756430+278361873+278765545+278657233+277830138
1846+276758728+277364370+279942918+281935906+282714767+283323915+283831136
1832+283269891+282336568+282935990+284382985+285986162+288046771+289721539
1819+290687183+291439215+291924402+291823269+291888144+293062771+294654071
1805+295554312+295451955+295071837+295713174+296988405+297084907+296035530
1792+296766951+300085223+302791338+303894076+304397426+304735794+305452096
1778+306601878+306541271+304585037+303285623+305509957+309345210+312291239
1765+313333668+313095673+313757190+315206335+316471377+317614211+317357425
1751+315660227+315328244+317388588+319785514+321156783+321761002+322931725
1738+324069795+323020088+322267164+325533960+329640059+332889388+334972692
1724+335935723+336066564+334075428+330485614+330605539+335730214+340779363
1711+343572716+343909926+342896940+342652956+342259837+340564591+340917945
1697+344215972+349536926+355220100+357982620+358459273+357258908+354149187
1684+354572511+361126648+366547180+368598063+369068066+370249110+371189811
1670+372069474+376301618+381206096+383169410+384765772+388397799+391235251
1657+390254388+385773365+386085201+393306645+396160439+397738044+404339654
1643+411523715+415279636+415610527+413688964+415290785+423246892+429873744
1630+432982704+435096311+437455522+440360131+445009015+449169568+451325190
1616+455881376+463808238+470307623+475008645+479677113+484903253+490042286
1603+494945938+500328459+506323700+512333928+518499511+525142673+531919786
1589+538614888+545254378+552276301+560137196+568169624+574104093+577939280
1576+584869002+594302209+600713728+607009259+616688864+626407572+633998680
1562+638065179+638641278+646182894+662643747+676638566+688064728+698062851
1549+707875514+716430446+721709353+723443537+726101185+739297723+755642788
1535+766416497+775300535+784894059+792262654+797777174+803273366+807471004
1522+812595548+821839258+831680702+840947107+850054650+857064763+860423628
1508+860816780+866530125+880682483+891947599+897624620+899400819+902252529
1495+908942602+914116439+915596417+918487495+926579869+935822190+942495457
1481+946276785+948258029+949174943+948868401+947551387+948381890+953199428
1468+956417758+955112919+955351973+958729298+958252910+952428341+950509954
1454+955079704+957915667+956924317+953799809+950888087+949073777+947222084
1441+943221882+935824505+927428104+923644724+921352439+914901155+909527435
1427+910155406+912327404+913607101+914326049+915967933+923733253+934977395
1414+942192818+944551070+945743032+947380351+947605047+948223689+952408756
1400+956062386+956403136+957093303+960906787+966395304+970139911+971378056
1387+970900147+970619078+972863063+977608415+983302110+987235154+987846320
1373+988119052+990604738+992377628+992013787+990856231+988248471+986919944
1360+989234527+990655089+989523139+988871877+988974168+987406918+985385115
1346+984535425+981898552+976228214+971094473+969557395+969673580+968382768
1333+965750328+963092944+961929168+963243403+966586984+969707126+971444751
1319+973275999+974910207+976011656+978371231+981696286+984350626+986022615
1306+987106132+988158156+989622519+991400967+992908073+993874214+995270361
1292+998351135+1002629362+1007380470+1013720332+1021526013+1027954602
1281+1031839346+1035001899+1038321727+1040681898+1041844813+1043184323
1269+1045818219+1050209588+1054279726+1054600627+1052072794+1049326550
1258+1048746217+1051873505+1055481944+1056634273+1057016971+1058544390
1246+1060036807+1059796165+1059706975+1062799327+1068022853+1070502783
1234+1068215526+1064104167+1061424882+1061596779+1062917696+1062464731
1223+1060219621+1058689357+1059969782+1062887988+1063946760+1062030887
1211+1059562404+1059182816+1061341514+1064167354+1065034181+1063164756
1200+1060289557+1058181607+1056475279+1054745197+1054272581+1054988353
1188+1054921064+1053742533+1052859098+1052557320+1051070196+1048027864
1177+1046495351+1046347538+1043865822+1040088927+1037939161+1037099130
1165+1036368603+1034426859+1031022473+1028276428+1028556901+1031847087
1153+1035141177+1035897045+1035315720+1035112196+1034296184+1032017859
1142+1028991870+1026445974+1026286583+1028348283+1029929031+1030190051
1130+1030028543+1029349690+1026587038+1020858871+1015300947+1015135138
1119+1021146755+1026476675+1023976565+1016686243+1012183386+1011122629
1107+1010859358+1013466325+1019183177+1022516635+1021381111+1019065006
1096+1018715324+1018593779+1015116347+1012371757+1013725096+1015456567
1084+1017759108+1021641338+1023981329+1026346197+1031320943+1035927878
1072+1036813562+1035028564+1035258090+1038497196+1038909470+1035189940
1061+1034039000+1037741659+1043033864+1048069747+1050049601+1046468356
1049+1040387530+1035130656+1031922581+1032004229+1034162597+1037813381
1038+1043310235+1045406739+1041785794+1038955852+1038110065+1034162464
1026+1028110685+1025187913+1027229764+1031820489+1034723676+1032611293
1015+1024936949+1017415580+1017047504+1021742769+1024892354+1026538208
1003+1028351327+1027336158+1024594612+1026338985+1032229124+1034001551
991+1028992929+1025654839+1029027731+1033648296+1034587839+1036224562
980+1042409664+1047471880+1047473402+1046083739+1045566196+1046384789
968+1049500763+1055110362+1060422880+1059687456+1052807820+1048917055
957+1053710774+1062136222+1067763354+1069224939+1067507891+1064517301
945+1061272041+1058752611+1058264314+1060277118+1064321982+1068251189
934+1070169576+1070264589+1068341041+1063490685+1059574843+1061787400
922+1066046969+1066234480+1065096112+1065622984+1065920130+1063721468
910+1058953819+1055361061+1055074434+1055619236+1059278821+1068308818
899+1073741823+1070276432+1065696294+1065321205+1066439129+1066079390
887+1065796997+1066255653+1065167041+1061521483+1054339804+1046862897
876+1047658862+1056266330+1060593850+1057061170+1054166915+1053311402
864+1049407271+1042852043+1038353221+1038938384+1042433218+1045021394
853+1044467064+1039095725+1033459858+1033346915+1036522900+1038980664
841+1040418760+1041622697+1040750048+1036450846+1032282982+1030396552
829+1029134323+1028435621+1027392332+1023922310+1022175687+1025089261
818+1028028706+1028566826+1027537233+1025826604+1025710219+1027771126
806+1029557514+1028597990+1026798501+1028070390+1030477340+1028127689
795+1018821784+1006294902+998428746+999843221+1005748048+1007984093+1005361115
781+1002545399+1000623505+996986151+992608346+990601893+990981878+989643493
768+984541578+979748984+978813411+980530260+981658969+981337539+976926519
754+966934416+961175351+964793516+968542159+966392128+962911983+963300835
741+965537277+963275890+956994121+952587865+952658132+953903423+949828852
727+941195315+934608327+930768575+927411629+923777121+920817958+922178442
714+925846364+924881480+921992254+923422741+925847158+925927879+926724836
700+928960882+930705917+930188970+927005442+925230567+926947084+930220398
687+934512586+936566744+932745584+926603225+922286556+920465630+923235626
673+930539247+933397905+927431147+926240641+932658644+935270308+934933925
660+933704183+932992909+935246620+941324800+950646717+954185948+942311187
646+926471292+921581105+922169642+918343653+919813375+925816656+908252965
633+885391179+902274893+941648611+947809761+931636329+929097579+934768314
619+930266118+917656794+909484030+904020391+899877736+908019799+927281879
606+942069950+951898823+958005519+955450096
##END=
