##TITLE=Sample description
##JCAMP-DX=4.24
##DATA TYPE=INFRARED SPECTRUM
##DATE=12/9/2023
##SAMPLING PROCEDURE=Instrument type and / or accessory
##ORIGIN=Default
##XUNITS=1/CM
##YUNITS=ABSORBANCE
##RESOLUTION=4
##FIRSTX=4397.6552
##LASTX=599.8556
##DELTAX=-1.9287962
##MAXY=1.8535903
##MINY=0.23052534
##XFACTOR=1
##YFACTOR=1.7262904e-009
##NPOINTS=1970
##FIRSTY=0.23582923
##XYDATA=(X++(Y..Y))
4398+136610403+137190078+137080419+136514952+136271550+136925373+137640758
4384+137301913+136786693+137594146+139342330+140363060+140095385+139456979
4371+139357548+139933105+140345952+139777438+138593582+137572748+137112201
4357+137148335+137678937+138670673+139412921+139775668+140115506+139987409
4344+139447630+139453267+139878241+139762703+139625818+140294480+140657373
4330+139766234+138659098+138378104+138761533+139387578+139942419+140486660
4317+141413717+142242966+141645829+139586923+138426917+139646923+141371654
4303+141648255+140921233+140296707+139879027+139579198+140104569+141361978
4290+142229794+142497374+142661760+143232415+144151418+144345956+143402213
4276+142243890+141808057+142015473+141791587+140767344+139991405+140282300
4263+141290238+142309458+143154495+143739107+143552149+142446550+141361296
4249+141482704+142640854+143341954+143172881+143110895+142878248+141809136
4236+141228693+142130683+143166648+143400970+143524829+143539175+143255013
4222+143418709+144087387+144621865+144658163+144075346+143531804+143938616
4209+144822548+145229542+145100616+144474830+143630112+143477526+144327354
4195+145048152+144482849+143443266+143333624+143688239+143381609+143087744
4182+143704303+144261302+144181388+143986713+143709025+143471035+143753505
4168+144686199+145622173+145693369+145082541+144532335+144309443+144377600
4155+144413621+144076882+143673194+143612754+143831046+144135165+144289641
4141+144351307+144769946+145243181+145175748+144999675+144800028+143939410
4128+142924532+142831498+143554039+144272136+144783386+145163388+145073547
4114+144600070+144433906+144698560+144934470+145016473+145122403+145208360
4101+145036637+144827469+145063568+145337286+145395775+145820102+146138412
4087+145625677+144965234+144704024+144549668+144574606+144984845+145457683
4074+145672549+145482543+145228904+145430044+145554050+145012122+144318782
4060+144318333+145017370+145605358+145786179+145783002+145661845+145444408
4047+145471425+146022468+146626132+147113109+147415311+147038253+146465198
4033+146268391+146068079+145813974+145875882+146057566+146030323+145946093
4020+146019654+146409833+146841135+146872192+146630137+146371732+146598768
4006+147457642+147849651+147174792+146221037+145561491+145359297+146065766
3993+147360033+147890946+147251530+146668428+146880082+147230589+147379454
3979+147398341+146942577+146036141+145329586+145385590+146054734+146689869
3966+146821817+146726331+147235354+148028677+148240055+148274617+148407013
3952+147985172+147226894+147033695+146404050+144819199+144549729+145927500
3939+146855516+146397973+144844042+143828335+144602737+145599523+145342914
3925+145140271+145823745+145651608+144659949+145282836+147612481+148960939
3912+148429197+146934463+144208441+140553057+139019350+140801621+143940792
3898+146975982+147621855+144922678+142872672+144422995+144859700+143440823
3885+143694083+143609974+143815241+145873844+145074082+142139686+140451572
3871+140002497+141972650+143406831+142699810+144087439+146990156+147227896
3858+142989781+135148574+133537983+142952854+149269943+149531317+146519096
3844+142806681+139874685+138206070+139911189+143813462+145345728+145436432
3831+146349945+147055309+146828498+144582090+140339012+140235662+143469861
3817+144885544+148069212+151264119+150274196+146652234+144696592+144654693
3804+142715969+142839094+146793487+148581325+149738811+151798261+152551014
3790+152188060+151352492+150375741+150260315+149907892+148965669+150036715
3777+152134110+152154982+150038752+148654196+150143699+152176476+153284984
3763+152665645+149850836+148542913+149837025+148684166+143226554+139838897
3750+143845150+146114847+144969187+148801283+153762673+152764550+147903773
3736+145105847+148665901+155685135+160135810+160340351+159677301+161105638
3723+163932981+167646406+171885099+174713547+174417508+173301283+177759657
3709+187019197+195146594+200980548+207585917+217910080+228031134+233995499
3696+236565491+236068984+233170376+232894173+237895166+241932856+242067617
3682+239635114+235272139+229101231+225477371+228450766+230288496+230778115
3669+236151678+241730853+243851451+244812250+245783753+245899109+246682489
3655+249068949+248415998+244762927+246692467+256145603+264466285+268770788
3642+270677608+271903044+272606561+272666950+272052531+269894108+268547567
3628+273972921+281002738+283120816+281227392+279213121+281327384+285402088
3615+288081515+290198263+291844849+293312824+296238243+299120883+300327035
3601+301143405+302411603+303564721+304960913+306792809+307389480+306520145
3588+307885089+312326925+315480537+316580103+317489421+318583290+319479729
3574+320338258+320478612+318558084+316145676+317498571+321466688+323910309
3561+324739731+325654125+326567794+326448571+325841472+325651121+325407046
3547+325103065+325819443+327493824+328727529+328879106+328622980+328886494
3534+329494560+329302483+328147362+327240115+327095583+327385891+327895484
3520+328093120+327999999+327895207+327174686+325989388+325212621+324903254
3507+324592298+324102386+324069274+324408301+323933201+322950442+322625400
3493+322623604+321903532+320637025+319840543+319260341+318192472+317496706
3480+317691338+317833661+317370335+316453628+315418802+314739644+314483656
3466+314161445+313557488+312847360+312078465+311220972+310122166+308927546
3453+308503513+308722487+308215656+307159665+306632532+306340463+306092693
3439+306007859+305487942+304422283+303487690+302931140+302522989+302240312
3426+302034010+301829365+302070402+302887359+303439213+303203804+302733055
3412+302441780+301985153+301542717+301739938+302307641+302475548+301940751
3399+301411615+301747016+302335401+302416299+302184723+301729269+301308136
3385+301242154+301367386+301480567+301396665+301199478+301041825+300694685
3372+300142796+299751909+299812781+300259154+300624145+300305766+299500444
3358+299191388+299378907+299473927+299562318+299462706+298800259+298032849
3345+297729835+297533787+297224179+297214062+297374270+297380830+296950893
3331+296013227+295247025+294951711+294731943+294413875+294526918+295361830
3318+295800088+294892185+293487672+292817354+292627693+292440036+292842421
3304+293741001+294220624+294317681+294900368+295891241+296305917+296375767
3291+297060380+298105115+298696055+299195600+300382900+301359893+301110604
3277+300500156+300308873+300205567+299976718+299585486+298880191+298188569
3264+298000946+298042690+297914972+297557404+296807327+295795565+295033783
3250+294812944+294572253+293449346+291807663+290551239+290077244+290280646
3237+290503556+290472136+290292247+290145056+290287793+290088673+289071956
3223+287940884+287406345+287561426+287788376+287528780+286881526+286000244
3210+285190537+284840151+284730043+284273554+283329069+282482366+282188502
3196+282048544+281690700+281511588+281649423+281343767+280133368+278537589
3183+277281821+276714947+276835275+277259447+277260655+276474600+275239238
3169+274029080+273187729+272882505+272787848+272235717+271285156+270675726
3156+270372557+270015404+269706434+269112214+267964845+266904882+266580219
3142+266957088+267295148+266867851+265812343+264627840+263663001+263070576
3129+262621821+262053739+261304007+260397312+259671197+259488788+259480864
3115+258868793+257603219+256321193+255230086+254196175+253301686+252411168
3102+251358232+250174298+248740350+247321473+246361434+245618763+244734045
3088+243902310+243462204+243232924+242855520+242476234+242169681+241757353
3075+241519544+241475970+240988544+240168600+239714286+239576159+239323917
3061+238925624+238711329+238807229+238869241+238720116+238505061+238490180
3047+238801377+238953747+238685347+238379933+238134511+237833137+237388922
3034+236723023+236180129+236097055+236191160+236172153+236047077+235644744
3020+234910428+234212160+234022465+234470133+234904524+234689486+233988870
3007+233246958+232854725+232809217+232710831+232461473+232203276+232143992
2993+232623131+233493019+234272635+235049799+236008475+236799467+237108644
2980+237057837+236863240+236678966+236702203+236749540+236391558+235744874
2966+235113278+234585921+234295250+234111253+233758260+233377144+233171308
2953+232979887+232548465+232110034+232132356+232419142+232567300+232480014
2939+232080582+231596609+231211505+230762975+230428817+230323697+230077239
2926+229737125+229617211+229305720+228308702+227151320+226597169+226348381
2912+225902474+225643845+225796371+225914127+225758615+225493495+225114555
2899+224551254+224164563+224130708+224196311+224325772+224532644+224666835
2885+224671548+224692144+224878023+225111603+225148098+224889176+224443010
2872+224031580+223894471+224118434+224451590+224497270+224168689+223770275
2858+223447873+223009235+222385028+221705905+221043925+220446908+220055987
2845+219804263+219513334+219383769+219647059+220137006+220467383+220440244
2831+220196065+220017385+220119069+220294348+220271249+220162522+219980544
2818+219755666+219624375+219505341+219413394+219383597+219328611+219310795
2804+219387256+219492376+219579627+219652774+219757789+219865239+219858558
2791+219703633+219423079+219106133+218930318+218901281+218850525+218782005
2777+218848574+218963914+218886727+218645000+218481132+218455012+218328261
2764+218065212+217948026+217922113+217753049+217522939+217347919+217297284
2750+217462413+217693765+217739203+217572141+217357483+217269006+217296818
2737+217379477+217526444+217598520+217453712+217172640+216957723+216973847
2723+217140943+217280659+217349076+217285217+217137853+217113045+217143775
2710+217056057+216924818+216872094+216990731+217313374+217601593+217496215
2696+217101910+216915323+217046182+217216162+217178527+216879949+216512317
2683+216237098+216113575+216118392+216062750+215892012+215703077+215470689
2669+215214287+215036487+214862572+214641181+214511288+214429371+214252538
2656+214081730+213878397+213429038+212971754+212909795+213091375+213045972
2642+212702301+212405899+212259744+212109048+211961943+211864386+211774769
2629+211652196+211495700+211303951+211057148+210842973+210720176+210568237
2615+210346587+210246216+210436117+210676343+210571310+210198205+209844384
2602+209607490+209535414+209505547+209303233+209004224+208816308+208806881
2588+208875695+208786165+208458723+208121595+207941085+207826885+207663604
2575+207469524+207292864+207111629+206885162+206607267+206321309+206023872
2561+205698121+205441944+205227286+204942692+204705729+204584503+204473151
2548+204387523+204336508+204265969+204255144+204283716+204166684+203887494
2534+203685871+203739716+203848375+203826053+203760916+203639793+203487268
2521+203491308+203637756+203750972+203761400+203692672+203532171+203311954
2507+203207007+203260957+203318566+203362002+203412913+203397272+203393888
2494+203445835+203417091+203347845+203369840+203467069+203603263+203793251
2480+204057077+204268455+204237535+204059338+203915980+203804922+203735608
2467+203767218+203886476+204007409+204097526+204204648+204294178+204303517
2453+204279089+204322473+204444787+204537321+204601991+204797365+205120595
2440+205368693+205515177+205677629+205823163+205959857+206189535+206437357
2426+206536002+206495674+206487888+206617832+206836634+207047822+207231612
2413+207396430+207541756+207738339+207979980+208126999+208152549+208238954
2399+208556228+208957111+209158390+209221972+209379470+209564848+209519427
2386+208971682+207631718+205405034+202444776+198868115+194797675+190537541
2372+186297432+182147026+178184157+174512079+171443923+169298689+168412401
2359+169323290+172226422+176856433+183015533+189243447+192237921+190403194
2345+186049783+183260575+182779468+183252876+184163299+185122614+185817326
2332+186536156+187871476+189729647+191510062+193076993+194843476+197154011
2318+199696760+201816564+203385429+204832480+206469640+208164858+209693377
2305+211038089+212184664+213127992+214023931+214924221+215676732+216229588
2291+216698507+217202161+217758884+218274605+218629048+218738984+218692561
2278+218726468+218899054+219059900+219133479+219192504+219267256+219417037
2264+219720327+219943116+219945188+220004195+220245008+220509662+220707471
2251+220860739+220959194+220987127+221062518+221268837+221490798+221643997
2237+221802271+221980796+222107254+222220867+222366124+222512538+222703131
2224+222957047+223176418+223225119+223117548+223082951+223177626+223276807
2210+223375383+223475150+223595910+223789973+224005822+224200212+224364305
2197+224445686+224452592+224486411+224594172+224722822+224847691+225013596
2183+225205828+225351949+225439062+225504164+225610526+225777156+225940990
2170+226113075+226342597+226577903+226787399+226961781+227018596+226995480
2156+227060668+227220427+227363008+227500704+227675656+227798125+227867077
2143+228055166+228323911+228477524+228568815+228694030+228779900+228843051
2129+229008403+229261283+229410598+229390071+229400654+229546637+229749072
2116+229980200+230126061+230068504+229988486+230026104+230072820+230147261
2102+230339269+230528912+230612054+230677208+230783518+230920248+231067059
2089+231125238+231101725+231133162+231252265+231391618+231489366+231562374
2075+231622556+231671913+231751534+231794970+231728349+231634572+231661486
2062+231842652+232077975+232253358+232263095+232123465+232014410+232062196
2048+232175792+232201515+232144786+232091095+232130146+232275542+232430864
2035+232560446+232676442+232741561+232760136+232832748+232936262+232951834
2021+232911057+232878842+232942753+233192923+233535609+233833927+234018132
2008+234096768+234152582+234232151+234369018+234565998+234760527+234805948
1994+234543763+234296580+234547733+235106597+235597372+235918444+236151609
1981+236404178+236641883+236887461+237125632+237275430+237317036+237234325
1967+237310683+237789045+238325120+238653322+238862939+239015292+239181525
1954+239409977+239671662+239925750+240063222+239919518+239603936+239860010
1940+240869320+241698276+242011079+242188171+242438444+242756926+243106794
1927+243232388+242898144+242630814+242630365+242571030+243173605+244515917
1913+245345494+245406280+245484640+246074389+246880452+247479627+247864799
1900+248127951+248195332+248234296+248543180+248758909+248882207+249658456
1886+250744625+251525276+252154852+252685317+253110938+253512201+253797519
1873+253401298+252009422+251222400+252783341+255204467+256723940+257441371
1859+257970058+258595214+259218661+259772519+260255180+260375698+259724180
1846+258644899+259213292+261839461+263882303+264711966+265389795+265836685
1832+265058088+264044065+264749653+266252794+267903075+270036690+271723760
1819+272688978+273525944+274120993+274076280+274165792+275275146+276686669
1805+277394640+277204703+276915328+277779346+279317205+279627867+278660421
1792+279355341+282597205+285180317+286127754+286597796+287045221+287810922
1778+288978162+289102030+287423851+286236723+288342768+292104428+295131841
1765+296254817+296108212+296887500+298374638+299761266+301120410+300909446
1751+299151439+298916030+301179452+303739742+305184928+305686165+306599075
1738+307462610+306339427+305996361+309782794+314043015+317313745+319467161
1724+320469152+320498708+318513440+315412967+316181827+321451600+326449779
1711+329278210+329594655+328534796+328368270+328085247+326626802+327559288
1697+331466534+337222283+343106958+345960421+346592483+345537838+342699739
1684+343738847+350749846+356352673+358547764+359261380+360909347+362302950
1670+363592175+368405252+373833472+376227581+378423950+382840201+386504717
1657+386260331+382482875+383891566+392201735+395837662+398492350+406413600
1643+414558244+419116438+420337299+419449284+422447038+431632067+438880444
1630+442550485+445438268+448570335+452229741+457649882+462260869+464440630
1616+468741214+476451638+482983084+487695582+492189692+497383608+502777059
1603+508179315+514154383+520438749+526280713+531852050+537842276+544442604
1589+551185255+557554905+563889716+570833973+578018922+583496275+587393473
1576+594427226+603373186+608619929+613058313+621232512+630699424+638543263
1562+642611787+642743061+649767491+666296814+680753584+693261410+704781747
1549+715124486+722499026+726470389+728865154+733980209+748977681+765211033
1535+775146140+783986790+795286634+804656385+810305927+814192007+818017940
1522+824571138+834391682+843544462+852233053+860958382+867618132+870641230
1508+869681984+873681384+888735688+901486243+907315467+908639530+910759041
1495+915965387+921053648+924866116+929173018+934986082+941092286+947335910
1481+953669720+958831387+961314680+959570899+955952131+957631415+963741762
1468+966408811+964882692+965836758+970025093+970517940+965096694+961830799
1454+963329917+962816009+959942278+957607177+957420037+956712843+952975163
1441+947221831+940955626+934449869+928582389+923900103+919563714+916713945
1427+915730668+914439129+914169055+917027386+921579711+927183469+932758017
1414+936570692+940041405+944350102+947493494+949121815+952598122+957518717
1400+959236603+958327008+959331692+964030689+970022745+973598905+975836017
1387+979406722+982446393+982508404+981395787+981893261+984272557+987265408
1373+989860087+991926011+993409178+994331893+993618346+990617760+989153169
1360+990885487+991662980+989233204+986879320+988618337+992326116+992936081
1346+988785658+982363526+978044885+978514598+980957494+979431098+973851509
1333+968184565+965321192+965947661+968019454+970840565+974807440+976836005
1319+975874135+975932349+977991436+980284482+982986473+985914551+988311041
1306+990688128+993401582+995353081+995995985+996403410+997031674+997984083
1292+1000082601+1003678028+1008573280+1014171376+1019660986+1025342708
1281+1030971257+1034743258+1037611119+1041743381+1045458273+1047924717
1269+1051198623+1053126298+1050056450+1045910654+1046706584+1051682009
1258+1056948778+1060438482+1061275914+1059932514+1058675227+1059598287
1246+1062064386+1063879639+1065308114+1067506624+1068934202+1069007400
1234+1069108773+1068820053+1068378722+1068667234+1068320439+1067204577
1223+1066134636+1064675293+1064135488+1065358732+1065643723+1063485127
1211+1060565474+1057797950+1054950667+1053326765+1053608510+1054050533
1200+1054766566+1056360428+1055722013+1051277691+1046959257+1046379607
1188+1046765626+1043995961+1041073339+1042395883+1045472499+1045209813
1177+1041144189+1036480479+1034448807+1034936336+1033917220+1030668036
1165+1029168157+1029596921+1028339841+1026813583+1028621517+1030945707
1153+1031191612+1032132282+1033853275+1032958941+1029853185+1028713291
1142+1030014567+1031036514+1031535300+1030808011+1027869506+1026125586
1130+1027834357+1029654789+1029177825+1027825310+1026223576+1024035701
1119+1021537146+1019229184+1018273322+1019162753+1018956140+1014723265
1107+1011781307+1016165827+1022006307+1023578970+1024401969+1024412673
1096+1023369594+1025393325+1028614680+1030581855+1033225494+1034410205
1084+1032613804+1031329101+1031863933+1034426709+1040113265+1045493008
1072+1044325354+1039041252+1037155493+1038471133+1039443568+1040826674
1061+1043824911+1045290055+1042045843+1038673326+1040288734+1043469553
1049+1042297618+1036628464+1033025580+1037802748+1046797253+1049325639
1038+1044250429+1039362359+1038350631+1037391800+1034151662+1033379211
1026+1035589736+1034162228+1029332025+1028274929+1030444504+1029747668
1015+1027691482+1028212779+1029966090+1031863243+1034058990+1034147864
1003+1032523134+1033906655+1036961172+1036908000+1035044960+1035199989
991+1038664418+1043466584+1047096676+1048398574+1047287338+1046387204
980+1048103156+1049972894+1049037472+1047170565+1047344446+1051082403
968+1054892522+1053093842+1050252015+1052176444+1056411598+1060345119
957+1063345152+1065038040+1066843832+1070941359+1073741823+1071440352
945+1068592655+1066735071+1064579306+1064023136+1064711201+1066006815
934+1067343447+1066869797+1064504519+1061648881+1060231592+1060638327
922+1060907228+1059904892+1057805684+1055566639+1056311813+1060558914
910+1062254011+1059901439+1060110815+1063351919+1063811136+1061467818
899+1061362164+1064402801+1066447939+1065757940+1064040192+1061657374
887+1058818171+1057933505+1058800286+1057190333+1053710505+1052722532
876+1054069661+1053763194+1049930286+1046306064+1044029453+1041010706
864+1040426568+1042378689+1040337487+1034788489+1031576664+1030444642
853+1030199842+1031814421+1032200715+1029220777+1026719737+1026846799
841+1026219294+1024603679+1024711129+1024695730+1024166077+1023039303
829+1019517559+1018324976+1021916535+1023793248+1021077101+1018144465
818+1017507086+1016575118+1014626035+1015381775+1017337832+1016269686
806+1014721193+1014116960+1012867545+1011763629+1011250687+1010730564
795+1004780839+989692283+979588475+987373617+1001608720+1005911963+1003875387
781+1001376419+995465710+987227497+983430153+984571911+984799793+983631172
768+983365586+983404602+984833837+985775750+980974136+974506428+970707427
754+965522074+959822536+956200454+952092361+948437202+948347983+950309633
741+951016413+950217168+948634493+945358722+940251747+935351661+931364415
727+927057443+922937957+918944565+914076452+909635859+906620841+903634066
714+899246231+898120010+905042723+913495421+916396015+916805236+919103323
700+923637141+927502780+928468862+925950696+918510553+910873327+909589384
687+912682089+917434052+921663337+920616046+916865866+917917715+922905363
673+923159693+916680039+911829534+918096568+926731986+927175666+922954806
660+919349919+917223089+915214895+916302652+920894683+920093436+914264903
646+912691826+913119485+909207164+905507533+909000137+927710705+973275037
633+1015959629+1010053271+990299071+969700741+935972674+916131119+914738069
619+906358224+894268596+900914259+914933150+908103386+892616520+895426720
606+915245487+927930853+919432509+902000911
##END=
