##TITLE=Sample description
##JCAMP-DX=4.24
##DATA TYPE=INFRARED SPECTRUM
##DATE=12/9/2023
##SAMPLING PROCEDURE=Instrument type and / or accessory
##ORIGIN=Default
##XUNITS=1/CM
##YUNITS=ABSORBANCE
##RESOLUTION=4
##FIRSTX=4397.6552
##LASTX=599.8556
##DELTAX=-1.9287962
##MAXY=1.9684299
##MINY=0.33118165
##XFACTOR=1
##YFACTOR=1.8332432e-009
##NPOINTS=1970
##FIRSTY=0.34618258
##XYDATA=(X++(Y..Y))
4398+188836146+190216137+190676833+189946944+188701037+188111036+188398875
4384+188300295+187979162+188914372+190510885+191321505+191703259+192015532
4371+191910937+191690303+191604419+191807204+192154266+191562672+190533775
4357+190304865+190100243+190051896+191470513+193834094+195424706+195048967
4344+193490787+192612215+192428320+191743478+190895192+191170367+192201654
4330+192711819+192380136+191464612+190950350+191250447+191376615+191309361
4317+191253504+190640938+189796359+189324072+189446646+190470959+191774252
4303+191813674+190910912+190949570+191676940+191400447+190450704+190710988
4290+192412925+193887042+194066190+193527056+193347306+193286848+192311468
4276+190860760+190344320+190694309+190719458+190630989+191359220+192346777
4263+192620782+192449600+192380818+192493119+192818073+192935803+192799134
4249+193272542+193774660+192811862+191302095+190855526+190885178+190856322
4236+191343679+192283523+192811749+192430174+191960260+192085013+192560470
4222+193349127+193964586+193656589+192978233+192883327+193418478+194231439
4209+194328344+193067758+191805968+191191338+190567784+190937703+192890788
4195+194294417+193986744+193391427+193487065+193879402+193843556+193463688
4182+193175832+192398148+191344671+191360911+192314004+193061076+193373415
4168+193776709+194482554+195047716+195057941+194595668+193775977+192892121
4155+192531111+192527372+192299389+192338259+193351842+194722079+195749643
4141+196308286+195850223+194400150+193068847+192686053+193147675+193776367
4128+194078399+193971853+193709374+194083617+195235902+195716935+194972447
4114+193980111+193045421+192657766+193454064+194439003+194619191+194455666
4101+194313144+194157373+194301456+194675098+194855107+194719852+194291328
4087+193643518+192974055+192871589+193387314+193717291+193710658+193727549
4074+193697832+193356849+193162859+193616093+193888635+193461314+193105392
4060+193324190+193786836+194194081+194500599+194451391+194267837+194380089
4047+194560212+194798388+195280364+195517694+194749098+193175978+192082672
4033+192155811+192836410+193643356+194399467+194550686+194231861+194224399
4020+194327255+194000871+193524325+193356491+193391118+193610680+194300155
4006+195083984+195458374+195484937+195237772+194860017+194579216+194234088
3993+193771669+193648314+194055770+194754381+195343017+195352348+194816660
3979+194341089+194097907+193446163+192647866+192905939+193715876+193858187
3966+193775164+194239242+194963279+195073433+194316038+193445919+193247019
3952+193524796+193468500+193210735+193011510+192717769+193071676+193664197
3939+193362685+192681241+192086444+191880814+192789640+193772352+193082925
3925+191868768+192062872+192249904+191641809+192356157+194610185+195770371
3912+194765517+192835353+190383027+187391616+186193585+187906528+190743729
3898+193352232+193889822+191720605+189983407+190951683+191150811+190091693
3885+190372802+190217161+190078834+191803514+191867386+189596093+187276584
3871+186328905+188228799+189783077+189090432+189984854+192762101+193306746
3858+189559451+182645823+180653413+187965685+193550498+194317647+191939403
3844+188824262+186593644+185257301+186097931+188623298+189953869+190710419
3831+192177546+193270900+193104693+190820932+186442750+185217879+187883963
3817+189928574+193009884+195466925+194252816+191051694+189784898+190277034
3804+188278983+187096233+189711483+191232175+192390735+194345462+194929562
3790+194475873+194002058+193720396+193858951+193395898+192687402+193853228
3777+195528911+195320111+193389931+191829183+192250375+193270575+194037741
3763+193551457+191195143+190000786+190671875+189323177+184779438+181575667
3750+183895095+185245125+184052638+187036262+191290845+190802708+187098281
3736+184725190+186978389+191700479+194496876+194179369+193052607+193196673
3723+194436581+196718733+199369373+200406220+198460433+195632466+197723895
3709+203798373+207957594+209220327+210553661+215311711+221230045+224723135
3696+225785131+224314216+220372134+218189522+220919917+223301787+222376054
3682+219585558+215771562+210336522+206353961+208192161+209363612+208264926
3669+210285590+213250601+214397635+214575807+213805732+211733192+210395468
3655+210886808+208981810+204173884+203706539+209550190+214579384+216456161
3642+216577711+216687411+216943176+216685265+215660269+213111168+210396541
3628+212464203+216270315+216770401+214568963+212553485+213596021+215346208
3615+215221585+215080851+215637461+216188691+217605340+218885857+218412936
3601+217526106+217405628+217064077+216876459+217895115+218323184+216743447
3588+216084063+218245607+220368054+221195077+221343776+221235539+220952609
3574+220694812+220232913+218808899+217455698+218681918+221329389+222703040
3561+223039097+223492266+223700399+223107065+222566826+222621838+222437537
3547+222137814+222780421+223827493+224034521+223777927+224167208+224785105
3534+224605112+223840304+223184658+223012598+223183569+223406870+223706674
3520+224033009+224266487+224468882+224487414+224039577+223621181+223882408
3507+224087063+223668699+223686516+224391842+224616931+224198746+223851732
3493+223814895+223790526+223696628+223955872+224391858+224259497+223832728
3480+223874394+224118292+224107969+224113902+224268990+224316151+224387160
3466+224555887+224399921+224282093+225004017+226062989+226518678+226396753
3453+226200942+225908827+225392176+225257929+225799030+226588906+227213404
3439+227437128+227595093+227884282+228020155+228213381+228670517+229014003
3426+229080590+229210838+229640093+230089442+230260917+230387020+230778235
3412+231353020+231888562+232321459+232601951+232675544+232775441+233005212
3399+233245907+233590986+234076523+234890312+235947545+236510966+236634110
3385+236711931+236578708+236692780+237551162+238438383+238776342+239054346
3372+239532160+240038033+240741246+241620745+242420277+242973148+243088310
3358+243193620+243758847+244335810+244556932+244565565+244591705+244862378
3345+245301713+245781332+246494672+247362596+248079025+248736019+249179939
3331+249165096+249157212+249477565+249863578+249948307+249808614+250050448
3318+250784060+251370842+251470642+251444403+251348652+251004760+250707637
3304+250289956+249635286+249542087+250295809+251405518+252643589+253933095
3291+255183164+256674236+258504016+260224469+261465710+262197111+262948931
3277+264146458+265194879+265847224+266797326+267819980+268121882+268115769
3264+268436529+268703511+268312621+267598972+267494702+267812746+267832043
3250+267985083+268520819+268714972+268674265+269070033+269480073+269279174
3237+268746152+268572499+268788387+268425263+267211187+266209698+266123392
3223+266502089+266611919+266492547+266541268+266932191+267571336+267676174
3210+267152273+267086645+267282992+266746378+265674709+264600537+263867299
3196+263741766+263832396+263592562+263211117+262938331+262283580+261003730
3183+259677076+258861531+258804682+259201554+259348823+259196336+259065665
3169+258922071+258635304+258076060+257399606+257016438+256958044+257102696
3156+257251086+257152441+256912770+256632782+256422665+256539924+256842557
3142+256897066+256626475+256311633+255956897+255296879+254462411+253964048
3129+253825672+253495516+252901841+252373973+251963071+251597996+250990503
3115+249888028+248592295+247654792+247157470+246443691+245287813+244307133
3102+243461123+242328639+241329003+240703351+240009243+239332773+239053354
3088+238867639+238357815+237723807+237433399+237409453+237080517+236318131
3075+235540219+235089651+234901627+234835333+234965142+235175161+235305718
3061+235387407+235485126+235766056+236121084+236185997+235927891+235619405
3047+235487857+235456888+235296061+234968555+234673563+234594296+234543982
3034+234157139+233591994+233419463+233683389+233854392+233601001+233035970
3020+232485765+232186545+232050299+231838036+231581328+231423314+231209263
3007+230919830+230818389+230737756+230366894+229868320+229477349+229392294
2993+229864305+230684012+231367537+231938453+232529560+232886783+232880117
2980+232605494+232272478+232139694+232173215+232104043+231730531+231282954
2966+231179448+231276175+231189885+230905102+230585074+230335373+230296600
2953+230498508+230670356+230704072+230817186+231078966+231271249+231212807
2939+231071456+231051639+230981687+230661675+230299901+230239198+230430571
2926+230534711+230336624+229867865+229301842+228742176+228289901+228049433
2912+227874122+227689333+227644269+227718237+227875536+228125693+228292404
2899+228305930+228243862+228190979+228306612+228448256+228348652+228194783
2885+228258720+228650927+229264354+229699511+229942141+230238467+230442991
2872+230547196+230666227+230620383+230550903+230658928+230618059+230393441
2858+230268525+230203499+230062619+229608507+228919243+228563564+228481208
2845+228328819+228304613+228552591+228944684+229237125+229368446+229571913
2831+229845853+230041258+230243929+230500393+230642850+230585708+230468173
2818+230405731+230384516+230455623+230615490+230671949+230709535+230938379
2804+231176360+231274257+231293472+231349931+231624213+232061516+232467557
2791+232688159+232531901+232093671+231764621+231811440+232225886+232676373
2777+232831055+232811645+232860268+233023403+233219946+233220368+233009845
2764+232867957+232905055+233068710+233223116+233227245+233223392+233413204
2750+233674334+233742823+233640504+233636619+233795478+233950046+233947868
2737+233764640+233686575+234004490+234504137+234794431+234795260+234693965
2723+234682846+234790172+234996826+235210161+235238415+235193238+235325876
2710+235542203+235721984+235916609+236080378+236172699+236313059+236550600
2696+236731845+236812689+236934029+237109567+237328544+237638200+237913197
2683+238033398+238064725+238057344+238001600+237957171+238031854+238154640
2669+238065082+237801172+237751931+237975947+238125671+238059961+237954196
2656+237943158+237981751+237983750+237970030+237957626+237871759+237798214
2642+237865142+237902809+237827817+237853356+237927373+237693066+237236515
2629+237049646+237117793+237041647+236821582+236717734+236786045+236861540
2615+236812315+236697511+236587340+236419539+236241221+236162002+236044467
2602+235818906+235678254+235742191+235866034+235815232+235662404+235586778
2588+235578130+235607489+235599475+235531489+235449377+235316301+235166073
2575+235073866+234998484+234846875+234663777+234634417+234771802+234793748
2561+234491343+234007416+233540754+233158040+232934983+232927278+233046081
2548+233047902+232828161+232550222+232301073+232072489+231937705+231913646
2534+231932666+231924391+231829713+231673568+231533111+231471011+231498566
2521+231488974+231368903+231289229+231287035+231165923+230929129+230808619
2507+230803774+230720654+230564071+230501287+230563859+230640216+230713696
2494+230816389+230844042+230738829+230655595+230752013+230998984+231239760
2480+231332147+231256830+231178294+231289603+231467792+231437164+231261755
2467+231201915+231348176+231590806+231775156+231885197+231961586+231989109
2453+231955701+231941786+232019281+232057305+232072749+232318419+232710220
2440+232989801+233176573+233322834+233368872+233343203+233383617+233562472
2426+233758999+233858619+233950843+234116579+234284331+234382293+234471233
2413+234588980+234700094+234915071+235250185+235495237+235607457+235687260
2399+235759114+235890322+236190500+236559915+236754718+236716726+236533319
2386+236112858+235130374+233296417+230528160+227006750+223234875+219648650
2372+216079040+212160823+208037414+204143420+200985248+199060904+198617927
2359+199787168+202492870+206555771+212261467+218352689+221342573+219561515
2345+215225698+212400136+212070858+212803300+213874091+215018654+215894852
2332+216662425+218065224+220105136+221932476+223205515+224601113+226817572
2318+229477072+231648175+233131071+234506429+236073631+237630234+239072781
2305+240371391+241464372+242417709+243264450+243985626+244592274+245048012
2291+245468733+246040267+246630528+247048112+247325726+247537972+247744512
2278+247984996+248225546+248362426+248404368+248533137+248734703+248867698
2264+249002384+249224791+249456838+249597766+249695062+249856279+250047066
2251+250214932+250433161+250696095+250885355+251034217+251270084+251547194
2237+251684546+251687553+251761879+251980872+252248374+252446981+252535547
2224+252518608+252433992+252421637+252442592+252327186+252203831+252279831
2210+252523111+252819453+253092417+253309053+253533768+253799499+253948523
2197+253891251+253829508+253889203+253979280+254133312+254355523+254496387
2183+254583409+254725361+254910036+255106303+255232860+255187472+255146733
2170+255377121+255731142+255929066+256016868+256096802+256086625+256007520
2156+256003781+256101662+256303700+256569316+256753422+256808288+256845419
2143+256947803+257040400+257111035+257254874+257424008+257589971+257856612
2129+258129853+258228807+258252997+258345725+258502618+258651626+258679668
2116+258640327+258674938+258781110+258926541+259090213+259224232+259313562
2102+259421750+259576350+259642954+259551462+259459352+259498563+259636240
2089+259796725+259916471+259967241+260020026+260146860+260255665+260274718
2075+260341257+260544984+260781372+260912595+260911799+260867451+260863143
2062+260990708+261256943+261426564+261438562+261514334+261630194+261642013
2048+261616198+261651474+261716322+261730920+261725214+261762670+261873540
2035+262040853+262158551+262260805+262435596+262573094+262599771+262577906
2021+262501159+262384127+262474644+262907541+263379780+263632489+263778538
2008+263975731+264185474+264316762+264404531+264554515+264782286+264911608
1994+264765770+264648251+264988453+265569562+266025429+266331801+266588022
1981+266861735+267122409+267323715+267467813+267594518+267620707+267433691
1967+267382808+267796327+268293828+268555722+268742559+268947246+269138392
1954+269350687+269597771+269771359+269740780+269510522+269340933+269783828
1940+270775530+271527837+271815108+271907689+272029549+272306009+272714440
1927+272916704+272682609+272546119+272680496+272750692+273299125+274405095
1913+275098699+275125360+275145713+275718304+276596031+277282320+277706422
1900+277954043+278009283+278073659+278350574+278442912+278441774+279130469
1886+280097770+280669938+281156433+281748759+282292282+282744184+283081443
1873+282827873+281624623+280881924+282244650+284381777+285754940+286550767
1859+287196187+287784643+288328264+288886777+289377043+289459334+288872406
1846+287991818+288497106+290707420+292433059+293107513+293699514+294217937
1832+293642908+292751591+293418957+294848694+296328370+298205912+299756727
1819+300650256+301378162+301980762+302142645+302421576+303564416+304982642
1805+305712727+305507926+305139096+305841057+307212562+307514057+306746030
1792+307521698+310521628+312975693+314005387+314426368+314744640+315542937
1778+316767645+316880141+315247392+314179755+316357588+320021731+322760482
1765+323631349+323372381+324121226+325714114+327047481+328115800+328015627
1751+326803144+326743580+328642872+330829679+332189122+332868160+333889953
1738+334729347+333752585+333420593+336740258+340539590+343457652+345345077
1724+346238053+346390247+344797782+342005676+342424804+346976428+351364022
1711+353720776+353883472+352935126+352778315+352559501+351228377+351565929
1697+354415518+359294030+364605130+367265199+367923917+367093204+364459243
1684+364825472+370644038+375447964+377123208+377384907+378504012+379533933
1670+380473175+384328041+388700061+390383466+391653042+394827633+397531628
1657+396864164+392797085+392524169+398598256+401324718+403147929+409289742
1643+415668088+418891644+418938756+416737058+417514514+424198453+430025277
1630+432890570+434869487+436869245+439423712+443968475+448047421+449854084
1616+453572166+460545439+466409426+470587798+474625030+479270812+484331755
1603+489693901+495290141+500796841+506066649+511490862+517286767+523134888
1589+528967662+534981276+541330263+548008023+554703211+560119719+564025467
1576+569878953+577381899+582367997+587132289+595222359+604104777+611390014
1562+615361309+615682865+622013125+637057318+650079188+660683181+670064676
1549+679084689+686521829+691526654+695037822+699937760+712233805+725705204
1535+734345268+742270561+752324299+761154435+767924989+774129747+779880686
1522+786657417+795115342+803668855+813520231+823779194+830992902+834161446
1508+835861822+845283504+861802497+873176142+879021174+882397152+887295984
1495+894795809+900633233+903019899+905645212+912527806+920334621+925677518
1481+929705191+934020216+936948097+935914111+933592602+936214794+943022802
1468+948312769+950077977+950319355+950138191+948214774+944709913+944502999
1454+948678477+951487360+950302838+946481169+944279699+944265913+943812223
1441+941326848+934669375+924980630+919662767+918405806+916495134+915198312
1427+914288202+912216784+912790382+916240686+918193560+922237229+931287805
1414+939515796+944655161+949445269+953268824+953487898+952438111+952093601
1400+951555442+953865117+959515069+964320654+968805072+973041675+974493586
1387+974477654+975570879+976294363+976184859+977815852+981816409+986223576
1373+989815377+992463514+993859632+994743536+994865526+992451809+991240236
1360+994865005+998587444+998690901+995801711+991100364+986866363+984750272
1346+983203813+980026231+975201204+971061035+968521102+965782643+963304551
1333+962169709+962333706+964389777+967562092+969695415+970275320+971062531
1319+972497924+973213540+974090357+975845811+977079297+977999682+979892211
1306+982605440+985695301+988538062+990076718+991488442+994413527+998249632
1292+1001837076+1003405254+1003679860+1007503870+1015823159+1023708070
1281+1028400444+1031883520+1035120602+1036799910+1037304255+1039108153
1269+1042844703+1045695527+1045950561+1045380864+1045791441+1047150949
1258+1048774919+1050538242+1052443842+1054590169+1057232519+1059259653
1246+1059572626+1059640253+1061028048+1062929096+1064863893+1067367801
1234+1068186484+1065677308+1062942946+1062636932+1065766199+1070414680
1223+1071584571+1071217691+1072804532+1071662798+1066112986+1061830994
1211+1062442178+1066074815+1068156246+1067172266+1066635798+1069308645
1200+1072882499+1073741823+1072120909+1070210757+1068447630+1066428364
1188+1064438229+1063539954+1063991238+1064806864+1065903795+1065581134
1177+1060608887+1053658210+1050489017+1051489253+1053310449+1053632200
1165+1051827196+1049232250+1048139871+1049858715+1052669028+1052838097
1153+1050555929+1048682972+1046950993+1043946121+1041725598+1042309210
1142+1042340358+1039234500+1034756128+1031896981+1034794559+1040468441
1130+1039298160+1032976615+1029278886+1027446961+1025311818+1022478810
1119+1017826428+1014703013+1015336566+1016007184+1015466229+1015198255
1107+1016273597+1018293643+1017724597+1015118922+1014399275+1014996868
1096+1015597257+1016529996+1016438179+1015688879+1018580085+1024306964
1084+1026364791+1024564794+1024201491+1028648194+1034121470+1032080030
1072+1026284808+1027290572+1032912889+1034646234+1032610256+1033280158
1061+1038205651+1042707692+1042589019+1039445185+1039300436+1041820081
1049+1042437182+1042192748+1041167151+1038256762+1037318430+1040564681
1038+1043113912+1041749137+1039627064+1038040484+1037262248+1035977520
1026+1032126134+1029709426+1030056862+1030839390+1030752515+1027434281
1015+1023449915+1023330527+1024938371+1025380941+1026805085+1031491606
1003+1035827634+1035681715+1034445627+1035994167+1038535530+1039661268
991+1039926186+1040662740+1040189933+1038486630+1039178772+1042754316
980+1046704347+1049786796+1052576561+1053998234+1054007012+1056243402
968+1058902398+1058431412+1057922710+1061000997+1065477092+1065418893
957+1062271613+1060860865+1059910048+1060399762+1063584107+1065967716
945+1067047806+1068512917+1070706844+1072398377+1069700494+1064713356
934+1063805847+1064448829+1061380101+1058912087+1062508505+1067629272
922+1067849257+1066199081+1065606039+1064152893+1064073236+1067207446
910+1069545406+1067368386+1061736641+1059226165+1062335989+1062606109
899+1055282701+1049428175+1051869398+1056356158+1058265724+1061891469
887+1066083464+1067785466+1068891956+1066513158+1058662320+1054777771
876+1059745791+1062346979+1054822509+1046580017+1046366860+1049393191
864+1047542668+1043582688+1041920742+1042325857+1045447516+1049166119
853+1050116740+1049052192+1047151339+1044760707+1042768167+1040108715
841+1035027939+1030167602+1028204454+1027859359+1026465062+1022467561
829+1018826795+1019887767+1026306852+1034181620+1035395338+1028258296
818+1023312124+1027448066+1034663336+1036062705+1030498782+1022876837
806+1019471858+1021551533+1023276620+1023936183+1026860357+1027371790
795+1025140993+1025321702+1023737202+1018197469+1013715001+1009337616
783+1003221619+1001455761+1006347505+1010457502+1009358815+1005932832
772+1002860852+999134707+994635917+991897068+988457039+983378669+979590098
758+979286880+994697757+1022726561+1022624340+994251936+975928329+969060691
745+963330691+961392123+964798663+968712995+966512565+958183783+950857904
731+948078218+946341037+943222824+939988538+936148987+929961916+921847656
718+918153959+922342182+926159689+925098458+925989450+931828890+937209763
704+937464537+934477027+932895389+934076724+935177752+936694234+939750412
691+938421921+933490316+933261032+936631808+939551756+942799371+942671855
677+935567976+927687681+924954814+924216959+921519012+923426628+934238250
664+946303777+952034622+945187793+930602686+920467340+923695447+933526405
650+934947818+931297299+930671744+931889950+932827046+931819656+931428067
637+937119442+950611128+964516058+982962240+1008236003+1001102862+960825222
623+929757603+908573092+898804755+913038003+934544329+937418368+928625167
609+923882789+925387175+920878892+910542938+914772389+935321720
##END=
