##TITLE=Sample description
##JCAMP-DX=4.24
##DATA TYPE=INFRARED SPECTRUM
##DATE=12/9/2023
##SAMPLING PROCEDURE=Instrument type and / or accessory
##ORIGIN=Default
##XUNITS=1/CM
##YUNITS=ABSORBANCE
##RESOLUTION=4
##FIRSTX=4397.6552
##LASTX=599.8556
##DELTAX=-1.9287962
##MAXY=1.8867544
##MINY=0.2392371
##XFACTOR=1
##YFACTOR=1.757177e-009
##NPOINTS=1970
##FIRSTY=0.25881687
##XYDATA=(X++(Y..Y))
4398+147291294+146672784+145864505+145624838+146022813+147054307+148072368
4384+148363493+148017553+147129882+146538763+146866827+147642627+148544154
4371+149288578+149826814+150380111+150930763+151010697+150386709+149973351
4357+150123009+149955628+149092770+148310237+148649698+149657245+149927440
4344+149637876+150031712+151013818+151300278+150890668+150955508+151190510
4330+150870503+150570271+150499953+150209083+149742911+149670050+150221040
4317+150992566+151753068+152050637+151313185+150320665+150222448+150760108
4303+151290882+151815889+152094887+151723710+151333791+151919449+152995905
4290+153551237+153423543+152462909+151351718+151079912+151230486+151714856
4276+152480751+152279381+151178774+150927727+151937919+152795603+152526358
4263+151431619+150654428+151364150+152967445+153790734+153453207+152614297
4249+152382704+153471761+154542569+154380293+153813156+153244442+152454497
4236+152038901+152261166+152529936+152427225+152274208+152612737+153115560
4222+153095089+152980573+153411705+153855404+153695655+153371373+153584446
4209+154124514+154387348+154341454+154003230+153299003+152778032+152928471
4195+153427274+154114897+154813087+154743804+153881710+153232790+153472524
4182+153887442+153579375+153212811+153466029+153677134+153151855+152591842
4168+153266863+154497387+154436211+153342744+152735971+152703220+152987086
4155+153803624+154330870+153659580+152596099+152390302+152931557+153396525
4141+153519182+153817362+154609410+155167575+155102464+154893564+154799722
4128+154683917+154434549+154588176+155384786+155774687+155144780+154559598
4114+154733339+154780286+154313978+153831677+153516197+153450408+153462229
4101+153527255+154058759+154779963+155107908+155197764+155096647+154595350
4087+154055672+153822264+153872975+154162437+154496861+154748604+155306870
4074+155989863+155436006+154027043+153857575+154652184+154759984+154358075
4060+154394930+154774248+154785798+154455987+154458192+154747722+154636699
4047+154088015+153994360+154885100+155857691+155942798+155527406+155330123
4033+155510072+155721652+155301680+154365995+153979791+154426934+154886016
4020+154941985+154976924+155440687+156162333+156442212+156253020+156261771
4006+156233142+155441010+154631798+154846567+155418876+155478034+155258940
3993+155094764+154928926+155076345+155981892+156798040+156521146+155920784
3979+155874312+155857233+155226122+154364554+154140507+154636462+155282820
3966+155497691+155107298+155017476+155509801+155724213+155720923+155452610
3952+154376341+153627203+154513211+155110656+154078127+154095308+155770634
3939+156398658+155201241+153241253+152479886+153867870+154800791+153273902
3925+151541691+151862123+152418405+151957678+152526595+155056620+157058721
3912+157136111+155911591+152633988+147407438+144371605+145614018+148945249
3898+152872247+154494860+151970042+149741928+151710090+152535839+150895282
3885+150696761+149924065+149585570+151969312+151508720+148261782+145963944
3871+144978802+146936365+148502110+147436932+148873456+152665365+153242847
3858+148217464+138976766+136148553+146091180+154282092+156253681+153783153
3844+149484113+145637304+142898514+143780401+148111767+150797556+152000401
3831+153472881+153545352+152320900+149590557+144598042+143957739+147660368
3817+149303571+152793449+157036113+156797396+152772758+149874574+149489100
3804+147134546+146910602+151537655+154065356+155850229+158555929+159558675
3790+159397179+158885401+157928702+157437835+156367485+154738122+155763222
3777+158235989+158537018+156158839+153812613+154442486+156329935+157895714
3763+157625502+154294389+152206893+153169494+151648236+145474112+141321694
3750+145207309+147493902+145943286+150325058+156535986+155518535+149362762
3736+145705417+149766028+157362311+162013413+162283744+161443478+162704480
3723+165686752+169861303+174463051+176854544+175163072+172222708+175384252
3709+184381527+192858679+198790983+204672524+214388968+224643208+230452736
3696+232012968+229669083+224465107+222789867+228781820+234923821+235824059
3682+232119208+225780806+217825591+212630859+215665404+218249295+218235896
3669+223129328+229391391+232458364+233866920+234498710+233649370+233489892
3655+235572062+234227141+228400534+228324111+238250609+247888680+252620954
3642+254243058+255246297+256107424+256569085+256314561+253511321+249997071
3628+254277403+262061250+264705860+262675741+259917599+261208230+264685270
3615+266736284+268807464+270850846+272325327+275261960+278357375+279151577
3601+279134972+280003037+280622072+281267311+283181914+283965397+281841809
3588+281495174+286063340+290501929+292349148+293175354+293985380+294610572
3574+294991807+294688590+292549144+289843563+290733234+294528891+297413574
3561+299208283+300847704+301381344+300360908+299833917+300646961+300840208
3547+300388859+301469945+303703385+304826600+304555879+304371690+304954753
3534+305559864+305311361+304250118+303493416+303447453+303586257+303854569
3520+303995035+303936013+304041065+303806571+302859981+302240318+302378104
3507+301738631+300209656+299800030+300449713+300576067+300149582+299817262
3493+299654815+299253805+298373733+297424836+296732379+296091990+295656042
3480+295672832+295606924+295055713+294412713+294024864+293677957+293118198
3466+292265330+291070338+290166929+290249899+290502811+290004788+289220949
3453+288456173+287258908+285958457+285657309+286308078+286715126+286398476
3439+285827388+285283130+284689247+284403516+284654614+284732258+284197668
3426+283338203+282372142+281749952+281755820+281846015+281775732+281598971
3412+281194704+280996896+281170095+281232763+281307999+281612794+281880987
3399+282180728+282506875+282408539+282227284+282596205+283040719+283029847
3385+282761060+282477432+282206406+281820337+281513033+281745254+282148130
3372+282130457+282063549+282303470+282537370+282280726+281521021+280939315
3358+280936890+281444360+282231846+282670695+282440916+281798526+281152965
3345+280958447+280991875+280630484+280156443+280272774+280667238+280339699
3331+279532760+279393431+279759520+279892303+279908517+280022880+280143027
3318+280007226+279341515+278418805+277927905+278117386+278786760+279561288
3304+279744137+279066927+278352354+278592598+279668036+280895931+282381402
3291+284011461+284980660+285338591+285620438+286152144+287167323+288067137
3277+288030740+287371898+286961085+287099651+287231941+286787207+286171004
3264+286007880+286183962+286084371+285432280+284924317+284939751+285013766
3250+284996738+284426446+283017008+281736231+281045182+280545445+280080952
3237+279797189+279950816+280157189+279802175+279338480+279384832+279397061
3223+278697548+277821699+277419892+277087486+276442959+275660409+275086437
3210+275204294+275788595+275877976+275242319+274568315+274091560+273198191
3196+272086288+271659295+271534416+270994127+270316900+269680531+268837687
3183+267817692+267070657+266966046+267113312+266807449+266110532+265495414
3169+264872817+264141284+263577556+263002024+262398405+262335923+262671585
3156+262877670+262753724+262005587+260928435+260340658+260211895+259970481
3142+259354482+258587959+258029607+257291510+256182185+255415798+255064736
3129+254649886+254054120+253248046+252374809+251914030+252049119+252019354
3115+251005668+249413007+248238656+247642093+246979487+245869551+244542913
3102+243361082+242366935+241574327+241013720+240352131+239471550+238679146
3088+238141741+237736253+237283039+236755063+236161027+235624215+235263995
3075+234944699+234596622+234263606+233884814+233509702+233510261+233892531
3061+233977553+233617112+233434364+233527239+233460788+233241253+233109183
3047+233118562+233255330+233277922+233070870+232960899+232873384+232358213
3034+231570694+230882935+230441067+230516405+230949640+231137187+231040954
3020+230903796+230622000+230250738+230101555+230098587+230001726+229766385
3007+229304029+228766047+228458522+228321618+228249723+228215531+228201929
2993+228385643+228771321+229275400+230103726+231157608+231916820+232178196
2980+232238575+232340574+232267781+231866261+231330281+230750050+230223313
2966+229946554+229782344+229496732+229221194+229013905+228632806+228080153
2953+227657247+227592747+227835280+228106221+228250944+228282287+228264597
2939+228220517+228010582+227644239+227378521+227287088+227082275+226643816
2926+226287191+225902462+225055480+224117081+223734490+223726875+223533628
2912+223040998+222551625+222352408+222261247+222054568+221991984+222051634
2899+221929825+221764003+221757084+221809474+221873279+222090456+222372778
2885+222463906+222396200+222384599+222523352+222655795+222711171+222896564
2872+223077802+222869936+222548860+222564989+222565176+222222068+221946649
2858+221923855+221723027+221130433+220377631+219705730+219322647+219210743
2845+219081352+219002029+219153756+219337063+219427394+219465334+219503715
2831+219679577+219956641+220164338+220188795+219987068+219721792+219621149
2818+219687888+219678763+219533922+219455056+219423849+219390624+219460026
2804+219667756+220058132+220530274+220730118+220578357+220411348+220384568
2791+220370932+220246833+219991088+219787581+219702813+219543928+219308926
2777+219207384+219279381+219325157+219273886+219214033+219054300+218821995
2764+218821079+218996652+218974248+218755934+218602986+218560551+218578224
2750+218626204+218594455+218469236+218388132+218446187+218627612+218773776
2737+218777965+218750829+218774590+218844789+218974892+219114170+219183894
2723+219163474+219068259+219018412+219133047+219229874+219094751+218904608
2710+218934713+219205604+219491301+219495778+219227889+219007999+219037984
2696+219277990+219538196+219604239+219491402+219391031+219345798+219228076
2683+219043819+218998857+219058167+218918397+218595557+218351464+218227060
2669+218151196+218161898+218238423+218137543+217746760+217334267+217145499
2656+217045602+216786245+216457282+216298516+216351432+216496053+216493441
2642+216234219+215906987+215685976+215544476+215480858+215563675+215630957
2629+215485234+215195178+214827902+214432675+214213191+214272926+214423974
2615+214375417+214043367+213725530+213660572+213635420+213492648+213311969
2602+213131376+213049864+213110871+213136311+213012162+212823970+212615205
2588+212352031+212093114+211877718+211675144+211534237+211451708+211243350
2575+210889354+210620160+210435241+210208736+210036690+209877822+209578812
2561+209293725+209151818+209004636+208769091+208574234+208559546+208613158
2548+208515093+208243032+207946650+207768583+207660800+207581375+207636666
2534+207784916+207893412+207872635+207609750+207210809+207022447+207073413
2521+207090356+207117747+207288928+207365894+207172156+206917293+206818109
2507+206865310+206985474+207101601+207169748+207184690+207098650+206971193
2494+206942869+206939664+206848468+206819483+206962119+207184367+207467232
2480+207742498+207868344+207891495+207841988+207673809+207477951+207356854
2467+207382413+207551745+207648199+207595096+207636903+207843243+207966121
2453+207928943+207955775+208102363+208215268+208306040+208449202+208655847
2440+208961777+209309346+209554490+209657118+209712001+209824092+209946003
2426+209978957+210030245+210225442+210449623+210591191+210734184+210941643
2413+211118624+211245148+211425505+211656487+211863268+212018252+212173981
2399+212394144+212654688+212928751+213136447+213159259+213096217+213012755
2386+212503300+211117250+208769210+205435790+201227047+196563462+191842636
2372+187196486+182550268+177928914+173559913+169935097+167795296+167438365
2359+168680473+171655877+176588691+183401473+190299261+193545013+191479057
2345+186691729+183528506+182813102+183271099+184355730+185453454+186148455
2332+186971354+188791097+191318866+193351088+194582358+196080991+198692562
2318+201832074+204452430+206342744+208007131+209787441+211566954+213252439
2305+214881140+216299568+217362388+218140308+218816873+219582530+220423237
2291+221182298+221816021+222351713+222790308+223101801+223258871+223355986
2278+223456018+223467280+223443026+223489939+223616378+223875057+224184329
2264+224403575+224586696+224811098+225015504+225115621+225191841+225382865
2251+225617020+225727805+225753805+225830873+225978513+226181307+226394024
2237+226551603+226659063+226748987+226899273+227122267+227310883+227450382
2224+227568375+227674021+227768982+227833601+227950034+228088142+228137615
2210+228210697+228329148+228423634+228584859+228807650+228986056+229089955
2197+229145924+229249535+229413864+229532332+229688299+229988209+230218920
2183+230252468+230305384+230497545+230673695+230719352+230735566+230859258
2170+231065140+231248888+231406178+231577800+231707597+231721369+231702018
2156+231773353+231913225+232109320+232366100+232555598+232651135+232767704
2143+232898909+232983982+233034592+233130468+233363945+233661565+233839818
2129+233913578+234023346+234136115+234233043+234422439+234637955+234733594
2116+234717125+234732288+234909574+235144679+235274815+235305514+235266098
2102+235202666+235212808+235262146+235273153+235343115+235529102+235743175
2089+235907131+235998852+236087538+236163402+236127090+236064743+236084757
2075+236164233+236330257+236534986+236545315+236304478+236138199+236306208
2062+236590344+236717767+236747329+236812118+236932333+237039641+237085298
2048+237105667+237085094+236959927+236850719+236906841+237022087+237144778
2035+237326406+237485562+237550232+237526046+237517719+237619990+237789831
2021+237871919+237709930+237587426+237937996+238470687+238657335+238615630
2008+238729060+239012434+239245045+239346536+239405218+239502215+239495498
1994+239096472+238674584+238959195+239713557+240362426+240813809+241151014
1981+241426569+241574819+241622970+241723053+241938483+242100098+241968248
1967+241906156+242421361+243072400+243334641+243444052+243672542+244008272
1954+244358096+244641503+244816772+244778356+244339813+243639741+243734515
1940+245012477+246240406+246866666+247244221+247539381+247798519+248042985
1927+247978451+247340267+246874790+246917887+246888885+247518045+249066372
1913+250069084+250119100+250173068+250822904+251654045+252263447+252833298
1900+253320450+253306407+253082123+253238141+253171402+252893354+253783823
1886+255341054+256247940+256762941+257383961+258040564+258531464+258781171
1873+258139086+255988905+254426688+256235458+259519421+261465671+262179701
1859+262737765+263468789+264186398+264829772+265283885+265123695+263902211
1846+262010335+262241132+265524281+268235137+269201520+269923098+270384640
1832+269085614+267253422+267770186+269544764+271514623+274201158+276407122
1819+277507950+278238398+278695818+278382272+278179037+279408085+281220331
1805+282050184+281448041+280559709+281282253+282983155+282993264+281204151
1792+281693389+285922060+289374949+290388024+290665020+290998766+291731656
1778+292931261+292646700+289751027+287447745+289855164+294659079+298493405
1765+299805254+299131962+299556106+301241557+302748484+304039335+303345555
1751+300565213+299697623+302290927+305390226+307024118+307526348+308599666
1738+309454264+307381337+305996525+310380841+315829792+319967810+322549072
1724+323521714+323171347+319937994+314712953+314537821+321067926+327635750
1711+331125069+331096847+329174155+328361110+327412179+324532279+324308674
1697+328393064+335414204+342978381+346483643+346749242+344822242+340141696
1684+339676949+347860483+355140235+357601045+357520721+358789049+360177762
1670+361097318+366064052+372154918+374516476+376368953+381028264+384609305
1657+382828570+375936227+375053034+384327763+388337629+390232404+398735947
1643+408217117+413053630+413326624+410526980+412046661+421922125+430152979
1630+433553663+435512854+437756877+440644681+445963953+450812915+452567665
1616+456568949+464918492+471695030+476069374+480512848+485935917+491568413
1603+497263730+503231565+508913585+514132079+520054495+527142934+534318957
1589+541131349+547823867+554652439+561963500+569215539+574184512+576936701
1576+583588276+594233875+601367124+606890293+616135647+626598753+634584157
1562+637305614+634452409+640305423+659883357+676711069+689175564+699435417
1549+709474583+717778977+722397278+723955459+726943396+741630645+759905957
1535+771298015+780417048+791246566+799263991+803160731+806519557+810286992
1522+815080799+823296864+833202178+843363594+852944966+859903591+862398593
1508+860467556+865843917+883659196+896767166+901620402+903386177+907970015
1495+914451172+917807691+918465753+921329880+929886169+939987952+946222302
1481+948475111+950758651+953701881+952771912+949258746+953192596+963277487
1468+968990544+967603799+964605889+964490219+963983444+959625722+957726028
1454+962112854+964883224+963245737+959046899+956265064+955520573+953639264
1441+949282559+941196478+929832099+922920556+921328591+919242740+917560206
1427+918218539+919108482+918316095+915954469+916538040+923541576+931122985
1414+936815079+942921616+948566018+950874117+950304385+951612978+956683374
1400+961763064+963721441+962492426+962280151+966842890+971134603+970241607
1387+968511177+971637375+977241750+981361689+984047936+986768442+989640371
1373+992101588+992764873+991481925+990861923+991316121+990052982+987397807
1360+988005801+992922672+996217524+993975502+990383845+988653686+987169046
1346+984459733+981483803+978979711+976061853+972710218+970115490+968504800
1333+966857815+964641777+963250011+963902102+965938225+968389402+970012303
1319+970464398+971175307+971862541+972599705+975323671+979387098+983798822
1306+990355758+997677606+1000025121+997451965+995557292+995770517+996801028
1292+999484493+1003679532+1006761497+1009628677+1015197707+1022419624
1281+1029311697+1034987916+1038844494+1041377352+1044075267+1046776304
1269+1047339387+1047271749+1048222071+1047776353+1047661023+1051501523
1258+1055994996+1057026727+1056527890+1056861534+1056972251+1056886431
1246+1059556871+1066029616+1072351618+1073741823+1069692100+1065138927
1234+1064766139+1065864490+1064634526+1063635155+1065746039+1069161038
1223+1069669577+1066121881+1062785035+1061911170+1059939700+1056930528
1211+1057228284+1059572610+1059509179+1057503720+1056956240+1058484910
1200+1059459926+1057476787+1054100661+1052195472+1050856555+1049535751
1188+1050002229+1050153854+1046868025+1043056358+1042144638+1042673529
1177+1042287647+1040970236+1040168147+1040110211+1039256427+1036580289
1165+1033323293+1032164426+1032989920+1033257486+1032266663+1031095789
1153+1030753936+1030850610+1029519698+1026891795+1025854229+1027262209
1142+1028782195+1027572041+1024604523+1024120543+1026322945+1028645020
1130+1029342158+1027722988+1025353153+1022756457+1019787854+1017838704
1119+1017197738+1016485404+1014632588+1012312617+1012023274+1015351571
1107+1020084999+1023771431+1026296691+1027082497+1024934232+1021531581
1096+1021216525+1023955146+1025246913+1023552711+1022404021+1024030992
1084+1025545619+1026590172+1029730007+1033481159+1035014917+1034613228
1072+1033040258+1032033018+1034636905+1038386769+1039852414+1040603418
1061+1041777752+1044402670+1047245223+1046888106+1045260117+1045743962
1049+1046828609+1045531957+1042606705+1040922950+1040649550+1040471466
1038+1040240534+1040820985+1044605176+1048326208+1043121146+1033058983
1026+1028987347+1029859855+1029104916+1026490988+1026436037+1030491051
1015+1035300326+1036873703+1035063559+1032309132+1030156729+1029965688
1003+1031560638+1032731444+1033029200+1033385842+1035672978+1041148319
991+1046357248+1047311640+1045743283+1045548646+1045583788+1043066127
980+1041116638+1042380183+1044562776+1046632480+1048702592+1049875976
968+1051279749+1054275828+1057340290+1060841448+1065834369+1067759435
957+1065064234+1063254904+1063822329+1063441875+1061591366+1063106942
945+1068910364+1070457487+1066724855+1064716547+1062752539+1060222734
934+1062244611+1067229052+1068237649+1063436109+1060256859+1064396742
922+1069690201+1068800936+1064020426+1060196819+1059250296+1061612329
910+1065219183+1065907841+1064155905+1064243353+1065488242+1065084382
899+1063755709+1064245388+1068219536+1071564047+1070798729+1068834789
887+1065807300+1062131655+1061249920+1062375137+1064983231+1068394024
876+1067079597+1059839498+1052183261+1047919159+1046303517+1045273685
864+1043479620+1040072830+1037258295+1036642499+1034970888+1030801086
853+1027633708+1028406082+1030422803+1029979866+1029789232+1031057934
841+1031843265+1032989038+1030966483+1024306564+1020875962+1023332633
829+1027554266+1030566287+1031369597+1031474819+1031689197+1030181287
818+1027090435+1025696837+1027514782+1030614047+1032405535+1031408741
806+1027153595+1021570115+1019367848+1019789618+1017303571+1013055209
795+1010217404+1009074142+1009891155+1009727590+1006141427+1002720594
783+1001626313+1000212363+996833998+992889701+990749306+990349856+988989840
770+987069048+986402235+985101919+983295846+983864696+984416382+981811477
756+977105118+970300222+962227438+956921836+956565601+959709845+963772390
743+964776238+960878073+956785000+953634650+947474858+941161676+940202873
729+941636090+938670812+932390601+927575017+924760211+923086225+922401841
716+923462270+925387879+925155929+923253386+922186920+923059020+926810512
702+931560562+932055464+927206910+922509505+921632181+922426807+923327401
689+925659177+926721708+923798424+921052205+920284444+920677178+923169466
675+925426820+926573814+927112203+925404704+926186168+931904789+936468206
662+938567218+937609773+932492295+925765077+922853529+924693455+926662686
648+927138051+925877219+918508018+911934868+918601910+931644685+939469983
635+941928554+937588878+928182808+918893018+914966563+917077447+916193270
621+912655275+917186468+927054945+927941225+920809536+921661420+932295487
608+936140193+928513127+925528718+933670835+940111016
##END=
