##TITLE=Sample description
##JCAMP-DX=4.24
##DATA TYPE=INFRARED SPECTRUM
##DATE=12/9/2023
##SAMPLING PROCEDURE=Instrument type and / or accessory
##ORIGIN=Default
##XUNITS=1/CM
##YUNITS=ABSORBANCE
##RESOLUTION=4
##FIRSTX=4397.6552
##LASTX=599.8556
##DELTAX=-1.9287962
##MAXY=1.8693297
##MINY=0.29260299
##XFACTOR=1
##YFACTOR=1.7409489e-009
##NPOINTS=1970
##FIRSTY=0.31397337
##XYDATA=(X++(Y..Y))
4398+180346109+179448247+179966918+181535789+183214080+184069403+183376996
4384+182031778+181381740+181562990+182127641+182552863+183086171+183971143
4371+184684554+184991984+184769889+184351292+183931206+182971512+182528555
4357+183616278+184732862+184949273+184640987+183900495+183118474+182597029
4344+182588555+183035466+183037538+182458284+182164497+182940955+184272855
4330+184569432+183722189+183080334+182953760+182466501+181900788+182473434
4317+183726897+184141591+183340260+182316030+182081268+182558718+183136671
4303+183565111+183699713+183176659+182154346+181544040+181616468+181567492
4290+181656029+182738804+183600905+183234040+182806815+183021532+183158206
4276+182804487+182491425+182365194+182351123+182737092+183268209+183301162
4263+182500738+181401306+181167263+182387927+184231223+184933079+184231805
4249+183533151+183244020+182923614+182900111+182963894+181980971+180589995
4236+180427695+181462316+182480606+182537782+182259847+182971546+184354322
4222+185238677+185178934+184571897+184423977+184759207+184543857+184001477
4209+183709025+183315969+183317681+183947691+184069677+183789585+183824130
4195+183685111+183301983+183165310+183146770+182977538+182775437+182774650
4182+182941555+183067050+183159558+183343478+183378486+183056522+182744145
4168+182859318+183412911+183850372+183670030+183339815+183452334+183729910
4155+183537619+182530113+181098002+180620842+181509187+182088355+181899521
4141+182218386+182858273+182829959+182447927+182516675+182815477+182718861
4128+182147499+181352108+181293392+182562518+183939303+184136918+183312597
4114+182482507+182276418+182309508+182339174+182490621+182419237+182125519
4101+181886802+181477021+181065579+180956672+180936729+181125186+181578670
4087+181750967+181432924+180967987+180616614+180333869+180177835+180645698
4074+181576513+181837552+181589027+181808246+181977102+181639629+181467332
4060+181798437+182050232+181531851+180695291+180251615+179971129+179602843
4047+179448932+179906576+180932569+182004988+182356464+181401186+179743711
4033+179050089+179793509+180599821+180714138+180626166+180537613+180386354
4020+180482902+180940957+181037625+180537989+180212705+180402891+181159936
4006+182191236+182444932+181938346+181573723+181048512+180122148+179680784
3993+180110337+180890441+181563743+182049376+182138101+181804582+181398242
3979+180898230+180362132+179983951+179863198+180070005+180020448+179779916
3966+180388956+181607361+182241017+181812166+180832307+180291843+180539359
3952+181028758+181499258+182023544+181915339+180903571+180201903+180388562
3939+180508546+179957845+179335693+179379414+179646170+179432857+179073267
3925+179238084+179662210+179636241+179255818+179111493+179458552+179646067
3912+179535979+179450455+178459195+176413285+175380205+175987447+177265458
3898+179230706+180373618+179085558+177550600+178428399+179084292+178275925
3885+177733253+176775494+176589537+178520736+178719327+176918262+175361135
3871+174198279+174917048+176044092+175851441+177048550+179343431+179392252
3858+175913427+169807657+168070975+174854361+179919723+180239855+177870646
3844+175219736+173147909+171415986+171858018+174704882+176629919+177483444
3831+178408610+178847972+178720696+176941115+172876959+171727130+174022182
3817+175039890+177127535+179883141+179890827+177121321+174810109+174815707
3804+173898210+174023997+177138542+178733758+179928316+181946426+182846599
3790+182872944+182433685+181772160+181902705+181860714+181394579+182720795
3777+184671664+184629227+182905657+181863829+183110822+184586191+185437405
3763+185840082+184959202+184777849+186356118+186352300+183364329+182336555
3750+187797079+192591782+195521551+202407133+209052339+211120948+211212120
3736+212495267+216054310+221602959+226705349+228979002+229596019+230323655
3723+231393763+233235536+235398279+237063851+238391009+241695689+250796123
3709+262855017+273199722+282063323+291845601+303806697+314669064+322360377
3696+327782675+330303160+329190701+327298395+327863920+327909181+324117413
3682+317094027+308823940+300397047+293381022+290503756+288286678+285286981
3669+285676340+287631522+288313965+288516545+288356796+286982784+285850588
3655+286465842+285203237+280850413+279893509+286130783+292955629+296287253
3642+297202302+298083696+299629799+301261734+302017136+301044877+300140339
3628+303483775+307473980+307623903+304758927+301493209+300679604+301084763
3615+300659576+301234413+303835114+307111891+310251069+312354617+312767753
3601+312498480+312860227+313993194+315569459+316749056+316579892+315500609
3588+315482908+316722557+317217725+316778671+316211743+315818019+315741705
3574+316205991+316817393+316723207+316100439+316093386+316745530+317549480
3561+318241407+318555188+318641842+318566966+318436866+318521876+318761637
3547+319040496+319135263+318968735+318655673+318542178+319109586+319585992
3534+318941825+317952311+317783934+318191216+318342132+318107233+317670576
3520+317133502+316725022+316568594+316266522+315846435+316148815+316788292
3507+316765798+316666477+317003505+317184892+316855088+316185997+315597978
3493+315172996+314661326+314087722+313529797+313219509+313419144+313700571
3480+313618300+313320576+312871354+312518303+312660181+312810070+312423638
3466+311878622+311772008+312329316+312915930+312576814+311339117+310013602
3453+309331125+309253304+309308186+309354269+309239404+309044630+309098827
3439+309011078+308309531+307460011+307006955+306831525+306833545+306945225
3426+306833682+306453789+306014085+305489337+304805832+304551863+305110472
3412+305569417+305460920+305355265+305308737+305066751+304784845+304683983
3399+304653272+304415463+304081859+304142972+304588976+304908542+304834146
3385+304374755+304055736+304260541+304321449+303945288+303615176+303314748
3372+303034587+303177321+303643387+304027457+304350242+304618385+304850100
3358+305368789+305590336+304833256+304185562+304489791+304908919+304782243
3345+304546042+304608764+304910049+305552641+306374086+306719844+306384015
3331+305962353+306014770+306229298+306116796+305812533+305660179+305526552
3318+305043915+304554088+304641906+304780086+304015645+303128807+303521675
3304+304319463+303845145+302480053+301788947+302311847+303093749+303431016
3291+304168204+305771414+307450425+308618005+308884196+308422615+308380504
3277+309059489+309513025+309474200+309377755+309344408+309562189+309964986
3264+310119702+309916541+309547570+309308597+309288397+309517305+309879668
3250+309744090+308928739+308237188+308362153+309039495+309336911+308847734
3237+308487151+308978485+309567975+309381932+308796721+308463391+308109827
3223+307628696+307331143+307000621+306541847+306425681+306780443+307105283
3210+307111480+306765140+306070268+305282683+304509888+303621065+302852618
3196+302657057+302682632+302204549+301319183+300535844+300005240+299455978
3183+298291035+296870786+296643693+297315181+297470274+296876264+296193170
3169+296424954+296877737+295943549+294292100+293670700+293989137+293624754
3156+292155924+290913160+291034393+291332219+289989107+288087317+288011003
3142+289684091+290146596+288221697+286585928+287399156+288799718+287343042
3129+283863446+282441880+284545924+286165465+283405305+279274610+278636896
3115+281048285+280858510+276428550+273347403+275032302+278005654+276164053
3102+270293063+267010979+268906761+271356854+268787000+263933872+262853219
3088+266284490+268457453+264796128+260049442+259410189+261594313+262002913
3075+258896670+255907226+256207672+258808270+259236008+256191700+253760625
3061+254386253+256567672+256730640+254423622+252619613+252501102+252992983
3047+252540132+251371166+250590959+250321806+250438091+250301520+249261113
3034+247790280+246872372+246775756+246676983+246157815+245972730+248551058
3020+259873704+279937470+292366755+286118611+272329712+261512606+254533437
3007+249767476+246659659+244957898+243742266+242349990+240680788+239397727
2993+239704233+241873738+243747813+243089095+241262986+240720058+242306851
2980+244662006+244674554+242408193+240775248+240874911+242119302+242488358
2966+241022233+239703445+240163452+242695491+244509583+242280540+238780625
2953+237725684+239475650+242104820+241828614+238875786+237048102+237858284
2939+240328936+240972829+238191032+235421217+235177827+237287435+239464198
2926+238327294+234917713+232909224+233505801+235395762+235434347+232816134
2912+230524985+230447319+232068195+233203575+232097588+230163119+229411979
2899+230307650+231959733+232138398+230464009+229115693+229277137+230458497
2885+231199691+230583256+229664647+229522975+230175478+230956524+230789910
2872+229829994+229194010+229189028+229534307+229725537+229221639+228291132
2858+227829705+228156838+228504051+228086498+227288351+226811808+226547808
2845+226144617+225692776+225518237+225718967+226051904+226262546+226268983
2831+226076452+225853022+225843384+225915265+225710100+225242459+224877185
2818+224823006+224872563+224815593+224682224+224425259+224109218+224052916
2804+224323815+224744278+225140227+225243349+225077916+225004923+225031286
2791+224935217+224719508+224605927+224756655+224870783+224631707+224255923
2777+224006319+223886918+223883820+223951780+223935466+223743158+223377747
2764+223010677+222985581+223211938+223271973+223162774+223057393+222986660
2750+222989792+223065644+223130283+223130831+223087299+222946448+222704770
2737+222560325+222592782+222679332+222695338+222635561+222563047+222422436
2723+222301991+222483840+222806694+222798340+222536890+222471172+222602522
2710+222658568+222617586+222599834+222646071+222652611+222502910+222287132
2696+222172387+222231206+222498185+222814157+222867584+222676919+222488222
2683+222352473+222225557+222085785+221938292+221919051+222024758+221944952
2669+221702845+221625111+221597927+221439615+221261857+221070867+220852761
2656+220714821+220627825+220466004+220358980+220451231+220479134+220240007
2642+219886990+219612993+219508844+219441226+219285791+219141482+218998458
2629+218762515+218408334+217966884+217619174+217471288+217405314+217294557
2615+217110209+216954722+216930842+216916394+216761814+216463611+215996980
2602+215493938+215260870+215302485+215368083+215318884+215193338+215071215
2588+214901845+214627796+214383362+214265656+214159145+214017472+213911458
2575+213828416+213672913+213363582+213071028+213006098+213009933+212901727
2561+212695827+212392214+212045275+211817223+211739111+211660058+211543722
2548+211456161+211367556+211229701+211006802+210713238+210514527+210511634
2534+210552838+210505043+210379565+210199548+209993818+209775849+209646793
2521+209701487+209755410+209648831+209489800+209394091+209329212+209235112
2507+209179563+209230661+209311478+209323152+209255535+209192539+209169959
2494+209104019+209005965+209004527+209128772+209304459+209520922+209803889
2480+210050429+210166509+210192375+210141790+210030007+209955781+209954840
2467+209996164+210083382+210170532+210211308+210255302+210349214+210516085
2453+210677186+210699868+210631617+210577352+210574150+210708171+211000451
2440+211295761+211485878+211594803+211685034+211808236+211880629+211817856
2426+211831380+212117395+212410000+212478594+212517487+212622833+212681995
2413+212675884+212681053+212784380+213030817+213294030+213378184+213443012
2399+213776787+214450261+215878503+219230550+226077582+237905924+255568264
2386+278507361+304740166+332007471+359036317+385915239+413473764+442636320
2372+473617847+505281201+535647697+562697906+583668127+597004552+604491540
2359+604061388+589279755+562642922+533126630+506581791+491326629+495438614
2345+514560420+524809604+515974745+502923068+493769190+490207289+493274844
2332+498464606+498064582+493452054+491303930+491429305+488460695+479912535
2318+466731134+452777966+446325651+449732631+452566930+444554372+426102479
2305+404708714+388486702+378494569+370066615+360666437+349731523+336418276
2291+321980930+308878787+297669019+287866558+279495694+272624388+267054597
2278+262347781+258093849+254250127+250908352+248091154+245693991+243534192
2264+241573429+239909072+238502587+237097592+235557035+234091543+232930519
2251+232065833+231377244+230652911+229812824+229051020+228446294+227946230
2237+227558583+227245281+226962536+226753058+226624481+226479180+226310101
2224+226254004+226339254+226459271+226560219+226645588+226712984+226775346
2210+226897178+227144625+227444711+227655816+227792951+227940427+228083058
2197+228234761+228460006+228727841+228972651+229217496+229504675+229786171
2183+230032710+230222794+230289761+230290891+230291421+230256003+230198400
2170+230178577+230200420+230215330+230211033+230148705+229982485+229755957
2156+229500841+229260036+229095373+228913798+228589250+228204633+227967560
2143+228062224+228460006+228956748+229471329+229954154+230326651+230608232
2129+230902327+231257449+231566129+231794625+232073964+232444304+232792767
2116+233071558+233306919+233527148+233813574+234148564+234412805+234549581
2102+234682215+234949399+235275163+235623249+236058023+236634658+237332422
2089+238001531+238593931+239240649+240101569+241238165+242578949+243908435
2075+245188346+246745850+248675868+250732545+252914615+255407642+258068309
2062+260823760+263890751+267149673+270461765+273939700+277619668+281384097
2048+285106415+288829641+292429785+295687218+298548325+301044775+303233675
2035+305033507+306471490+307657078+308513035+308947192+308987797+308706302
2021+308160737+307397940+306323997+304950517+303470012+301906688+300275027
2008+298658602+296987979+295209990+293479590+291834474+290251806+288857373
1994+287596395+286416832+285384094+284380833+283336472+282345126+281494562
1981+280790464+280245379+279906519+279642348+279316704+278986386+278718329
1967+278632942+278761347+278905194+279041713+279308898+279707158+280158623
1954+280610977+281086185+281594021+282048378+282425788+282916214+283829483
1940+285063910+286121042+286902071+287622894+288337657+289061151+289803098
1927+290368417+290661040+290960920+291285554+291493338+292086321+293077855
1913+293630198+293615647+293624583+293935831+294331472+294650525+294927741
1900+295198041+295390727+295541403+295738676+295641649+295360393+295673831
1886+296419510+297000578+297494137+298016078+298310447+298336707+298378818
1873+298139160+297100482+296116172+296667693+298151006+299220840+299506923
1859+299109638+298402476+297874235+297690246+297614069+297287278+296229051
1846+294497384+293827779+294652169+294867724+294226673+293847945+293501570
1832+291949099+289835623+289300158+289896702+290470409+290998547+291235089
1819+291198935+290948869+290275978+289165573+288191226+288096869+288418730
1805+288497886+288329680+287664834+286985044+287013991+286519970+285066067
1792+285111363+287180913+288819438+289519788+289642390+289313750+289317071
1778+289743765+289160780+286977923+285561988+287788943+291458553+293532589
1765+293584492+293045638+293720173+295005562+295836182+296483328+296493359
1751+295621962+295252512+296500994+298427366+299510929+299446803+299728880
1738+300378559+299719294+299832858+303098234+306386172+308667100+310176570
1724+311093399+311266193+309566195+306909893+307676388+312096094+315983280
1711+318013458+318078577+317161405+317226044+317257987+315969003+316258442
1697+319175560+324067770+329234764+331863402+332763764+332114393+329467095
1684+330272586+337012320+342376895+344107603+344360888+345737141+347073783
1670+348488142+353191433+358379859+360865661+363353963+367874120+371529831
1657+371515040+368134183+369373524+377368895+381323801+384105342+391368899
1643+398793884+402836984+403640626+402318261+404112992+411358028+417011905
1630+419353330+420797168+422257404+423879068+426943302+429432323+429538491
1616+431059430+435820512+439701090+441805870+443814103+446542336+449632556
1603+453083804+456839589+460521764+464280802+468554487+473176979+477678066
1589+482190246+487093616+492570146+498664207+504950404+509767703+512944679
1576+518690825+526722932+532073607+536651042+543975918+552291130+559392850
1562+563163356+563712550+571602095+588106800+601766011+613458861+624644800
1549+635072940+643642908+650281848+655022423+661085636+676180878+692342735
1535+702969038+712377947+723229186+733150210+741783653+749797546+756944904
1522+765522198+776599881+788281364+800708527+812600635+821947301+828229082
1508+832659197+841388914+854964107+866179353+874755963+881212695+887782134
1495+896162430+902241392+904717813+908352194+916540969+925115525+930631290
1481+933855787+936740518+939807730+941239243+940612982+942958344+948994236
1468+952888475+954520957+958244423+961751305+959630605+952501187+950322764
1454+955128799+957897603+955977052+951234286+948668507+948498760+946615390
1441+943442454+939414965+932131619+925412427+922260649+919240820+917056713
1427+915865133+912898714+910479879+911727196+916019405+922644855+929682313
1414+934497386+936238537+936271199+937557272+942276825+948983897+953132173
1400+953553081+954018976+955462197+957738812+963640770+969859144+972085568
1387+971648021+971331056+972080569+974112117+977444871+980706070+982228378
1373+983293350+985580784+987573164+988264749+987705113+985388647+983658794
1360+984771698+986082902+985117285+983523011+983791223+984081551+981894363
1346+979583237+979009153+977068745+972938614+970289433+968591079+965492368
1333+962779918+961523493+960119987+958053107+956644465+957143022+960158538
1319+964535927+967456674+968470154+970230888+974380192+979898422+984713016
1306+987274208+988182923+989357042+990973365+991789983+991399135+990946934
1292+992246292+996452086+1002658272+1008092212+1012244254+1016899921+1022539007
1279+1029124880+1035960408+1040615664+1041700905+1041447483+1042995332
1267+1046511938+1049494175+1049021912+1046279333+1046586438+1051118578
1256+1055294175+1056246576+1055835871+1055990895+1056461447+1056849693
1244+1057476570+1058474233+1059836518+1061668738+1063058207+1063832508
1233+1064555386+1064016497+1062556706+1062311296+1062508979+1060403686
1221+1056493493+1054717900+1056257464+1059005178+1061601702+1063112370
1209+1063558476+1062755416+1059846515+1057510122+1057095308+1056237538
1198+1055191054+1054690031+1053781727+1052350900+1050669527+1048777803
1186+1046495710+1044018946+1042840582+1044499974+1046702843+1045453403
1175+1042683777+1042365922+1042964930+1041841755+1039946539+1038420670
1163+1036802567+1035149816+1034807858+1034802654+1032159773+1028450619
1151+1027146058+1027566418+1027879822+1029308869+1032514810+1034304850
1140+1033013778+1029287985+1024208534+1020887626+1020705486+1021523336
1128+1020955004+1019277397+1018882030+1020915084+1023909783+1025421067
1117+1025237831+1024389031+1022219098+1017700447+1011743368+1007286207
1105+1006090313+1006812437+1009036944+1015409247+1024552067+1028871185
1094+1025843824+1020798405+1017136292+1016729969+1022316399+1030277841
1082+1034454192+1036219308+1037670677+1037967716+1038516876+1040645313
1070+1043510940+1045966956+1047546919+1048374630+1048539514+1047796163
1059+1045900947+1042151736+1037588509+1036584889+1041080943+1047015494
1047+1050538948+1052168554+1053741738+1054942015+1053503929+1049954593
1036+1045952302+1041872431+1039862316+1038633418+1036404803+1035628722
1024+1034777935+1033532740+1035018210+1035684733+1032414496+1029220059
1013+1028668503+1029834131+1031015920+1030378155+1028323190+1026389149
1001+1027409408+1032871695+1037390072+1038612123+1040450985+1041778143
989+1040081432+1037042157+1034278419+1033955908+1037484566+1040476594
978+1041635101+1046422238+1053127255+1054285625+1050191375+1048070948
966+1051737033+1057668639+1060015919+1057209180+1054282681+1056086005
955+1060561244+1062527125+1061428464+1060500850+1061106226+1063648656
943+1066676497+1067015099+1066345084+1067746673+1069766238+1070121753
932+1069288770+1068698937+1068524192+1069153671+1071888170+1073741823
920+1069841285+1064598661+1064059978+1064798673+1063305124+1063088062
908+1065338588+1065717385+1062798213+1057984371+1054937427+1059082074
897+1067657931+1071568398+1066601244+1057433295+1052386712+1053126433
885+1056898583+1060910734+1059897939+1054778157+1052782695+1053282553
874+1050873647+1046053164+1043276485+1043063669+1041393800+1038036395
862+1037334403+1041454947+1046258243+1043740327+1036084209+1033687696
851+1036811332+1036799623+1031710517+1027778139+1028146596+1030704022
839+1032871079+1033006451+1031323161+1028965884+1025942084+1022685678
827+1019720491+1019140313+1025145666+1033829506+1035501497+1031867938
816+1029865903+1029547774+1029656099+1028970335+1025543019+1021966224
804+1021828387+1024945859+1027417419+1024406492+1018384500+1014572156
793+1011958855+1008968607+1006951850+1006045189+1004440164+1000754565+996450922
779+994007847+992015056+989059798+988053782+989117727+989148814+988306107
766+987311526+984312787+979389251+976140857+975818072+975357928+972310230
752+967859916+963989849+961650717+962618183+965510651+964518740+958470317
739+951973186+948859206+948332917+947344909+946391618+945205379+940179543
725+932146683+925460975+921262576+918798137+917798832+917199481+915975171
712+914152468+913871520+918555261+925671943+929460869+932012748+937432993
698+943882466+948067376+947579500+944040024+942215404+940357506+935984704
685+934010743+934954312+932266443+926257051+923619785+926828259+936328922
671+946775276+942797363+927572363+928371999+938809726+943805091+941630912
658+938672984+936362337+933254725+930368214+930732084+934454796+938412646
644+944255579+952024405+956742656+957727925+958184919+959432990+956594342
631+951067690+952003246+953940437+947777252+944265029+951351102+953182227
617+937889370+923877451+927122490+935536544+936354052+934665284+929668207
604+921033463+915370342+911969320
##END=
