##TITLE=Sample description
##JCAMP-DX=4.24
##DATA TYPE=INFRARED SPECTRUM
##DATE=12/9/2023
##SAMPLING PROCEDURE=Instrument type and / or accessory
##ORIGIN=Default
##XUNITS=1/CM
##YUNITS=ABSORBANCE
##RESOLUTION=4
##FIRSTX=4397.6552
##LASTX=599.8556
##DELTAX=-1.9287962
##MAXY=1.7307178
##MINY=0.15552434
##XFACTOR=1
##YFACTOR=1.6118565e-009
##NPOINTS=1970
##FIRSTY=0.1585003
##XYDATA=(X++(Y..Y))
4398+98333999+97411034+96980405+96631685+96487708+97029735+97463608+97614039
4382+98272290+98870183+98916527+99067539+99631264+100505556+101264843+101368116
4367+101167644+101466322+101844025+101413738+100664066+100209225+99744447
4353+99305452+99525597+100429425+101158436+101268143+101241971+101460591
4340+101848832+102236056+102269430+101877934+101500851+101223806+100774531
4326+100328288+100584182+101595684+102585617+103278666+103577104+103053483
4313+101856560+100565517+99921687+100664371+102010078+102407869+102038922
4299+101892356+102192754+103005161+104322118+105461483+105615999+104665596
4286+103414397+103084749+103441225+103490620+103544905+103657829+103291507
4272+103051792+103725963+104630355+104764940+104461445+104398951+104761667
4259+105267178+105267843+104872049+104696455+104662610+104773685+105488801
4245+106077616+105391353+104163330+103672630+103706771+103678334+103843491
4232+104049038+103721008+103396999+103652661+104161019+104554780+104778372
4218+105015028+105592638+106433325+106741766+106603955+106770387+106733751
4205+106408179+106374455+106017960+105297112+105498286+106683801+107466422
4191+107368012+107093694+106701561+105843068+105200468+105571394+106497132
4178+107057112+107121326+107162983+107191605+107001829+106997382+107089155
4164+106580769+105876562+105834036+106434786+107253646+107599611+107209558
4151+107206184+108058168+108407137+107801137+107382970+107691060+108292586
4137+108586420+108360701+107829610+107333169+107374641+107846408+108215041
4124+108810716+109723872+110007823+109402193+108754443+108665943+109057568
4110+109375392+109290230+109227310+109306473+109263799+109157171+109094085
4097+109193974+109368976+109556838+109947123+110272934+110140550+109835437
4083+109758891+109840633+110118705+110590500+111061481+111255768+110526739
4070+109573673+109588529+109687411+109454120+109751893+110328846+110621035
4056+110909849+111450480+111932482+112078918+111855584+111334367+110930363
4043+111084112+111610146+111692082+111208518+111107760+111600522+111922118
4029+111801660+111628034+111457747+111056341+110747188+110891776+111271909
4016+111729052+112166549+112133286+111775109+111924984+112505599+112694968
4002+112310045+111803046+111523162+111459808+111454225+111387801+111483364
3989+111983365+112306051+112113734+112195235+112545998+112228165+111591453
3975+111627498+112146848+112513716+112837623+113324755+113357749+112737253
3962+112629681+113187831+113107300+112302853+111660530+111258948+111330798
3948+112523367+113244964+112445739+112466318+113631966+113839824+112595245
3935+110654039+110099753+112031141+113498648+112261954+110597988+110485239
3921+110288752+109777528+110797017+113075342+114349439+114038447+112772475
3908+109608544+105129570+103583899+106019273+109645985+112824588+113157721
3894+110116772+108510854+110712530+110768192+109074412+109939413+109913019
3881+110242177+112900644+111831483+108235491+106131956+105557397+107962660
3867+109607370+108934484+110987311+114350835+113747312+107764269+99099110
3854+99808032+111693515+117715174+116828411+113036736+109169475+106399647
3840+104636910+106130764+110288752+112658497+113917582+115439484+115577822
3827+114461606+111241550+105899859+105994229+110019629+112089947+116466859
3813+120077505+118460575+114005887+111988597+112299543+110107685+110961222
3800+116197163+118071613+119318328+121429258+121664065+121017776+120502808
3786+120398010+120911064+120180213+119155649+120970618+123291866+123042536
3773+120777524+119540849+121299314+123759870+126024864+126294338+123284812
3759+121825450+123172433+121639391+116187549+114402329+119968592+121397327
3746+119550417+125519843+131908036+130152122+124685516+122835509+128366385
3732+137279671+142737088+143227012+143129471+145610310+149588507+154287468
3719+158651142+161024834+160800742+160631213+166026597+175238775+182663930
3705+186897513+190838777+198933952+208716492+216457040+222049300+224717493
3692+225920379+231926821+243865100+253427431+258250401+260889565+262075107
3678+261100252+263812856+274321587+281410253+286642450+297598108+307655068
3665+313885029+319167868+323551011+326250913+330454968+336873133+339200065
3651+338502644+344758730+358066984+368887817+375961802+381407497+386229210
3638+390705614+395237634+399366806+401101744+403448609+413695714+424437597
3624+428764163+429128479+430134341+435697333+442215081+446490542+451222729
3611+457291739+463315266+469232478+474781972+478578519+480327065+482168539
3597+485110172+488704112+492754076+495218496+495653848+498013507+503409576
3584+508127341+511258306+513976327+516421888+517976924+518919774+519722253
3570+519414478+518671794+520852217+524446083+526586938+528121081+529706328
3557+530881184+531549281+532746916+534470243+534476196+533059794+534330906
3543+538558036+541423899+541990933+541956247+541776973+541885987+542603969
3530+543166159+543390288+543506253+542738868+541776825+542414341+544269756
3516+545524819+545240674+544322118+543964385+544005283+543704423+543163052
3503+542638433+541943156+542046438+543432333+544348965+543560723+541551439
3489+539905250+539653868+539262779+538005978+537880990+539231347+540004280
3476+539218996+538038889+537699534+537162675+535241252+533118221+532537949
3462+533504872+533808062+532735638+532708902+533313026+531789866+529125723
3449+527240946+526003041+525717823+526488833+526798494+525642978+524076146
3435+523526492+523269082+521732314+520120442+520445893+521630326+521329688
3422+519540280+517887324+517170304+517645297+519137025+520029400+518772562
3408+516488931+515270440+515038065+515110654+515065873+514070143+512799548
3395+512682104+513349868+513466795+512871842+512364640+512330730+512738348
3381+513456700+513951736+513023271+510816371+509508428+509638150+509898888
3368+509474556+508000615+507064864+508652035+510582332+510034712+508294116
3354+507400078+507424225+507359623+506679988+506344885+506980885+507767537
3341+507785989+506978925+505990332+504547305+502744622+502802901+504954036
3327+506594197+506151597+504173708+502700654+502299544+501224938+499282992
3314+497909745+497255293+496721576+496367319+496625283+497462966+497461117
3300+496117970+494996771+493965097+492510163+492831990+495732909+498166452
3287+498420941+498371426+499392783+500630096+500285453+498140123+496341064
3273+496586567+498480144+499817411+498753344+496427262+495327991+495073798
3260+493473574+491657578+491478268+491642010+492068450+493383271+493207511
3246+491010891+489627475+489510548+488812571+487452229+486249343+484370151
3233+481652795+480121019+480316341+480476978+479398969+477873924+477368496
3219+477666139+477998875+478096869+476979737+474821206+473548245+474020281
3206+475150836+475118147+473375480+471924836+472838177+474973005+475703448
3192+474409336+472339036+470715294+469394223+467768151+466543374+466954320
3179+468387067+468409476+466182053+463707020+463120387+464077881+464445969
3165+463342963+461560026+460285143+460152906+460631154+460867449+460345233
3152+459081702+457758709+456908786+456191914+455415690+454996017+454682917
3138+453972146+452459525+450106633+448091580+446957770+446236202+445897179
3125+445672163+444788257+443253448+441901612+440578470+438840352+437384938
3111+436475738+435687089+434610301+432752261+430422333+428808205+428324521
3098+427801972+426407721+424880308+423521298+421852811+420511513+420107925
3084+419740540+419209524+419046003+418445281+417420116+417053063+416715003
3071+415826918+415046627+414228284+413077058+411920839+410500332+408701939
3057+407180591+405910514+404886569+404796932+405082779+404546216+403145973
3044+401599036+400751628+400540294+399926592+398506603+397022937+396311685
3030+396217130+396087963+395650355+394786418+393541635+392439331+391986895
3017+391995178+392284907+392979741+393684854+394060078+394331245+394934925
3003+396181039+397677648+399027192+400590215+403092613+407691824+414616488
2990+421705413+427143601+431184689+433999299+435576892+436468971+437057970
2976+437066328+435636391+432376666+427885286+423388359+419676049+416297955
2963+413048584+410310742+407859856+405658170+404385025+404214848+404638811
2949+405542870+406840089+407877717+408430847+408895560+409629554+410399713
2936+410200619+408639481+406823301+405625111+404045559+401224033+397925924
2922+394117433+389444634+385007427+381335203+377941984+375000758+373229729
2909+372481572+371447162+369571631+367698503+366173457+364658543+363265882
2895+362211540+361595398+361426663+361284627+360875715+360494980+360409337
2882+360169344+359142293+357520732+355883086+354224694+352325200+350509130
2868+348953873+347314599+345687972+344405175+343093867+341079147+338515475
2855+336062260+333594770+330676064+327653818+325180116+323218091+321215352
2841+319072906+317064694+315267299+313793950+312613436+311331120+309897670
2828+308627779+307434378+306053291+304812853+303912140+302856227+301619450
2814+300497899+299552534+299121378+298975386+298265317+297148833+296338478
2801+295702959+294806923+293728730+292732556+291944315+291200115+290172657
2787+288915282+287596967+286231004+285093016+284259457+283337370+282203764
2774+281040686+279967892+278890235+277623080+276409618+275661276+275244302
2760+274801517+274323029+273849200+273269908+272604528+271968954+271389606
2747+270790178+270173555+269669404+269238434+268690499+268072212+267653094
2733+267496913+267359019+266987918+266431959+265906674+265495339+265277829
2720+265192907+264939232+264510592+264233472+264164895+263998952+263684040
2706+263388985+262945239+262233617+261490453+260810189+260189092+259775687
2693+259448572+258927928+258303151+257623368+256773261+255973593+255397536
2679+254792395+254100539+253588640+253108562+252285153+251350752+250725495
2666+250262982+249688385+249089642+248613169+248230197+247808915+247217549
2652+246592736+246284073+246310827+246341242+246140854+245698845+245231802
2639+245072700+245288435+245603884+245719295+245535565+245237201+245170029
2625+245400629+245533198+245330351+245169530+245341260+245529815+245460812
2612+245360618+245468467+245634761+245662366+245550652+245362337+245253028
2598+245275049+245208635+244979754+244732513+244478025+244171008+243881888
2585+243537818+242922841+242272364+241943825+241617006+241048715+240566436
2571+240205060+239736889+239224121+238774606+238315772+237776509+237212396
2558+236733871+236435137+236311942+236193148+236028074+235992038+236093989
2544+236203021+236266347+236300035+236375306+236355947+236164674+236163417
2531+236453534+236748164+236989821+237209235+237393149+237607885+237902515
2517+238282547+238568948+238499187+238147315+237833956+237802857+238028095
2504+238226505+238206056+238042609+237932726+237943395+237998475+238034844
2490+237903735+237616446+237524591+237692160+237781742+237631607+237344300
2477+237006886+236617628+236248542+236007255+235847266+235688330+235486241
2463+235232973+235083559+235036319+234790058+234346349+234033729+233909184
2450+233781903+233596861+233425501+233241882+232946125+232613888+232380847
2436+232084831+231604882+231168088+230847056+230515965+230240436+230157104
2423+230235850+230309642+230245003+230044651+229824165+229683275+229613977
2409+229594378+229650198+229759304+229819746+229844392+229972450+230174447
2396+230263917+230195728+230048257+229797780+229362890+228612367+227233905
2382+224863800+221402077+217215773+212883069+208687501+204500956+200108549
2369+195585718+191375488+187988408+185770064+185200737+186479503+189187208
2355+193228851+198918125+204801113+207458471+205378575+200748321+197294531
2342+196145467+196612196+197793394+198675229+198982265+199259292+200219856
2328+201798817+203415903+204980775+206844030+209115161+211458310+213370691
2315+214622999+215589183+216797468+218232119+219566002+220680897+221603354
2301+222354154+223010991+223676038+224293437+224750774+225140956+225551625
2288+225861305+225967878+225929383+225835179+225659807+225376549+225107398
2274+224924593+224719286+224483084+224330139+224185644+223978174+223836563
2261+223791800+223766100+223791431+223883601+223905437+223832440+223753638
2247+223619146+223495692+223504733+223594389+223784257+223977102+224022308
2234+224096488+224213582+224128992+223964492+223969965+224037913+224076649
2220+224183703+224285764+224289370+224310596+224420774+224552456+224685210
2207+224868847+225054352+225124186+225113777+225178157+225368913+225604376
2193+225831130+226051728+226222570+226279259+226250618+226275949+226356988
2180+226316422+226186553+226126388+226124373+226143435+226169154+226184389
2166+226199772+226236123+226314093+226361555+226379786+226520084+226724577
2153+226817357+226870329+227042798+227313096+227565051+227773353+227987294
2139+228200496+228382636+228584596+228858776+229142385+229359618+229575759
2126+229822205+229986890+230106794+230262290+230331293+230295590+230267985
2112+230270370+230387501+230656041+230872793+230973672+231102765+231218194
2099+231228493+231284960+231519831+231833172+232121921+232355794+232527173
2085+232734550+233018160+233297591+233595049+233919446+234206568+234501124
2072+234783605+234921389+234934627+235002576+235235931+235495005+235651296
2058+235827390+236105933+236359146+236463907+236522907+236673910+236868567
2045+237005758+237066034+237172385+237419534+237764436+238134724+238433735
2031+238635676+238803302+238942934+238997995+239016392+239097191+239218260
2018+239450950+239870549+240276522+240538850+240746190+240960317+241184002
2004+241417930+241678187+241993562+242421592+242806191+242841173+242900321
1991+243513061+244325986+244978071+245520866+246023132+246529150+247016588
1977+247489769+247974803+248499903+248938306+249111866+249324125+249877754
1964+250495949+250981962+251435859+251818905+252008533+252028945+252014782
1950+251973551+251737921+251119431+250295985+250158350+250889274+251437745
1937+251438022+251231181+251033899+251000414+251139640+251052296+250457712
1923+249956667+249778688+249561844+249930837+250952175+251467495+251268733
1910+251188877+251674188+252327235+252782630+253095286+253339809+253415024
1896+253421643+253551273+253390526+253161053+253885950+255047993+255741532
1883+256228691+256777033+257272198+257644113+257872661+257367530+255738555
1869+254729401+256241690+258706923+260187262+260705022+260937212+261274441
1856+261733718+262215442+262530798+262369274+261414646+260128373+260710901
1842+263355094+265214688+265821290+266366192+266717694+265831718+264766282
1828+265495746+266947814+268450783+270457646+272051787+272920661+273644689
1815+274077711+273813571+273777646+274985728+276490897+277044638+276545238
1801+275977446+276607695+277875128+277902104+276827479+277780462+281326533
1788+283955546+284906495+285448864+285952572+286813421+288029435+287971729
1774+286142144+285286527+287944568+291876033+294791965+295883101+296005649
1761+297307047+299214769+300874214+302461773+302452103+301110657+301575962
1747+304458928+307477532+309466608+310734872+312541512+314225530+314031909
1734+315204324+320526620+326013139+330832892+334760418+337550512+339309116
1720+338936628+337894008+341470051+349287348+356217486+360788038+362873721
1707+363893191+366126087+368079200+369104883+373010518+379655031+388667745
1693+398070807+404109680+408501217+411692568+413705625+421369312+434745274
1680+445334102+452109150+457425936+463576817+468912352+473867965+481939233
1666+489833299+494466013+498801527+505022484+510342154+511622548+509466605
1653+513812215+525801839+532608393+539086538+551657544+564014775+572591471
1639+578305152+583056050+593748344+611253220+626037819+637786378+650080523
1626+663409116+678287641+695534885+710246414+721844838+736871797+753309055
1612+764613054+772230555+778886087+784798270+789451174+792504964+793515745
1599+793180938+791903614+788902112+784286778+778612740+771544671+763026735
1585+754066901+745771651+738001871+729421810+718659848+709131426+705163149
1572+701198274+695303397+692677749+693549711+694522403+693088658+688226971
1558+689630172+701993098+713814210+724499256+735215365+746181525+756322908
1545+765524288+774945766+788605911+814093602+838306410+854337640+870617961
1531+887647843+898726197+904900264+909102026+911166631+912240053+914336238
1518+915138606+913622768+911295095+906902153+898934462+888259104+883642587
1504+890418005+896329966+897413003+895936806+897165244+903018927+908672479
1491+912158256+915790987+921640010+928237485+934710786+941211007+946019222
1477+947551553+946295972+944921615+948119549+954841643+958854517+959150348
1464+960486468+963053246+961054760+953338377+950855246+957514328+962545526
1450+962140460+958572590+955601189+953285646+949974187+945320913+938136879
1437+928741138+923409819+922764834+921137837+918357543+915940678+913593850
1423+913230052+913703234+912987544+916067367+924433099+933814196+941735071
1410+946794743+948661955+948915038+950055023+952504578+955187839+957571276
1396+958716068+961073175+967440494+972931783+973456588+971353451+970358127
1383+970606256+971203021+972659989+973690368+973105584+974213693+978466338
1369+981297515+979196967+974353030+970518690+970435413+973468569+975225879
1356+974346891+973080956+972833346+972925127+971955171+969679565+966961322
1342+964069204+959749997+954120850+950373411+949304352+949240674+949259607
1329+948623201+948363535+949835294+951398983+952740281+955060336+956663000
1315+957183145+959289980+963408169+967385174+969359328+969498812+969727786
1302+970715787+971508688+972289978+974152382+977366660+980653786+982122809
1288+983501530+987884932+993837348+999424043+1005436290+1011554002+1015766487
1275+1017593540+1018697359+1020198036+1021719569+1022988906+1023718573
1263+1023211962+1022564240+1023498475+1025199355+1026200521+1026376541
1252+1026169977+1025513084+1024724842+1024984064+1025971104+1026791888
1240+1027799488+1028622194+1028744520+1029112312+1029578616+1028807310
1229+1027244287+1026411375+1026535772+1026148825+1024844358+1023929427
1217+1023595655+1023915597+1024700362+1024273330+1022876860+1022673550
1205+1023961524+1025390166+1026481191+1027109758+1026629476+1025409173
1194+1024319110+1023710216+1023259443+1021497400+1019182818+1019269127
1182+1021402438+1023551207+1025155055+1026203110+1027586786+1030068808
1171+1032434347+1032657255+1032122762+1033836512+1036143476+1036262696
1159+1034937299+1034089003+1035085288+1037554368+1039221967+1039098310
1148+1039014516+1040543223+1043274039+1045241611+1045502016+1045774698
1136+1046220516+1045653703+1044787436+1044667625+1045220903+1045499132
1124+1045246270+1045052575+1044944375+1044762660+1045559851+1047269237
1113+1046254832+1042595180+1041826094+1043761124+1043224487+1041414223
1101+1042197066+1042869268+1041886591+1043120724+1045611178+1046133763
1090+1046364142+1046553030+1045936000+1047122726+1050380417+1052433854
1078+1051896551+1050266744+1048724429+1046527736+1044810659+1046949147
1067+1052331497+1057460911+1060299114+1058866330+1054385230+1050930811
1055+1049837641+1051357547+1054799467+1057871007+1058859304+1057729969
1043+1057104656+1057667845+1056558552+1054137471+1051061716+1045100795
1032+1039584730+1037610058+1036430580+1037282573+1040195473+1039300954
1020+1034132417+1030383868+1031260193+1033758338+1033284417+1029484615
1009+1026361823+1027502770+1032553197+1037771730+1037932588+1034556416
997+1034329144+1036404990+1036665470+1036929277+1039487771+1042276201
986+1042504508+1039960657+1037928816+1039622818+1043800692+1047384019
974+1049600015+1053023594+1059208385+1063656426+1062261213+1059070232
962+1059032069+1060218500+1060543174+1061746097+1063256536+1063905368
951+1065422833+1067605030+1068513527+1068594141+1067889102+1065926042
939+1065208503+1067750431+1071207808+1072178948+1070348493+1067023501
928+1064639768+1065349763+1067192420+1067870021+1068636297+1070984826
916+1073741823+1073252371+1068630898+1065363741+1066094443+1065352869
905+1061540125+1060474689+1063271624+1065279503+1065455079+1065868133
893+1065878487+1064911045+1064133232+1062460307+1058385531+1055752931
881+1058715087+1062548095+1060472693+1053662958+1046333523+1040753706
870+1037777424+1037528409+1038736213+1038429288+1035371135+1031359149
858+1028359718+1027802298+1029695099+1030751660+1028227777+1024452900
847+1022193712+1021606414+1023078986+1023872109+1020859810+1017514997
835+1015550753+1013983662+1015156188+1017825471+1017014894+1013714604
824+1011968239+1010708443+1008297198+1007260236+1008646057+1009557808
812+1009442656+1012558644+1019209517+1023424517+1022970638+1019002805
800+1011875052+1006707180+1007976221+1009586208+1005244296+999332187+996324769
787+994396246+991462416+987365157+982921701+981127930+983301844+984581165
773+980937784+975394724+971940823+970653071+969781035+968267120+965804918
760+963168990+959863744+953336972+946684990+945388289+947456517+948727777
746+947753680+944264944+941175507+939493264+935372782+929574937+925821064
733+922761431+918316423+913172069+908385893+904323246+901751513+899744965
719+895095093+890298489+888472398+886827873+886010788+888519361+892672755
706+896351709+898241404+898440942+897686277+895105447+891873715+891051157
692+892154385+892388165+891191233+890806431+891832447+891974446+891234054
679+891707902+893193417+894170769+894446262+891789477+885564527+886854276
665+895730464+899089921+896952986+894822928+896227534+899807385+901395702
652+898545888+893831747+891530773+892026660+893801054+894877065+895828754
638+898557943+897828719+889059401+881015386+882557701+885778265+881647281
625+875849510+874497415+878062548+880981513+876207688+868882468+864965444
611+861456740+860132970+867496943+879357327+881595658+872067237+866136047
##END=
