##TITLE=Sample description
##JCAMP-DX=4.24
##DATA TYPE=INFRARED SPECTRUM
##DATE=12/9/2023
##SAMPLING PROCEDURE=Instrument type and / or accessory
##ORIGIN=Default
##XUNITS=1/CM
##YUNITS=ABSORBANCE
##RESOLUTION=4
##FIRSTX=4397.6552
##LASTX=599.8556
##DELTAX=-1.9287962
##MAXY=1.6808199
##MINY=0.13906266
##XFACTOR=1
##YFACTOR=1.5653855e-009
##NPOINTS=1970
##FIRSTY=0.18926494
##XYDATA=(X++(Y..Y))
4398+120906281+120577585+120177180+118894006+117566616+118271434+119631113
4384+119862058+119363805+118327892+117841206+118976290+120424117+120839200
4371+120284204+119174945+118582520+119602156+121102823+121415699+121267981
4357+121182842+120080341+118450394+118125962+119236163+120189422+119999181
4344+119429231+119415599+119514646+119272717+119425775+120138551+120364089
4330+120008872+120187813+120861798+120808862+119896574+119130481+119239923
4317+120060913+120769729+120810975+120085720+118768363+117988496+118796397
4303+119893947+119817965+119930557+120956914+121087545+120067138+119587572
4290+120026301+120796897+121749441+122580835+122961393+122732028+121724967
4276+120619221+120133554+119952937+119849045+119790492+119522918+119190671
4263+119377456+120420261+121828774+122385407+121294121+119504394+118770971
4249+119537549+120769700+121068383+120559022+120701914+121590014+122344998
4236+122493516+121880339+120902626+120112849+120072307+120834164+121528244
4222+121665025+121536345+121402629+121335224+121484275+121825128+122399591
4209+123289442+123558092+122533611+121227639+120748749+121099292+121620904
4195+121754058+121565331+121478383+121674049+122016473+122047124+121672993
4182+121544551+121519534+120981188+120524706+120831813+121360450+121526379
4168+121605188+121630851+121165469+120477424+120246727+120316407+120097324
4155+119682840+119623917+120266374+120992287+120734156+120017001+120119142
4141+120910755+121316015+120934030+120469275+120271144+119964274+119568667
4128+119224959+119031472+119307490+120118894+120973744+121015685+120123349
4114+119345957+119246663+119289537+119388108+119837117+120221225+120385964
4101+120485230+120237246+119937878+120076619+120261301+120000914+119244654
4087+118327178+117940529+118377039+119319694+120321043+120623714+120051260
4074+119412115+118932492+118698368+118990454+119123770+118715665+118543016
4060+119113813+119939962+120229136+119880496+119486869+119494047+119431449
4047+118880908+118710191+119261474+119604060+119457436+119081781+118674370
4033+118960897+120046491+120670463+120209593+119394905+118901041+118661615
4020+118501598+118652838+119123037+119688742+120052707+119753920+119284663
4006+119371859+119502309+119482747+119708904+119582308+118833198+118458961
3993+118837281+119415552+119712340+119556150+119119763+118633686+118259173
3979+117945183+117542942+117292578+117398393+117833543+118452298+118897966
3966+118914139+118672743+118654713+118578865+118176747+118024859+117552270
3952+115810511+114181154+114677055+115605744+115051653+115457959+117547568
3939+118866496+118320239+115783124+113622150+114851522+116672547+115304310
3925+113228143+113425760+113230332+111572398+112097609+115666353+118324674
3912+118407548+116864949+112346535+104819456+99942560+100945318+105487092
3898+111590028+114733494+111748055+108441174+110521102+110988217+108132163
3885+108023835+107442576+106774816+110360885+111042847+107181018+103267270
3871+100764996+102913186+105303191+104168907+106504957+112232933+113318213
3858+106432944+93472479+88836046+102105085+113423247+115905874+112292742
3844+106284598+100589634+96283174+97093236+103080638+107259094+109080567
3831+111343186+112530378+111766313+107840829+99820115+97360315+102178878
3817+105540723+111200523+117185659+116850708+111053556+106441140+105719578
3804+102543852+101611745+107544431+111422224+114542435+119286795+121671660
3790+121429121+119806913+117834171+117469140+116937504+115803562+118779652
3777+123818079+124844369+121338347+117880653+119034671+122575943+125850621
3763+126519237+123029912+121071201+123130910+122049171+114474220+108568074
3750+113425437+117446741+117002291+124745579+135069198+135856728+130053589
3736+127377875+134914521+148943932+160654283+166020541+168488841+172956623
3723+179942509+188223877+195818551+199991962+198954602+196315185+203335112
3709+221575239+240359310+253419298+262626671+274716695+289113269+299949143
3696+304584062+300601263+288268900+276079497+272971813+273632044+270760131
3682+263940126+254688184+242903858+233792039+236000294+238818462+238257707
3669+244408724+252543364+255444443+255277553+253999510+250329225+246209198
3655+244702562+239720041+228858580+225537324+237003329+248754946+253697353
3642+254764090+255012045+254363523+252757811+250376402+244862446+238157261
3628+242275270+252682325+256299911+252275723+246437867+246306293+249425552
3615+250315937+250674390+251527174+253228610+257527427+261346268+261420536
3601+259985218+259828437+260259465+261096275+262930904+262532375+257814506
3588+255970491+261798276+267516895+269150954+269313979+269877533+270228048
3574+270157187+269194590+264972727+259352060+260038487+266013228+270070068
3561+271594124+272585983+272805647+271783593+270997805+271199954+270352006
3547+268698889+269348743+272081353+274124584+274606844+274676124+274979900
3534+274596373+272995135+271164162+270257728+269992087+270147953+271187617
3520+272279370+272703125+272932366+272691417+271453926+270178681+269812993
3507+269413569+268561356+268875527+270409350+271011684+270301212+269733698
3493+269713575+269442069+268658433+267886314+267324322+267021993+267477390
3480+268349955+268561109+267927075+267146808+266931904+266974264+266595972
3466+266167363+266018540+265826405+265725616+266078320+266580532+266746052
3453+266601132+265820808+264208204+263072854+263126827+263740890+264721592
3439+265465743+265269477+264640812+264302406+264421262+264638375+264507868
3426+263891331+262879558+262080500+262052533+262493346+262880414+263023792
3412+262906992+262501647+261967279+261727682+262025022+262649479+262835674
3399+262326190+262073760+262412414+262756094+262973759+263118508+263063011
3385+262840529+262758322+262856540+262802281+262608737+262446931+262428863
3372+262679827+262878434+262984268+263544338+264153888+264259379+264593712
3358+265352103+265861341+266239194+266967563+267895472+268307937+268105198
3345+268067635+268356466+268710007+269143206+269678259+270383305+270921214
3331+270988020+270927383+270864099+270847250+271267045+271827477+271563777
3318+270685996+270492509+270990856+271015892+270619894+270915027+271949265
3304+272651608+272247481+271246636+271116148+272078878+272936421+273099675
3291+272658538+271943629+271308092+270982308+271413583+272055937+271652172
3277+270669013+270331883+270848811+271802784+272234440+271778529+271234299
3264+270775000+270474080+270869906+271193310+270607025+269825197+269493016
3250+269339948+268819097+268048254+267941316+268664791+269262842+269320034
3237+269555766+270362934+270773838+269906090+268704106+268699022+269682504
3223+270179652+270064242+270285905+270393833+269743275+268932661+268432714
3210+268069006+267503434+266978072+266676790+266105336+265468599+265122273
3196+264648942+264009673+263355306+262581284+262183783+262247656+261643799
3183+260075098+258341372+257009337+256334180+256181645+256078553+255399722
3169+254031685+252790995+252300587+252216742+251913252+251463357+251267168
3156+251250033+251121258+250615314+249701627+248758563+248104673+247688742
3142+247214307+246609250+246057786+245206506+243811187+242509403+241532509
3129+240708225+240183662+239651293+238697702+237512014+236252476+234913130
3115+233614620+232564657+231920914+231201874+229795894+228003321+226220895
3102+224535166+223115154+221898053+220601980+219023855+217327693+215921522
3088+215081512+214625868+213917166+212843233+211884463+211349543+211194057
3075+210948425+210348851+209612182+208826908+208084908+207646665+207482059
3061+207224318+206689151+206082856+205761737+205810228+205768286+205310890
3047+204782120+204422314+203951458+203098008+202014061+201221838+200801034
3034+200040929+198827102+197956898+197513400+196968314+196210703+195281347
3020+194308241+193578311+193161200+192800062+192258098+191565712+190704742
3007+189746714+188991692+188317983+187482524+186695841+186053507+185603917
2993+185683079+186057296+186173220+186273152+186618089+186852298+186761695
2980+186395797+185940743+185835614+186199874+186496796+186382109+186050632
2966+185556245+184850209+184125972+183400916+182557461+181926645+181843409
2953+181940200+181678100+181106303+180745279+180927000+181250366+181179981
2939+180981316+180846182+180258697+179269827+178456015+177827941+177273963
2926+176853730+176343941+175559943+174652766+173809882+173090176+172446072
2912+171881604+171549157+171478182+171466397+171411796+171256957+170819037
2899+170271209+170027119+170074886+170223709+170366230+170279415+169874965
2885+169396322+169201103+169402528+169643420+169725971+169904112+170081892
2872+169976820+169730673+169528848+169370944+169188766+168955927+168753150
2858+168541177+168222209+167791182+167162041+166350665+165612188+165116449
2845+164835843+164715083+164741736+164867028+165005531+165057563+165002162
2831+164940915+164868760+164772731+164749009+164708438+164494524+164222733
2818+164085123+164072939+164044857+163933940+163902146+164001583+164044324
2804+164101382+164335401+164662632+164881440+164831578+164642242+164602585
2791+164725344+164703336+164460807+164378199+164548954+164536598+164251595
2777+164150406+164241523+164087008+163674924+163217433+162863034+162789032
2764+162916570+162979758+162924814+162879540+162939778+163006754+162890449
2750+162742674+162767481+162770984+162720856+162790403+162794230+162517926
2737+162124480+161901351+161944511+162056666+162014762+161877839+161804351
2723+161802219+161807778+161804827+161708626+161427830+161182502+161212830
2710+161384689+161463869+161386536+161264843+161259379+161355427+161378102
2696+161342500+161407897+161492294+161483327+161422632+161336979+161224386
2683+161014736+160754482+160626716+160589249+160510506+160366557+160135051
2669+159851780+159624824+159533649+159480199+159225010+158735258+158239243
2656+157960322+157824560+157561431+157214810+157001447+156920153+156833348
2642+156592913+156260285+156041963+155889437+155612439+155193996+154727823
2629+154355472+154171047+154031706+153776754+153487276+153303623+153102255
2615+152669171+152205140+151992101+151905648+151727469+151347797+150832010
2602+150448750+150270770+150156302+150154712+150334329+150493042+150443666
2588+150214121+149901541+149677954+149677126+149718573+149618993+149508989
2575+149478433+149429856+149361119+149321033+149254285+149169336+149015535
2561+148716957+148489039+148382339+148135545+147757425+147515077+147431584
2548+147325798+147227493+147131978+146919177+146713611+146594040+146411444
2534+146143965+145970116+145944757+145886367+145691433+145535995+145560421
2521+145579840+145496633+145474558+145476376+145279663+144930700+144717271
2507+144680993+144711721+144855765+145019152+145027472+144933936+144856488
2494+144867112+144992774+145222938+145574586+145983995+146327866+146599990
2480+146807936+146897616+146855551+146751497+146705891+146732468+146732354
2467+146750259+146890905+147057995+147175690+147279344+147310976+147302542
2453+147377829+147539560+147762670+147960421+148033995+148076070+148210471
2440+148456512+148757128+148950976+148993726+149032403+149103892+149153458
2426+149195323+149253971+149334179+149423650+149483878+149486086+149454854
2413+149460099+149559793+149750195+149982587+150180709+150281850+150366685
2399+150587587+150887897+151043764+151054825+151120365+151247522+151254395
2386+150883138+149773346+147685641+144779735+141375882+137603323+133580648
2372+129437308+125201452+121083328+117444038+114659482+113119729+113017265
2359+114361799+117333787+121909363+127870111+133879360+136780449+134918348
2345+130293024+126813046+125739161+126080232+126990769+127862011+128426240
2332+128880599+129883986+131536037+133038332+134215329+135862935+138264486
2318+140793290+142872285+144422081+145743189+147104553+148477550+149790376
2305+150961633+151912997+152744448+153462488+153976657+154413348+154891905
2291+155365150+155828420+156269490+156584631+156720194+156726267+156690694
2278+156654683+156631942+156608820+156532086+156429859+156389060+156488831
2264+156714140+156920763+157044379+157101760+157125501+157202340+157332524
2251+157439576+157528457+157604334+157644905+157685475+157723695+157743485
2237+157786207+157839191+157877458+157929375+157959732+157961084+158031839
2224+158100387+158074314+158072877+158095247+158085480+158116294+158199110
2210+158285021+158304506+158284469+158406400+158666320+158837875+158866718
2197+158891791+158957445+158992171+158969144+158956036+158995284+159034322
2183+159109694+159333147+159583968+159662548+159619712+159568537+159552136
2170+159651820+159848924+159988932+160039650+160058346+160053224+160058403
2156+160062344+160038584+160062211+160183370+160364025+160511839+160576360
2143+160627706+160726648+160823801+160847389+160831854+160846209+160862087
2129+160888131+161002685+161118476+161104749+161065245+161171345+161435502
2116+161718697+161902646+162049641+162261061+162484038+162654926+162873353
2102+163222763+163663501+164146693+164690447+165431590+166481211+167805670
2089+169374142+171212064+173284977+175501228+177752149+179859787+181695367
2075+183356309+185068655+186859362+188462370+189710180+190833670+192141793
2062+193610848+195160644+196732715+198107244+199249658+200315576+201470022
2048+202759659+203986394+205033787+206008493+207090174+208292559+209405787
2035+210221427+210688076+210921029+210921295+210606991+209992130+209056167
2021+207701305+205960706+204395394+203546856+203076057+202447926+201703108
2008+201080307+200550509+200035274+199684360+199651271+199921882+200112741
1994+199759828+199593319+200700264+202583421+204395394+206024161+207636194
1981+209404226+211301909+213365360+215663705+218188396+220662789+222718300
1967+225105440+228717296+232775849+236381670+239716633+242976014+246080670
1954+249007299+251686258+253985174+255665116+256264138+255877851+256183587
1940+257982176+259442740+259546061+258991874+258386969+257805310+257057504
1927+255702508+253468798+251507584+250424150+249291294+249009964+249879178
1913+249630747+247745705+245882195+244971687+244256874+242996023+241458602
1900+239840649+237768631+235595958+234138955+232546475+230691990+230573305
1886+231699555+232245041+232390037+232574347+232759476+232964709+232999397
1873+231670236+228052649+225241944+227382024+231776394+234301409+234981991
1859+235247766+235705866+236237169+236627322+236546428+235416903+232680162
1846+228853154+227897715+231313896+233883023+233648756+232591824+230763288
1832+226315573+221087953+219308592+219531170+220045452+221682291+222635521
1819+221821347+220512119+218945608+216265620+213686669+213346112+214177230
1805+213716103+211167480+208240451+207701114+208693087+207432693+203584038
1792+202916116+207825549+211900589+212433471+211686084+210948196+210937516
1778+211782361+210547896+205541425+201254489+203539717+209375497+214072729
1765+215340167+213722956+213440199+214758661+215736583+216631213+214910415
1751+210138629+208132199+211200492+214984607+216606464+216497336+217180260
1738+217838662+214383130+211532787+217021080+224397100+229773162+232773659
1724+233462295+232322432+227097001+218777880+217381304+225778159+234515228
1711+238966085+238485577+235194744+233254587+231004466+225843575+224569949
1697+229727965+239012919+249297748+254003413+254028087+250885601+243636891
1684+242324332+253558602+263616341+266872047+266446788+267758167+269358834
1670+270537059+277834164+286963328+290531987+293040248+299557563+304860461
1657+302540659+292493696+290810384+304233300+310346812+313009017+324519533
1643+337249397+343337664+342728552+337394698+337902336+350425900+360821665
1630+364135933+365189210+366537923+368488933+373604646+378187514+378172131
1616+380509390+388814937+394912837+396786361+397779971+399702652+401719991
1603+403696551+406334159+409249269+411792600+414641609+418606722+423143479
1589+427881358+433152499+439115723+445971805+453056119+457041870+457098337
1576+461775331+472807471+479618813+484249392+494459876+506652554+515507737
1562+517337092+511124886+516255601+541528829+564063888+580998786+594956127
1549+607796261+617243917+621131239+621561200+625624017+646714715+671756285
1535+685992690+697446605+712875951+725626529+733864642+741285553+747142809
1522+753958150+766642093+781606828+797989614+814924892+826889415+830800192
1508+830091967+842456599+869954570+888815080+896503290+899318983+905548857
1495+917466393+926075753+927341802+929127750+939448199+951869185+958752530
1481+960667558+960831897+959743437+957284980+956340070+961331691+968807890
1468+971658994+971445384+973590318+973930723+966440436+954861553+954217601
1454+964121948+970299429+969334871+964295349+962016081+962807161+961280668
1441+956015580+946910386+936575772+933307805+933998896+929941905+923385942
1427+919388426+917479568+917912575+919203450+920857957+927193760+934924768
1414+940323581+945552877+949201458+948636705+948086954+952525093+958104161
1400+959939837+960258691+961620845+965174311+971180142+975396751+976043368
1387+976354759+978128065+979518853+979938610+980700905+981596011+982819718
1373+986402503+990573953+992745389+993893400+992805169+988370914+985875827
1360+988461080+991802459+992050566+990010190+988394979+987335001+986533563
1346+986467767+984814098+979319941+972364097+968381584+968848175+970944752
1333+971686180+970956479+969824841+969034065+968828604+969370282+970855500
1319+973133703+976478813+980092135+982547927+984307297+985916264+987578310
1306+990306351+994388092+998202154+1000559709+1002394775+1003816024+1005355540
1292+1009373998+1014668785+1018360012+1021208375+1024613189+1029052699
1281+1034812555+1040509127+1044512430+1047524294+1050993534+1054351210
1269+1055652594+1055526484+1056485254+1057727771+1057190434+1056671677
1258+1058918581+1062997352+1065900926+1066667790+1066633901+1066568181
1246+1066124664+1066498881+1068989247+1071904091+1073403322+1073741823
1234+1073731009+1073511992+1072933532+1071586304+1068691335+1065544757
1223+1064248856+1064185115+1064242611+1064796779+1065148303+1063591272
1211+1061087427+1060313633+1061077603+1061073263+1060305028+1059662903
1200+1057813901+1054443888+1051389531+1048856596+1045784114+1042515081
1188+1039551575+1036585251+1033973878+1032983200+1034164109+1036063982
1177+1036762612+1035093941+1031692173+1029298141+1027763576+1024993118
1165+1022596345+1021551978+1019898918+1017892964+1016255820+1014155207
1153+1012323339+1011797044+1012074318+1012193498+1011802907+1010974283
1142+1010451643+1011767572+1012894565+1010606844+1007717968+1007534210
1130+1007445034+1004607790+1002109809+1003658311+1007283437+1009035877
1119+1008163312+1006158881+1004848130+1004847445+1003375477+1000415550
1107+1000711178+1004078449+1007736016+1010380744+1010186477+1010278775
1096+1014249028+1018312112+1019668250+1020096308+1019584862+1020167130
1084+1025438386+1031038092+1031320316+1030265516+1032855338+1035496564
1072+1034984280+1035360097+1037901181+1040627621+1041871433+1039698018
1061+1038269763+1041587382+1044388834+1042927604+1042305127+1045018012
1049+1046746921+1045382939+1043306771+1043806261+1045098125+1041636805
1038+1036206922+1034983443+1038054706+1041920095+1041873870+1038189649
1026+1035249370+1034129079+1033938315+1032673636+1030390484+1030388199
1015+1032029075+1032536256+1031953378+1030691213+1028325892+1026207459
1003+1027089999+1030369390+1033099410+1034581353+1035615896+1036936851
991+1038297482+1038643980+1038913867+1040758224+1042377853+1042345412
980+1043660884+1046652262+1047034704+1045120667+1045678338+1049426147
968+1052666470+1052846192+1051805861+1051800455+1052274585+1054014536
957+1057024876+1057849312+1056138223+1055092715+1055977692+1056875616
945+1056323352+1055930629+1056523483+1057403130+1058087748+1056307817
934+1051159929+1046197094+1044627498+1046348411+1049638614+1052948237
922+1053933204+1051728185+1050367325+1052059452+1053398836+1052369929
910+1051068012+1050952259+1050990793+1050343489+1050206794+1051140282
899+1051304925+1051287943+1051959691+1050551616+1047571357+1044526214
887+1040004459+1035883651+1033378892+1028487413+1022592613+1022594441
876+1025028301+1020849007+1012601756+1008159581+1008769036+1010854266
864+1011979735+1012270336+1011318953+1008653206+1007241248+1009610606
853+1011535990+1008585658+1004276676+1003030884+1004343234+1006430901
841+1007637397+1006199394+1003040479+1001232371+1000650407+998728678+996978218
827+998667147+1002191065+1003804144+1004257866+1005830736+1006732925+1005430474
814+1003019384+1001002464+1000565268+999510925+995397809+990568013+987839669
800+987356019+988277246+988654357+986791266+983794024+980407562+976872754
787+975624449+976973200+977126497+974270291+970803716+968167440+965742110
773+963475711+962367909+962457084+959543382+951388124+944425503+941949074
760+938889995+936167971+939218444+943418147+941299714+935288096+930758344
746+927277833+922981568+919474556+916804773+912879527+909101332+907581769
733+906908422+904781460+900123923+893044407+886199899+882513013+880589837
719+876764961+871850635+869486989+869530701+870363590+871447860+872369011
706+873930078+875043972+873607111+872332686+874172854+876861371+877049546
692+875290937+873608634+873022102+873983842+873678543+871214374+871953442
679+876539775+878768174+877504257+877132096+874253501+864635947+864796630
665+879046362+886342382+883339733+877775211+876238056+879086114+883340952
652+887211444+889087557+888010901+883752560+879311451+878131989+877655498
638+877066833+877201548+875198183+873186517+874068601+874666328+874064641
625+871077222+862803622+853960852+849037159+845837730+842820764+840819912
611+840885099+841445435+838852644+835758002+837127543+837870418+832988991
##END=
