##TITLE=Sample description
##JCAMP-DX=4.24
##DATA TYPE=INFRARED SPECTRUM
##DATE=12/9/2023
##SAMPLING PROCEDURE=Instrument type and / or accessory
##ORIGIN=Default
##XUNITS=1/CM
##YUNITS=ABSORBANCE
##RESOLUTION=4
##FIRSTX=4397.6552
##LASTX=599.8556
##DELTAX=-1.9287962
##MAXY=1.696236
##MINY=0.15603521
##XFACTOR=1
##YFACTOR=1.5797429e-009
##NPOINTS=1970
##FIRSTY=0.20040216
##XYDATA=(X++(Y..Y))
4398+126857450+126675702+125629819+124458190+124253482+125218839+125979818
4384+125583062+124682310+124531868+125624263+126546031+126057411+125446845
4371+125617406+125924222+126406711+126844452+126604533+126310319+126701840
4357+127367955+127397337+126600712+125625452+124813942+124438683+124960129
4344+125533257+124913664+124071772+124480168+125608888+126353379+126304716
4330+125631376+125209642+125757981+126499349+126116516+125341322+125812643
4317+126891446+127162530+126620917+125568554+124578994+124484630+125133096
4303+125997419+126620247+126741825+126910037+127307567+127530385+127418429
4290+126817701+126104640+126309017+127668762+128749027+128130716+126829841
4276+126732628+127344392+127276043+126840990+126537410+126348917+126236254
4263+125874021+125753444+126418804+127143297+127267686+126922828+126715687
4249+127074665+127566578+127288645+126323496+125825792+125911063+126019340
4236+126161707+126161755+126223812+126741249+127116367+127103671+127172397
4222+127068110+126874967+127379472+128003168+127859018+127518056+127531394
4209+127501115+127110906+126782281+126766321+126913546+127399809+127948695
4195+127542496+126278125+125940823+127007760+127460272+126507754+125669399
4182+125591192+125707601+126212946+127307803+127900965+127427390+126860412
4168+126888899+127200421+127360116+127232804+126836651+126395109+126201381
4155+126084577+125779525+125506648+125642742+126238414+126824049+126866600
4141+126464514+126107055+125820510+125517222+125589146+125948416+125923646
4128+125247372+124360543+124177757+124968383+125947379+126353568+126078540
4114+125627103+125624546+125782939+125408803+125036062+125370176+125716222
4101+125416226+125192691+125691754+126240385+126453195+126528270+126036517
4087+125214632+125065624+125522787+125995316+126272258+125924891+125198898
4074+125210444+125688028+125986741+126383148+126127354+124932586+124373937
4060+124873858+125229205+125026450+124757676+124583965+124502872+124696157
4047+125217499+125973451+126550465+126396694+125550670+124726596+124829893
4033+125849128+126462930+125914761+124852852+124188907+124455794+124981711
4020+124721719+124200829+124191123+124498958+124867208+125039647+125073114
4006+125286914+125166261+124498675+124166306+124340631+124486922+124481687
3993+124454634+124535113+124813376+125321758+125698951+125648147+125482151
3979+125124210+124453106+124109606+124048181+123814883+123923160+124414073
3966+124309126+123536988+123255112+123559353+123538657+123366276+123208656
3952+122401401+121223244+121134473+121670172+121343576+121506968+122596487
3939+122837236+122087548+120450993+118829039+119519462+121223442+120802595
3925+119587754+119940375+119923066+118856686+119452066+122080728+123916859
3912+123867385+122552266+118727346+112460652+108460793+109207671+113046533
3898+118189543+120465547+117883001+115482599+117189522+117304968+115044434
3885+115283419+115153079+114972406+117775846+117518052+113742058+110840962
3871+109630829+112103098+114289454+113157149+114581291+118744787+119477326
3858+113783996+102576537+98772538+111024305+121018612+122959917+119648189
3844+114463515+109765565+106262184+107122234+112222072+115466384+116718776
3831+118410748+119468714+119404902+116444597+109340435+107132440+111432436
3817+113847138+117870474+122999261+123177283+118409465+114857224+114880287
3804+112210583+110958059+115754788+119110104+121657438+124946499+126055986
3790+125713402+124968798+123859698+123713605+123297653+122301188+124376692
3777+128045983+128822931+126221529+123700531+124580720+126972057+129639148
3763+130873693+128509749+127095059+129115155+128379804+121988524+117362215
3750+122088218+125764810+125456645+131939800+140654662+141523428+136808141
3736+134772952+141825009+154384629+164200999+168245153+170496840+175110235
3723+181586372+189004415+196308021+200906381+200915833+199761654+206863383
3709+222880946+239460412+252131611+262418237+275189195+288980333+298779365
3696+303199675+300856321+291016917+280016542+276247784+275462138+271375631
3682+264053198+254940390+243806317+235258941+236940367+239100330+237708864
3669+241780637+248546808+252022495+252886638+251874081+248703994+246338135
3655+246381412+242017792+232004148+228891430+238563198+248366815+252278742
3642+252968910+253634591+254082547+253333369+250906952+245471878+240172766
3628+244458962+252419439+254175968+250480388+246332777+247339957+250430584
3615+250960340+250979187+251430539+252380897+255468807+258422227+258710771
3601+257869436+257438080+256943621+257304212+259491719+260390858+257779203
3588+256680318+260967476+265554423+267193779+266803456+265983891+265954405
3574+266730844+266265286+262494735+257936954+258742050+263480183+266630405
3561+268119160+269309957+269603388+268557627+267521168+267261015+266364178
3547+265251578+266247439+268691213+270139162+269926852+268954233+268410874
3534+268507823+268327263+267625418+267019370+266573677+266693283+267771680
3520+268666556+268709682+268420288+267660752+266292528+265466058+265843684
3507+265800483+264368305+263536345+264066403+264010241+263321771+263499011
3493+264001318+263552852+262621642+262055287+261494271+260919992+261349612
3480+262497678+262785035+262024895+261307448+261134415+261120889+260766712
3466+260037549+259508623+259775284+260361674+260281873+259658809+259236547
3453+259139146+258760104+257957631+257729512+258051222+257982703+257843364
3439+257833233+257632374+257554762+257863776+258333843+258420170+257929295
3426+257316230+256850577+256707578+257053059+257401237+257338943+257188361
3412+257073980+256790755+256470177+256202800+256018712+255980981+255822777
3399+255770671+256157674+256305087+255940987+255548098+255411457+255601676
3385+255695040+255562643+255645066+255827229+255915104+256134564+256559618
3372+256909154+256836768+256444351+256415940+257326794+258699037+259422144
3358+259328233+259335175+259997592+261007886+261799323+261833865+261316692
3345+261315635+262231187+263267477+263639689+263838944+264533508+265073037
3331+265304552+265792541+266062918+265852117+265804822+266265984+267053497
3318+267491078+266937079+265913580+265430440+265538123+265761224+265896526
3304+265744566+265054209+264426599+265060171+266638800+267673015+267923206
3291+267798827+267149937+266489651+266605050+267186554+267425049+266736371
3277+265649277+265426573+266045109+266572621+266416020+265769355+265622394
3264+266028036+266071502+265569892+264737763+264131998+264391434+264970994
3250+264874649+263989905+263445188+264247435+265403217+265498827+264718086
3237+263927196+263614994+263544627+263180451+262977178+263604637+264431504
3223+264880630+265223318+265693969+266236384+266096328+264849559+263409551
3210+262538276+262407389+262841310+263120648+262672692+261602256+260677422
3196+260223806+259612778+258841432+258487350+258204238+257039344+255178885
3183+253904987+253517192+253178617+252354260+251279805+250353972+249674142
3169+249320059+249216526+249078357+248780078+248359363+247772350+246957237
3156+246396447+246351661+246167573+245631912+245126303+244673479+244163267
3142+243487324+242713922+242168507+241639355+240617025+239271552+238181062
3129+237494724+236996114+236518973+235833200+234927704+233887999+232464386
3115+230846083+229523871+228531141+227536374+226080142+224251057+222587817
3102+221210386+219919170+218608182+217283159+215918594+214570216+213450692
3088+212602886+211977520+211488550+210850167+209992381+209187455+208686884
3075+208407168+207962513+207233973+206475474+205950830+205652513+205336501
3061+204963930+204735905+204721567+204615016+204198169+203668488+203055271
3047+202508649+202436584+202420171+201660409+200392906+199535931+199204958
3034+198648526+197768252+197129982+196581266+195569766+194325524+193517938
3020+193017083+192265829+191549721+191306849+191120196+190460062+189353197
3007+188210224+187471534+186971792+186201201+185366921+184744310+184140601
2993+183861734+184238814+184890308+185488527+186010020+186242856+186051222
2980+185816745+185850948+186013378+186069540+185897508+185609340+185350414
2966+184996011+184370494+183623239+183038981+182592119+182175912+181847920
2953+181607388+181414019+181310731+181241646+181027638+180671763+180352713
2939+180221279+180201734+179995574+179529866+178947060+178360934+177918467
2926+177576930+176985748+175996357+174927072+174063306+173402907+172704419
2912+171836615+171286522+171271015+171320253+171246773+171141184+171089587
2899+171166935+171170670+170877409+170541928+170464203+170381026+170188694
2885+170219312+170455128+170706471+170889974+170928949+170861204+170682021
2872+170426076+170288491+170341710+170440149+170396137+170186902+169918335
2858+169634658+169228865+168576692+167782934+167029171+166454346+166248054
2845+166330533+166322722+166108884+166011181+166196061+166350209+166383582
2831+166492944+166548842+166430085+166266655+166122090+165972884+165834073
2818+165724372+165577336+165427281+165375930+165264832+164970609+164863039
2804+165283773+165829583+166018765+166042837+166076247+165980940+165927702
2791+166133334+166335004+166267938+166043044+165876784+165863277+165965866
2777+166075851+166022160+165796248+165634497+165575807+165413358+165137510
2764+164942631+164885866+164843400+164748055+164706645+164795501+164966836
2750+165139774+165110325+164841589+164626091+164583380+164587379+164527444
2737+164419874+164378351+164434306+164460981+164287685+164011006+163869932
2723+163854236+163855688+163814675+163726065+163673450+163715802+163831748
2710+163902003+163852802+163773473+163671488+163563069+163606440+163680279
2696+163586084+163526225+163662281+163782868+163736007+163750703+163924075
2683+163929452+163696843+163423975+163153673+162949494+162763425+162473881
2669+162235084+162171828+162138871+161978817+161648241+161185928+160728482
2656+160419280+160225571+160079270+160122887+160362420+160381191+159980699
2642+159492711+159120894+158799769+158594383+158534693+158347436+157842195
2629+157282650+156965025+156754082+156373475+155928990+155778586+155871705
2615+155758193+155316169+154861393+154597901+154407013+154134947+153842987
2602+153630611+153437704+153307336+153378033+153452966+153285499+153087857
2588+153099176+153162563+153075755+152883319+152778758+152835401+152881433
2575+152805094+152615668+152316511+152096957+152082912+152055566+151862414
2561+151595696+151349014+151129412+150940948+150850621+150838113+150729440
2548+150540758+150437961+150331797+150113657+149906865+149800342+149703441
2534+149528022+149367846+149275519+149121739+148851786+148553657+148346922
2521+148291307+148313927+148307550+148250285+148153722+148038248+147953477
2507+147900654+147846416+147827900+147911794+148035550+148089043+148099070
2494+148123896+148215412+148435815+148733906+148983098+149163884+149420065
2480+149761206+149925325+149822660+149688377+149706035+149844308+149985147
2467+150082803+150164528+150203013+150232641+150366990+150545352+150638160
2453+150628840+150606136+150728308+150979933+151214778+151455744+151680722
2440+151731055+151705106+151810374+151966890+152017506+152021496+152078242
2426+152102947+152091891+152231995+152487751+152614838+152610442+152647927
2413+152698637+152715946+152834203+153080763+153335954+153503969+153586806
2399+153689650+153879124+154099499+154289510+154432905+154476560+154324100
2386+153746774+152416167+150126816+146875400+142947975+138751229+134400419
2372+129785269+125066275+120647220+116628647+113183174+110895973+110257562
2359+111541676+114768897+119776926+126566849+133414792+136570278+134425001
2345+129437478+125897980+124915494+125227451+126085954+126987630+127597489
2332+128181455+129434724+131391904+133313486+134885182+136660878+139068751
2318+141748623+144051454+145715703+147115112+148641032+150200098+151670393
2305+153009849+154102998+155053517+156013053+156848484+157410897+157799691
2291+158225302+158728628+159221843+159687627+160028353+160052878+159830965
2278+159664724+159679100+159769370+159819439+159786707+159714585+159705549
2264+159846473+160131226+160433580+160576654+160541753+160523209+160601424
2251+160723728+160866708+160917663+160853087+160824620+160920229+161100298
2237+161224224+161237053+161252409+161327191+161346019+161279745+161289272
2224+161374166+161465832+161597833+161664352+161634016+161646505+161675030
2210+161692197+161788410+161878737+161883189+161891905+161923618+161966555
2197+162033772+162107328+162164810+162206842+162326279+162535325+162648026
2183+162641574+162760765+163019559+163149938+163120621+163086946+163064572
2170+163064082+163173425+163346042+163440954+163447406+163432294+163461309
2156+163571652+163687599+163720518+163711407+163743289+163805526+163867970
2143+163958844+164040908+164055793+164092787+164221373+164342564+164365768
2129+164354355+164461491+164648125+164707909+164681592+164744395+164880678
2116+165022318+165164884+165326314+165523683+165721146+165915194+166177271
2102+166527335+166932468+167326979+167711718+168240946+169003387+169944577
2089+171011372+172203602+173549622+175060356+176690016+178358029+179997970
2075+181541171+183026832+184603518+186249082+187861518+189605218+191679760
2062+193877888+195963013+198039894+200198612+202335409+204310304+206136088
2048+207927650+209667275+211282598+212927935+214857761+216929642+218780875
2035+220267706+221374382+222138068+222547502+222516242+222029442+221142188
2021+219884118+218246817+216523265+215181395+214071398+212780635+211428219
2008+210286604+209374599+208630137+208057235+207708133+207578698+207393196
1994+206758737+206238055+206851630+208242361+209611510+210880503+212166550
1981+213531342+214947012+216407300+218030074+219916868+221792456+223406797
1967+225454211+228472998+231733752+234693076+237501176+240184293+242827397
1954+245560658+248191745+250459901+252232013+253322200+253888424+255136174
1940+257464379+259359360+260048491+260061093+259937601+259828804+259588781
1927+258771555+257093883+255452828+254282708+252989718+252525142+253058973
1913+252631561+250840470+249021818+247988433+247240368+246069549+244510200
1900+242796326+240820280+238900490+237619254+236225202+234662722+234690491
1886+235903285+236684931+237106080+237580467+238132012+238649771+238868136
1873+237920174+235231812+233286291+235229680+238865495+241003783+241680141
1859+241975232+242356330+242732146+242877673+242573866+241472283+239131892
1846+235949335+234978847+237283376+238819049+238168441+236983002+235354927
1832+231755541+227590574+226193164+226354519+226717544+227874440+228338168
1819+227354173+226000757+224454633+222053250+219752249+219148503+219381961
1805+218639668+216331725+213765969+213191936+213921551+212825685+209667011
1792+209155045+213043711+216147921+216558996+216110228+215645689+215740600
1778+216525472+215611429+211689919+208402357+210386270+215151192+218969283
1765+220006101+218697868+218454109+219562785+220558439+221503194+220192018
1751+216396415+214963218+217716344+220987983+222400692+222365339+222996779
1738+223654121+221092384+219094831+223656102+229660644+234169696+236722718
1724+237346480+236573003+232536433+225998965+225220885+232392604+239676118
1711+243398166+243046442+240461915+239081767+237397813+233439628+232881856
1697+237416433+245145546+253628950+257500600+257547065+255048073+249404406
1684+248884988+258446506+266764877+269591182+269670982+271138683+272484760
1670+273599680+280047915+287791743+290864372+293330878+299171537+303795573
1657+302144689+294502281+294037270+305240164+309987390+312405054+322639177
1643+333710089+339056817+338804437+334758622+335807458+346667343+355481890
1630+358559159+359837812+361269499+363279899+368014296+372173189+372485561
1616+374888396+382087810+387220492+389030542+390614095+393346620+396128648
1603+398709987+401938028+405671622+409180002+412858433+417429571+422514373
1589+427757039+433367466+439589770+446677312+453959921+458613047+460309113
1576+466090459+476322658+482707732+488075928+498435166+509937527+518484376
1562+521461056+518480188+525541922+548280380+568289898+584003824+597329706
1549+609830758+619761905+625478619+628512347+634527095+654166928+675922240
1535+688888436+700246403+714760685+726732000+735181767+743260341+750339130
1522+758792595+772130512+786737159+802493910+818784775+830329960+834101964
1508+832938428+842953109+867681895+885710027+893655412+898021673+906581010
1495+917317931+922403563+923813630+929932854+941951257+951616403+956536473
1481+960134010+963049152+963160155+959849823+956294016+959881517+968549669
1468+972221158+970965333+971158815+970448348+963584700+953873372+954186234
1454+963229202+968766167+967670244+962070797+958475373+957896208+956084083
1441+951844673+944335680+934940384+931270857+930976332+926461488+921289529
1427+920669313+922420541+923762845+922898437+920962933+923671160+931915295
1414+940822056+947654162+951748611+952979081+952875699+954081418+956707468
1400+959275035+961730165+963168003+964782495+969997090+975990219+978997498
1387+980352329+982047262+982381254+981067323+980921231+981724741+982555720
1373+985855110+991221005+994470364+993728958+990916368+989732684+992153554
1360+994229718+992643750+989901792+988125888+986672883+985267116+984460210
1346+983981408+982552853+978515678+972068878+967048972+965542842+965463457
1333+965813446+966407779+966423852+966170755+966509349+968328492+972215951
1319+976346848+978118602+978716103+980717561+983414921+985505045+987334678
1306+989547275+993280567+998038169+1001297716+1003325811+1006357993+1009795175
1292+1012148432+1013962444+1016105919+1018836256+1022554229+1028617838
1281+1037091074+1044374061+1048167193+1050232340+1051551024+1051521443
1269+1051006572+1052053822+1054968586+1057889689+1059630806+1060984655
1258+1062499840+1063293390+1064011479+1065836583+1067504880+1068904157
1246+1071170181+1072935671+1072957555+1072928729+1073648176+1073741823
1234+1073350481+1073151264+1072638429+1071327593+1069440988+1068000509
1223+1067023513+1065821114+1064527256+1063639002+1062877599+1061595513
1211+1060748612+1060933794+1060561544+1058898606+1057864033+1058825484
1200+1060194576+1059756599+1056876623+1052885178+1049357367+1046537307
1188+1044384248+1042848613+1041765216+1041196692+1040703628+1039533678
1177+1038461148+1037827274+1036093930+1033855374+1032492016+1030913821
1165+1028954848+1028075121+1027037681+1023635664+1019978965+1018982726
1153+1019720586+1019725491+1017910121+1015562749+1014329034+1013697575
1142+1012603689+1011299267+1010787716+1011446492+1012160280+1011936084
1130+1011431098+1010765606+1007649586+1002835162+1001719317+1004152337
1119+1004509571+1001827981+999330895+999514417+1001420265+1001512629+999840409
1105+1000411650+1004151507+1007131847+1007199460+1007372040+1010137165
1094+1013488547+1016265670+1020773873+1025876031+1027966004+1028948283
1082+1031206082+1031737857+1029471154+1028004867+1029889359+1033330315
1070+1035513407+1037601796+1040918994+1045058418+1048540651+1049472295
1059+1049829679+1050605420+1050435783+1049707809+1048732020+1048680028
1047+1050549201+1054174886+1057455712+1055798584+1049862127+1044004075
1036+1040695252+1041654062+1042771114+1038249932+1033733353+1036527002
1024+1041350934+1039267752+1031169483+1024869303+1025532079+1030528591
1013+1033489613+1032851891+1032252578+1033934381+1036062312+1037272106
1001+1037763660+1037002860+1035790651+1035441945+1036232477+1038173942
989+1040420573+1042768624+1045730929+1047113981+1045024838+1043473658
978+1045924336+1050214078+1054360897+1056528671+1055178369+1053290405
966+1052560393+1051633126+1051696966+1054006154+1057427263+1060849428
955+1062572132+1061387240+1059586585+1060242645+1063055235+1064267594
943+1061570083+1057556075+1056373221+1059330923+1062429360+1060831921
932+1055913964+1051951044+1050761172+1050985820+1050553880+1049951247
920+1050448083+1051874979+1053578818+1054726431+1053979064+1052469538
908+1053767999+1056296477+1055646379+1052773269+1050380697+1050298444
897+1053070435+1054673986+1051812422+1047029465+1043291193+1041018377
885+1041146359+1043097408+1041827321+1036544433+1033330767+1033585147
874+1032836572+1029703574+1026633511+1022759786+1017094687+1014253196
862+1014920952+1015054518+1015880667+1017690680+1015244605+1009092254
851+1005191061+1004857824+1006837322+1010426709+1013572234+1015308596
839+1016387993+1016637694+1016129614+1016328001+1017830358+1017639064
827+1013644299+1010139504+1009663797+1008472491+1005069719+1003125537
816+1004898573+1007535338+1007863066+1004973581+1000241334+997446101+997603513
802+999774003+1002602213+1002591573+998289380+992378730+988683018+987219675
789+985814738+985692567+987416100+987525972+983506607+976713439+970148918
775+965841895+963521237+962723914+963283534+962696899+959936151+956779760
762+953028357+948810152+945524345+941420841+936017970+933240017+933484285
748+933204550+930158332+925088396+921679588+920314344+917964256+914629776
735+910688589+905715092+901278427+897603391+893589987+891555403+892183466
721+889649328+882200478+876749387+876119060+876756330+877555917+879329406
708+880287914+879699090+879587408+880666578+881713678+882164106+882475911
694+882054310+880544935+880161743+881796987+881948060+878361540+876110986
681+879782626+885126486+887306032+888143651+889518931+885685351+873964115
667+872733871+886523499+895411394+897098480+896980685+897247818+896323418
654+893341116+889792403+887664548+889335183+891655162+889055901+884468842
640+883893450+885624152+884139906+884033732+889720111+888980440+877482493
627+870279722+874048480+880357112+878858302+870543836+862904522+857325826
613+855469254+856816765+856550010+859015704+866254772+867691101+860462748
600+852446053
##END=
