##TITLE=Sample description
##JCAMP-DX=4.24
##DATA TYPE=INFRARED SPECTRUM
##DATE=12/9/2023
##SAMPLING PROCEDURE=Instrument type and / or accessory
##ORIGIN=Default
##XUNITS=1/CM
##YUNITS=ABSORBANCE
##RESOLUTION=4
##FIRSTX=4397.6552
##LASTX=599.8556
##DELTAX=-1.9287962
##MAXY=1.7274958
##MINY=0.15757048
##XFACTOR=1
##YFACTOR=1.6088558e-009
##NPOINTS=1970
##FIRSTY=0.16024442
##XYDATA=(X++(Y..Y))
4398+99601479+99256842+99269605+99808262+100354699+100825049+100604198+99185015
4382+97939466+98375510+99850765+100922754+101425132+101799176+101901271
4369+101718347+101954175+102631956+102888531+102863616+103208337+103367921
4355+102725937+101954175+101821673+102066522+102092048+101833973+101814449
4342+102259338+102448208+101910069+101306903+101457298+102282863+103000564
4328+103045308+102623315+102529093+102760067+102677775+102882788+103702352
4315+104067903+103682883+103137529+103189471+104155854+104795828+104261802
4301+103621374+103565025+103605666+103577232+103768723+104060827+104142035
4288+104432694+105356001+106318022+106585767+106022556+105076530+104456414
4274+104524610+105280590+106353116+107072205+106970750+105965299+104661854
4261+104330563+105215080+105880811+105608241+105245608+105480500+106276538
4247+107049124+107201928+107139679+107372747+107373136+106724187+105901984
4234+105735297+106407261+107019153+107022598+106818390+106979234+107780606
4220+108717908+109157480+109284147+109256148+108756326+108232701+108322042
4207+108499233+108197080+107601943+107340635+107730860+108301499+108659761
4193+108843315+109066361+109298475+109407692+109604528+109743031+109548845
4180+109167965+108828579+108723947+108791568+109005973+109630489+110595696
4166+111219138+110942585+110227959+109813653+109677827+109741818+109925621
4153+109665990+108960969+108550535+108781213+109569582+110601467+111121257
4139+110720909+109843745+109256482+109543871+110170257+110004792+109145931
4126+108521211+108577450+109139586+109793527+110135368+110041942+109875773
4112+110034755+110462667+110815955+110946197+110986653+111126231+111366440
4099+111493208+111591830+111863159+112157652+112304843+112236240+112059012
4085+112104007+112519341+112995008+113171985+113153248+113078013+112720094
4072+111959437+111379888+111759981+112689585+112958163+112353941+111779625
4058+111934837+112717528+113444370+113634027+113487883+112978456+112167674
4045+111989473+112798376+113837716+114097468+113301097+112761263+113387011
4031+114086076+114237240+114488619+114778333+114618722+114006682+113424457
4018+113464487+113811570+113923093+113920324+114036117+114583202+115395810
4004+115503591+114715102+113949379+113671900+113529182+113298429+113282610
3991+113570740+113932716+114469123+115153591+115541065+115436739+115166132
3977+114874278+114333481+114001533+114511858+115277062+115532767+115497330
3964+115583874+115799770+115697611+115206273+115048227+115227446+115015736
3950+114580618+114664411+114482154+113684375+114298045+115961957+116308354
3937+115039734+113005131+112366389+114277159+115634167+114232591+112562307
3923+112822179+113196585+113035556+114278484+116854791+118171259+117374471
3910+115286019+111393688+106545422+104971592+107861880+112472485+116271001
3896+116094551+112118724+110459249+113132890+113131890+111662461+113200716
3883+112990488+112573125+115076096+114175482+110370946+107988426+108031921
3869+111499719+113088516+111823258+113911340+117420188+116505041+110039516
3856+101181922+102397323+114807749+120824885+119732825+115762926+111987890
3842+109093980+106641080+108188503+113193399+115760750+116791050+118241011
3829+118436355+117372933+114352848+109518817+110061967+114036580+115655626
3815+119684311+123265365+121462191+116568837+114339576+114963110+113062759
3802+113779394+118673627+120253153+121534694+124165119+124906344+124284885
3788+123382622+122887579+123419985+122982968+122261906+124688818+127727251
3775+127625156+124791589+122792366+124266269+126361130+127760464+127691953
3761+125369109+125004808+126970474+125301256+119181915+116648342+122431094
3748+125080673+124351673+130503968+136668637+134972494+129749785+128247893
3734+133995821+142493161+147376567+147744647+147647239+150187860+154653895
3721+160099215+165174103+167765637+166954160+166286724+172613218+183076549
3707+190593224+194658002+199052285+207890067+218136501+225716454+231000440
3694+233913642+235307104+241454694+254573800+265271051+270296925+272898647
3680+274515674+274685020+278855922+290055579+297315160+302823619+313697311
3667+323476164+329557494+334741673+339554633+343442138+349123166+356738314
3653+359630639+358946329+365208304+379195793+390650654+397831304+403703870
3640+409829917+415912766+421448825+425424059+426355776+428304863+438787774
3626+450057914+455229904+456434663+458249082+464730640+471482795+475474923
3613+479644251+484062910+488977196+496123059+501871662+504124764+506670655
3599+511251140+515827253+520136214+524362076+526343358+525519525+526805641
3586+533172240+539521944+542857288+544880211+547156431+549077621+550849990
3572+553028441+553255544+551388555+552982316+558184760+562767986+565910274
3559+567398856+567458355+567320759+568568346+571040141+571854378+570642877
3545+570982680+573978665+576220356+575584800+574447246+575751775+579083191
3532+582375226+583891520+583032344+581109523+579848341+579997940+581496711
3518+583755777+585323420+584431048+581470110+579604121+580581406+582239779
3505+582966991+583260077+583078209+582864406+583475881+583557423+581904941
3491+580453888+580419952+580265351+579791398+580270871+581127973+581374786
3478+581137383+580185810+579025953+579018765+579549920+579338414+578778102
3464+578076898+576955793+575856657+575033195+574491037+574288681+574488295
3451+574465326+573231373+571809365+570658178+568802710+567629220+567678975
3437+567414639+567224991+567475730+567087173+566626668+567176347+567500071
3424+566481144+565263974+564590148+563852266+562952077+562389357+562276880
3410+561846273+560792225+559787709+559378220+559997215+560474465+559306199
3397+558078544+558570762+559946274+560506845+559947275+559153673+558546051
3383+558490442+558941685+558865107+557888340+556454255+554615608+552229837
3370+549979922+548959254+549104703+549246930+548960439+549387786+550763891
3356+551316015+550908415+550955243+550909378+550220251+550186649+551167342
3343+551925564+552015145+551774705+551023893+550128706+550141191+550481587
3329+549169982+546253649+543810788+542799530+543042898+543980282+544174487
3316+542569093+540248082+539366084+540130677+540955251+540796020+539250458
3302+536633138+534327466+533838138+535208871+536407406+535996990+535332611
3289+536423522+538913100+541168721+542722804+542862252+541230665+539154133
3275+537500206+536942414+537906806+539536986+540400904+539412468+537501873
3262+536677744+537240834+537542144+536567934+535488953+535174898+535273631
3248+534951055+533163200+530299883+527571050+525667457+525363035+526515557
3235+527435936+526801603+524960029+523382642+523086371+523108674+521648581
3221+519197310+517875925+517764485+517431276+516575879+515419763+514229120
3208+514079409+515189104+515733077+514443256+512633617+511989948+512198861
3194+512055115+511181527+510120254+509382150+508690615+507670539+506319960
3181+504979643+504051150+503351946+502877771+502552231+501735956+501169642
3167+501690313+501818721+500541126+499251046+499484040+500710323+500859663
3154+499452438+497800030+496355423+494899591+493716282+492915345+491755414
3140+490314957+489715115+489286397+487586901+485111735+482964256+481602859
3127+481067036+480955596+480759576+479757246+477990064+476778859+475906234
3113+474516013+473291212+471791959+469441829+467099849+464763909+462509732
3100+461092800+460397375+459930572+459218476+458104669+456999087+455877204
3086+454904921+454775439+454791110+453824346+452390743+451171053+449882752
3073+448714040+448373571+448487419+448374756+447923847+446778401+445002291
3059+442962695+440657949+438769472+437912592+437360357+436470097+435446169
3046+434424241+433384975+432463669+431901431+431570038+430997500+430044926
3032+428726504+427207802+425915573+424986710+424258238+423716005+423262910
3019+422567781+422093273+422233202+422233314+422202675+422785845+423428218
3005+423875904+424765682+425970886+426779455+427590803+429812858+434187728
2992+440088820+446419630+452063129+455771433+457738674+459366445+460404044
2978+460026452+458748450+456661915+453535595+449716444+445310566+440587187
2965+436331353+433228188+431135355+429314602+427789009+426990368+426731737
2951+426707508+426756189+426641044+426503226+426508376+426122893+425260678
2938+424707665+424421656+423685663+422719085+421613577+419599916+416894793
2924+414078749+410796236+407060071+403410377+400073144+397145067+394619552
2911+392439361+390724379+389344087+388019441+386607844+385021122+383779538
2897+383197886+382605788+381837860+381348273+381140286+380903995+380484910
2884+379907445+378997402+377728105+376439062+375034986+373263840+371309862
2870+369315391+367371824+365575893+363660815+361637966+360083920+358821589
2857+357020952+354640369+352021160+349281546+346673748+344262229+341842190
2843+339568897+337918934+336888559+335753895+334130273+332536845+331289814
2830+330087056+328886780+327820617+326753639+325637017+324622832+323707824
2816+322735096+321813309+321065164+320296088+319326805+318269978+317525317
2803+317003461+316188371+315133508+313983654+312725916+311579582+310604001
2789+309475690+307999630+306684987+305860802+305060365+304177737+303334324
2776+302170318+300644243+299146046+297830848+296767371+296085987+295743146
2762+295403825+294615076+293368879+292150894+291328506+290850015+290410460
2749+289863727+289316419+288821330+288304290+287728270+287015451+286170260
2735+285638272+285494896+285105190+284464633+284120162+284070259+283885149
2722+283279194+282530365+282048891+281700363+281413687+281342852+281187732
2708+280677361+279989383+279280509+278654586+278224571+277969460+277734206
2695+277260068+276493437+275694296+274871723+273910035+273116618+272669450
2681+272265240+271586634+270642841+269841625+269329920+268645628+267700945
2668+267031379+266729143+266345401+265787646+265277516+264769182+264111268
2654+263390836+262806091+262491407+262483200+262606996+262572282+262338751
2641+262113926+262051111+262169535+262337843+262305389+262065931+261947803
2627+261968736+261805077+261526551+261458198+261664406+261896548+261844903
2614+261623839+261578955+261746560+261917776+261841124+261515566+261324918
2600+261416389+261425225+261142661+260729189+260358580+260081500+259804660
2587+259407803+258848603+258227625+257740335+257430467+257194435+256930543
2573+256545561+255995585+255384110+254820298+254310353+253832250+253359798
2560+252984781+252684008+252282983+251995974+252024204+252026705+251806622
2546+251651521+251723950+251876995+252014738+252163912+252301452+252402315
2533+252545004+252825475+253246746+253512898+253376191+253199862+253263955
2519+253381841+253556040+253874133+254101273+254017286+253836937+253853979
2506+253936151+253801186+253511953+253354666+253318582+253136344+252774330
2492+252442548+252296728+252303712+252344779+252376603+252315030+252024056
2479+251574666+251219988+251101194+251053365+250838358+250479476+250144730
2465+249942097+249861351+249827285+249768713+249575156+249186747+248700697
2451+248270090+247927879+247602692+247289952+247076761+246994033+246869256
2438+246558776+246207007+245922350+245561078+245051058+244545633+244192363
2424+244034521+244043413+244100985+244061974+243879643+243703332+243641388
2411+243572257+243515944+243616492+243756588+243796452+243752439+243612435
2397+243478044+243554251+243800156+243931584+243731433+243188700+242210489
2384+240417077+237525344+233631282+229087752+224365004+219704181+214929288
2370+209975787+205152750+200819115+197418697+195214943+194205315+194826922
2357+197594785+202469578+209120537+215598094+218430458+216152219+211077405
2343+207425635+206248421+206327130+207139867+208288998+209110331+209495851
2330+210419676+212183061+213986309+215598020+217459841+219805692+222329836
2316+224306042+225506004+226650300+228126916+229622760+231009035+232284593
2303+233350793+234198262+234921251+235563420+236129492+236596869+236926095
2289+237248337+237617797+237876187+237935186+237808816+237578082+237339771
2276+237187412+237108352+236913610+236611818+236449215+236381881+236163928
2262+235923377+235885791+235920579+235874992+235790653+235705239+235598671
2249+235467336+235346819+235368511+235560474+235701923+235711648+235706165
2235+235738415+235819365+235940178+236033631+236053452+236054804+236091203
2222+236172727+236228410+236140736+236001547+235959369+236030334+236222593
2208+236476056+236694676+236874673+236992948+237076991+237316653+237691893
2195+237933130+238002002+238019358+237986756+237915847+237883652+237952339
2181+238150230+238348325+238323225+238073300+237795793+237662495+237722809
2168+237866907+237966676+238049904+238139783+238157917+238193076+238382205
2154+238580596+238613217+238573780+238650746+238902727+239250699+239538709
2141+239705276+239826812+239983950+240231745+240500601+240724648+241020957
2127+241408069+241719271+241901843+242047293+242132966+242162345+242286956
2114+242414993+242376222+242347529+242469676+242588080+242630889+242706485
2100+242893021+243134407+243317756+243515147+243823293+244095854+244232894
2087+244382382+244662056+244950159+245131230+245320970+245617390+245926573
2073+246189872+246462100+246710265+246861846+246997515+247202075+247393112
2060+247566181+247811197+248061955+248270553+248459738+248631714+248869988
2046+249128489+249207901+249189266+249332159+249628357+249929445+250196115
2033+250465286+250749314+250968767+251086820+251172011+251293954+251385240
2019+251326445+251316720+251634109+252135070+252534242+252761345+252940583
2006+253238484+253618984+253925444+254188484+254535826+254796587+254703653
1992+254685555+255259537+256073145+256794040+257411239+257880728+258277344
1979+258706080+259225787+259749681+260169933+260433473+260463278+260609394
1965+261250656+261993595+262484868+262900285+263269319+263467339+263535063
1952+263505332+263302680+262894302+262233868+261459809+261346202+262021325
1938+262481126+262465732+262385653+262384079+262432463+262479551+262287088
1925+261691581+261185470+260870378+260488748+260879010+262068524+262689853
1911+262513635+262435038+262901415+263581465+264166655+264605283+264776573
1898+264563122+264389998+264614822+264519702+264172527+264813751+266059707
1884+266898804+267419363+267855064+268261961+268623640+268791986+268133053
1871+266245687+264983541+266428315+268845575+270221810+270756374+271112996
1857+271521782+271901245+272158542+272265499+272073388+271140263+269656238
1844+269925576+272442588+274257673+274858404+275530767+275930235+274852458
1830+273561211+274212938+275687627+277260698+279302497+280828257+281563898
1817+282102944+282359148+281971794+281753805+282747910+284171010+284715317
1803+284125478+283457043+284138519+285491507+285428025+284065424+284712909
1790+288135704+290728479+291580987+291930348+292226638+293022352+294325825
1776+294308135+292273430+291009339+293466685+297605986+300939662+302345369
1763+302456142+303511857+305201017+306734205+308248610+308204356+306857519
1749+307358035+310475556+313910743+316163364+317526095+319609628+321632848
1736+321498217+322790853+328686647+334668133+339697119+343788091+346884883
1722+349101345+349061593+348041962+351799762+360199028+367625565+372617207
1709+375297692+376988000+379660150+381878464+383356007+387853023+394945462
1695+404508290+414532807+421134326+426111556+429581309+431483642+439366757
1682+453243362+463947152+470776441+476671346+483700693+489312664+494345096
1668+503238209+511935821+516852811+521792141+528822156+534265781+535278743
1655+533003746+537371317+549140714+555364641+560701606+571590116+582662162
1641+590536274+595153695+597486376+605141350+621213040+635748244+646798061
1628+657582171+669076784+682327910+699148744+714809535+727076226+741493840
1614+757732801+770151165+778546355+785073445+791129434+795861704+798471354
1601+799127472+798049824+795820655+792844898+788418940+781925415+774163743
1587+766029666+757637958+749430230+741490506+732734692+721825509+711481527
1574+705947616+700855760+694426551+691355359+691647740+691571496+688612336
1560+682205948+682886295+695956182+708749693+719730082+729990632+740526595
1547+750523734+759054001+766966236+778810432+802557361+826501237+843482562
1533+860517310+878269453+890816448+899057964+905688343+909821030+911241593
1520+911016638+909404464+907182112+904372699+899122723+890324452+878739665
1506+874390470+882920440+889718201+891153361+891394913+894618890+899246611
1493+901121973+901475410+905480282+914347388+923464122+930533074+936006448
1479+939736129+940395285+938326533+937883663+943746114+952398268+957203226
1466+957043401+956881058+959186175+959050950+953355659+949608121+953504665
1452+956938334+955629878+951993261+949831445+948585897+946594130+943439062
1439+937029932+926485670+918839587+916754979+915586490+914986315+914893844
1425+914052413+913785965+914279368+915499354+921103507+930105393+937052754
1412+941058070+944027826+944965211+943885266+945252331+950309437+954979170
1398+956283031+955545853+957664694+963925410+969168495+970463021+969743403
1385+970229027+971129808+970294972+969183907+968993703+969966506+973405287
1371+976890674+976843401+974362974+971285854+967657832+965975119+967750822
1358+969409084+968733331+967782535+968407532+969041273+967474223+964021141
1344+960426981+956870981+953437386+951971922+951346776+948589972+944656528
1331+941888535+941220636+942635420+944597474+945722617+947254175+950549433
1317+954023706+955654330+956774730+959304876+961964541+962890960+962512627
1304+962986024+965914879+970204353+973771394+975826660+976515602+977152158
1290+979105394+982170215+985886114+990077559+994445574+998833818+1003272076
1277+1007718188+1011230398+1012511364+1011777446+1011119995+1012252177
1265+1014416216+1015762980+1016273128+1017448731+1018780304+1018598622
1254+1017135899+1015648576+1015315886+1015609601+1015642055+1016789575
1242+1018669383+1018848028+1017435468+1016277500+1016512383+1017670425
1231+1018321133+1018110924+1017508674+1016819362+1016743488+1017150051
1219+1017074473+1016981113+1017264677+1017277940+1017011122+1017216070
1207+1018666419+1020747767+1021417889+1020210796+1019557272+1020910333
1196+1022280881+1021926778+1021178782+1021787034+1023232048+1024262423
1184+1024171655+1023121127+1022673959+1023490494+1024869192+1026636745
1173+1029186897+1032257941+1034325433+1034957766+1035521930+1036362768
1161+1036487693+1035634852+1034667088+1035177459+1038219606+1042092069
1150+1044449128+1045214017+1045495507+1045944008+1047008393+1049470222
1138+1051578097+1051305943+1050805501+1050724885+1049187103+1047890132
1126+1049598704+1052956499+1054007398+1051379965+1048891535+1049635308
1115+1050876485+1050346108+1049485190+1048933844+1049201477+1050722514
1103+1051350401+1049760085+1048008537+1048318182+1049777571+1049970072
1092+1050124858+1051605142+1051002818+1048190367+1046760321+1046115243
1080+1045751656+1048665247+1052557790+1051496962+1048368938+1048944069
1069+1052480212+1057522201+1062979646+1065339890+1064014392+1062132361
1057+1060864955+1059359626+1058042205+1057102227+1054984424+1053526072
1045+1054722644+1055234719+1054650697+1054214125+1050693987+1045794631
1034+1045357393+1048732600+1050397456+1048483416+1045547226+1044273891
1022+1045106579+1044715502+1041241895+1038083270+1037637807+1038127283
1011+1037273404+1036744806+1038914846+1041784943+1042669423+1041644235
999+1039272210+1036679824+1037327420+1042599403+1048525058+1050953470
988+1050433985+1050391973+1051161234+1050295278+1048929472+1049203552
976+1049654721+1049329885+1049628565+1051247482+1054388176+1058631710
964+1061991580+1063545515+1064689552+1066159240+1066365523+1066430727
953+1068066241+1066258158+1060291158+1058785311+1062946599+1064766760
941+1063072932+1064018912+1067569652+1070158852+1072018431+1072150914
930+1069885216+1068638853+1069303120+1070258066+1070933744+1069751918
918+1066690580+1065427990+1067697319+1069337130+1065951920+1061596798
907+1063219642+1069820901+1073741823+1069815270+1063687852+1064922361
895+1070870837+1072722489+1070914331+1067473031+1062148959+1058803316
883+1060431791+1063868498+1062649105+1055708339+1048904798+1045528331
872+1043265227+1039548512+1036087725+1035737771+1036208575+1034179020
860+1031973932+1031385242+1030473272+1029498691+1029397625+1028053751
849+1024616600+1022481607+1022306148+1019547714+1015447406+1016644570
837+1021164185+1022124688+1021077938+1020126030+1016756973+1013882875
826+1016016016+1021136918+1022947594+1019259629+1015694812+1014886872
814+1013492836+1011634071+1012118435+1013168741+1012751286+1013643028
802+1015867158+1015814921+1013588197+1011576202+1012171784+1015819959
791+1016157613+1009106148+1001584472+998774393+998118276+995244919+988755618
777+982226305+979021963+978463355+977697799+975727001+974070296+971424857
764+966829220+963661555+961651487+958436771+958053178+961646522+961274488
750+955367135+950754826+947994835+943682540+939457974+937158192+934827289
737+932257799+929529670+924062815+917506902+914266179+912778560+908957815
723+903733550+900177920+897884065+894073250+889694713+888806157+890561855
710+890753615+890660550+893034725+895778044+896856580+897257438+897642439
696+897118212+894758339+892511016+893519384+896419638+896831314+894803389
683+894371189+895425644+894798943+893784351+895956985+900047067+898466309
669+889184045+887998811+898220608+903997331+904939013+903940796+900737194
656+898426446+896993287+894639341+895988920+900902946+901229708+898806853
642+902294167+908536359+909880381+901899830+882338715+870308760+886396121
629+913875028+919825653+905426118+891638688+886153309+885555357+886229480
615+886889154+888535708+891527322+893910758+895477585+890696561+878263303
602+871554309+874299999
##END=
