##TITLE=Sample description
##JCAMP-DX=4.24
##DATA TYPE=INFRARED SPECTRUM
##DATE=12/9/2023
##SAMPLING PROCEDURE=Instrument type and / or accessory
##ORIGIN=Default
##XUNITS=1/CM
##YUNITS=ABSORBANCE
##RESOLUTION=4
##FIRSTX=4397.6552
##LASTX=599.8556
##DELTAX=-1.9287962
##MAXY=1.8460883
##MINY=0.22041564
##XFACTOR=1
##YFACTOR=1.7193037e-009
##NPOINTS=1970
##FIRSTY=0.24245834
##XYDATA=(X++(Y..Y))
4398+141021242+141354479+141452407+141248213+140988854+140665185+140033207
4384+138971355+138246987+138540182+139279683+139650040+140038364+140907887
4371+141793998+142229635+142199257+142300366+142642313+142503104+141965587
4357+141400856+140855209+140865358+141544909+142095756+142534236+143239060
4344+143411178+143012731+143023443+142858424+141903713+141272576+141286252
4330+141051923+140810799+141284432+141819791+141468779+140661008+140745684
4317+141956322+142805737+142429322+141538773+141027586+141176563+141326155
4303+140868703+140363540+140496240+140999167+141250562+141541113+142500513
4290+143412989+143446860+143466993+144424252+145573137+145330522+143717668
4276+142474633+142041267+141884074+142280319+142959160+142962428+142106642
4263+141479032+142026160+143091852+143716819+143811219+143626855+143178513
4249+142640753+142406225+142250072+142184289+142395833+142515524+142581176
4236+142556155+142317527+142269581+142509804+142897122+143321838+143737455
4222+144141284+144405904+144598735+144748344+144651690+144351562+144432520
4209+144995908+145002850+144252802+143467340+142969292+143373546+144312396
4195+144373454+144201736+145006170+145663620+144930290+143709928+143409132
4182+143867546+144062579+143971350+144214476+144604291+144665254+144439644
4168+144182365+144164754+144217700+144093156+144040478+144093875+144106919
4155+143902708+143374022+143013502+143231416+143918248+144882674+145787645
4141+145993572+145456913+145008518+144825533+144427562+143718786+143012653
4128+142880109+143302424+143693756+144112969+144760972+145178859+145028946
4114+144735977+144915730+145179630+144429374+143099279+142853493+143403213
4101+143302216+143353438+144545581+145441434+145276302+145121250+145333599
4087+145240975+144875836+145033566+145404053+145297224+145001628+144879814
4074+144946567+144827561+144653164+144920081+144984892+144376921+143845384
4060+144087505+144750667+145189909+145540237+145898773+146020440+145659391
4047+144803544+144222952+144393614+144735821+144596898+144001043+143682246
4033+144027556+144361373+144296249+144298537+144423853+144448502+144489635
4020+144697400+145039529+145158526+145063406+145130099+145305926+145542352
4006+145693331+145621065+145773240+146043286+145750879+145086590+144669094
3993+144663009+144891809+144997858+144895414+144844973+144660635+144205922
3979+143970128+143718197+143190724+143381242+144261945+144679451+144981789
3966+145891856+146690206+146709551+146152247+145399720+144919119+144818660
3952+144619848+144079280+143786718+143943486+144025484+144394307+145298966
3939+145812363+145223477+143954233+143340663+143881734+144226047+143546746
3925+143158163+143862250+144170006+143650126+144050887+146063688+147660370
3912+147531579+146135520+143129397+138826201+136507196+137739657+140555930
3898+143433547+144182105+141802050+140137748+142039048+142769596+141484431
3885+141566507+140732519+139878640+142038182+142182469+139397276+137180117
3871+136256010+137905473+139313085+138627276+140053860+143157972+143341781
3858+138679486+130271888+128200525+138147039+145544865+146437841+143611523
3844+140059390+137146247+134595166+134536066+137649754+140240426+142020692
3831+143747214+144220153+143663924+141273364+136385928+135317680+138397567
3817+139990566+143479300+147533381+147258777+143352433+140321921+139757935
3804+137669671+137524846+141887870+144094161+145333435+147804779+149104825
3790+149287646+149000163+148232252+148047454+147724055+146989355+148286541
3777+150547651+150635014+148107343+145627427+146224304+148293614+150129175
3763+150521858+148669726+148228247+150199585+149736977+145296877+143032570
3750+148668478+153355404+155130938+162560788+171276922+173888247+172431657
3736+171623427+174986162+182113223+188604925+190922387+190615230+190742946
3723+191702086+193480306+195735782+197080186+196672734+197141046+204889234
3709+218789206+231944841+242125000+251888451+264694252+277362006+285102724
3696+287899192+286406722+280935850+276164438+276578806+277020285+273168386
3682+266006675+257197337+246692322+237251248+235011356+234024915+231113436
3669+232930831+236988483+238105899+237072535+235482388+233334539+231890985
3655+232045084+229856673+224920415+224641737+231532675+238204113+241692050
3642+243542571+245429371+247049852+247618666+247005252+244489628+241693801
3628+244668774+249563968+249560259+244923237+239417455+237720374+237835975
3615+236829895+237206978+239515149+242852038+247566595+251043005+251291383
3601+250329089+250295080+250679789+250904767+251106308+250038086+247213970
3588+246212397+248446813+250030598+250032696+249655630+249228990+248854455
3574+248771547+248549776+246997383+244723376+244978567+247319361+248693093
3561+248963538+248955703+248715541+247988104+247211613+247236938+247668986
3547+248004173+248247888+248336257+248632390+249169760+249520061+249455648
3534+248943777+248236240+247814886+247942863+248104294+247845550+247563024
3520+247358223+247089512+247061622+247191852+247085751+247058658+247311075
3507+246892061+245816715+245660900+246310005+246410784+246093746+245937966
3493+245855197+245575496+244993405+244352395+244003047+244076976+244385486
3480+244403946+243974949+243480064+243342901+243750717+244228198+244210136
3466+243791278+243325515+243033940+242904179+242996915+243319743+243494711
3453+243322083+242823264+242223180+242090679+242293625+242330702+242544724
3439+243084868+243486478+243574153+243415963+243063738+242700331+242776566
3426+243168157+243229606+243317160+243925876+244405437+244280338+244110379
3412+244254718+244203219+243874308+243767028+243986597+244327677+244527711
3399+244637417+244894203+245062047+245059846+245315677+245858923+246278266
3385+246207804+245636772+245198101+245415088+245965891+246301078+246469390
3372+246862750+247410277+247830903+248081257+248188571+248348772+248764405
3358+249437552+250112449+250436039+250645399+250968244+250928514+250681765
3345+251096463+251960959+252361824+252386975+252849844+253735799+254166582
3331+254166184+254574832+255407970+256139463+256525317+256456154+255817572
3318+254906101+254454742+254611788+254834546+254910209+255213154+255899648
3304+256311468+256129687+256126601+256511311+256812887+257355977+258638793
3291+260488724+262041655+262604003+262787050+263234907+263876489+264684216
3277+265108638+264776987+264834588+266005392+267169367+267534281+267691951
3264+267825873+267738042+267944125+268157073+267604432+267005162+267038721
3250+267172834+266782074+265927199+265218171+264997319+265138504+265339699
3237+265389777+265197301+264709974+264171235+263864129+263681672+263536847
3223+263493010+263074880+262087798+261277246+260760191+260132737+259739395
3210+259695159+259187049+258091300+257305709+257036547+256775134+256548024
3196+256430015+255979644+255246747+254510089+253925866+253652995+253132248
3183+252001642+250755469+249941380+249489467+248663643+247363406+246509709
3169+246700071+247071104+246576636+245872704+245958039+246275320+245859929
3156+245046204+244532807+244404085+244324609+243603430+242186432+241561820
3142+242677121+243496272+242010527+239786754+239307280+239911923+239040528
3129+236898208+236040507+237337190+238321030+236699145+234136893+233388101
3115+234584455+234842835+232562173+230340082+230545281+231516017+229568929
3102+225244386+222903419+224097693+225599732+223695026+220158536+219346961
3088+221741940+223175077+220654426+217265587+216572905+217892868+218075932
3075+216038239+214276659+214721171+216476320+216578764+214381270+212640959
3061+212810225+214075499+214397737+213183008+212129468+212107350+212459316
3047+212286514+211669512+211130894+210764212+210498638+210041542+209179698
3034+208183482+207721376+207940477+207984401+207513923+207158681+208458675
3020+215038365+226647569+233588776+229823374+221630934+215020806+210629839
3007+207659459+205637939+204458641+203918620+203443340+202636687+201953054
2993+202146102+203374420+204634061+204741098+204160480+204100210+205014021
2980+206166781+206013445+204694262+203842714+203902100+204398163+204311649
2966+203049270+201891744+202154786+203815327+204965001+203724809+201633017
2953+200791384+201581015+203164177+203382116+201871688+200481991+200501752
2939+201892385+202596663+201304712+199654069+199125349+200058037+201256922
2926+200562524+198677752+197734265+198075727+198808294+198506735+196945501
2912+195441209+195001118+195756306+196493068+195944431+194922213+194757160
2899+195502103+196318671+196208583+195342874+194910357+195336373+196139525
2885+196537425+196140027+195512053+195311586+195680504+196273637+196424495
2872+196037462+195654781+195642994+195966722+196135139+195761679+195234328
2858+194947105+194834937+194720810+194372155+193813447+193349366+193197988
2845+193284675+193315807+193234909+193228097+193362245+193508023+193674672
2831+194034369+194437626+194632234+194553694+194230988+193908229+193826569
2818+193865328+193751253+193588938+193662521+193847630+193903671+193899822
2804+194005750+194201918+194408799+194598207+194596318+194391188+194405540
2791+194832008+195160885+194961215+194631003+194553676+194461148+194254094
2777+194206460+194336794+194425630+194355341+194086440+193684292+193407157
2764+193444477+193724143+194036050+194226030+194239533+194130607+194106391
2750+194194517+194219218+194257110+194350470+194263523+194062086+194022841
2737+194086942+194203496+194463141+194675863+194684686+194691048+194872812
2723+195113632+195145579+194993716+194940813+194919267+194817915+194885257
2710+195111864+195265876+195415520+195628554+195754295+195757016+195724897
2696+195614289+195491894+195600231+195861124+196044569+196139351+196115638
2683+196040322+196067658+196061106+195941294+195826768+195662598+195358058
2669+195061804+194998136+195075324+195046446+194907462+194739167+194562153
2656+194446743+194456398+194471565+194342133+194163472+194118126+194191154
2642+194191657+194019028+193777375+193589787+193432222+193244547+193080932
2629+192978471+192849194+192612135+192357552+192211236+192144968+192093885
2615+191990991+191849078+191722401+191507581+191280732+191183558+191009698
2602+190733915+190587253+190589905+190664042+190646570+190445600+190248270
2588+190131231+190024177+189924645+189778000+189546557+189340578+189220644
2575+189097833+188930006+188778767+188732763+188781090+188743146+188507595
2561+188171108+187888045+187666742+187393733+187163122+187196126+187374752
2548+187385170+187207601+187025109+186891603+186777719+186705991+186705263
2534+186755566+186827502+186857611+186720690+186433900+186189474+186070736
2521+186001366+185923381+185898662+185933140+185877151+185735221+185667375
2507+185715772+185787205+185738029+185602668+185561170+185603760+185681069
2494+185889926+186179871+186356417+186416479+186489681+186623291+186845391
2480+187118227+187206613+187024745+186814554+186764614+186903979+187116494
2467+187200078+187189400+187260851+187427187+187550813+187496714+187373833
2453+187429423+187634501+187836338+188061367+188325415+188582790+188830197
2440+189023904+189119414+189153857+189195250+189321303+189509636+189599200
2426+189587413+189626328+189774083+190038841+190301069+190429150+190556710
2413+190797531+191056275+191209420+191245718+191283506+191399383+191601670
2399+191943513+192622362+194204692+197817832+205143280+217949168+237210982
2386+262489669+291935385+323098150+354402950+385840389+418512629+453707097
2372+491438216+530091951+566752871+597998839+620979634+634942962+641698764
2359+639901789+623033776+592682795+558470329+527221102+509456162+514619911
2345+537602751+551467968+543233511+528663945+517951426+513406014+515778200
2332+520844220+520567813+515024832+511116581+509639382+504912622+494214421
2318+478613347+461980418+453645076+456809285+459868033+450633476+429420744
2305+405235344+387264650+376184027+366486931+355459905+342683779+327411842
2291+311206680+296786533+284481336+273534115+264123861+256533273+250553945
2278+245662876+241363260+237455356+233937916+230964364+228511853+226252581
2264+224016692+221922993+220140804+218678338+217375883+216175749+215102934
2251+214052063+212936156+211799118+210834276+210207931+209746986+209237802
2237+208751948+208433680+208264865+208098927+207878525+207669495+207516246
2224+207421100+207382965+207407961+207511028+207635902+207704839+207749440
2210+207807786+207911841+208111667+208359768+208557184+208712046+208933383
2197+209208317+209436397+209663368+209947506+210229876+210480923+210743498
2183+210982013+211076379+211067799+211122193+211212485+211202986+211178077
2170+211326127+211578023+211687141+211585130+211418534+211300403+211244293
2156+211243652+211189414+211031068+210898949+210791357+210634953+210542823
2143+210679033+211008881+211371576+211774261+212250979+212665295+212958135
2129+213213880+213466384+213745079+214080283+214386245+214611517+214836789
2116+215125589+215369305+215527200+215828880+216323573+216763232+217002041
2102+217144804+217375588+217791031+218361439+218956427+219575439+220261604
2089+220928614+221602835+222440117+223462664+224560527+225771147+227105827
2075+228501348+230132092+232087413+234184318+236343955+238756650+241468876
2062+244351754+247510935+250906483+254339246+257830251+261412502+265043514
2048+268648837+272091064+275244127+278183791+280986847+283514033+285646940
2035+287377596+288768507+289801489+290393461+290572711+290435790+290029587
2021+289344081+288406124+287232841+285917749+284571057+283097255+281419641
2008+279625733+277817820+276013494+274264325+272746374+271473265+270090415
1994+268364352+266764758+265820335+265265319+264659792+263952810+263271932
1981+262689304+262190242+261819937+261619764+261533077+261377921+261027255
1967+260866431+261261922+261865161+262371746+262810728+263158846+263530052
1954+264074026+264726181+265371386+265920768+266184192+266224424+266903135
1940+268549790+270182787+271307951+272176070+272956843+273731618+274519100
1927+275019219+275013395+275052015+275308661+275454422+276201966+277604127
1913+278391799+278332707+278290464+278821629+279643344+280307633+280738833
1900+280967363+280897924+280793764+281080658+281203954+281013125+281646785
1886+282944612+283838264+284366187+284888875+285324442+285577483+285684018
1873+285054518+283078448+281410627+282448584+284792585+286073563+286160909
1859+285859541+285592304+285294766+284881560+284340983+283485466+281840388
1846+279433898+278511056+280065599+281195218+280874367+280389311+279802574
1832+277702999+274882281+274120142+274817105+275566486+276563674+277200506
1819+277132869+276763621+276114776+274930105+273884868+274009464+274629153
1805+274590100+273660168+272327881+271897808+272445249+271849932+269751016
1792+269656268+272703005+275167337+275807532+275655409+275328942+275593493
1778+276447415+275871841+272820147+270338637+272487145+276841017+279797027
1765+280422055+279672431+279895068+281041397+282031564+282954059+282445880
1751+280236824+279356000+281328499+283949271+285306865+285409222+285919881
1738+286547959+284992653+284161837+288175669+292885597+296277990+298348530
1724+299221710+298993422+296187957+291628955+291552443+297219154+302683092
1711+305525166+305515390+303934915+303316370+302546119+300031864+299863448
1697+303451991+309520225+316156666+319479584+320059994+318430222+314164025
1684+314140693+322035336+328610311+330662061+330632455+331945744+333309129
1670+334494597+339687432+345767523+348320848+350403522+354914405+358575578
1657+357748783+352480788+352575154+361572202+365838572+368437000+376830687
1643+385741342+390314385+390579005+387974822+389456736+398462589+405607539
1630+408159650+409418858+410980300+412825187+416325396+419168961+419048802
1616+420661726+426613199+431715967+434651575+437577615+441475292+445525092
1603+449592364+454043168+458624565+463137736+467974705+473346114+478959783
1589+484742631+490669282+496960118+504142613+511632127+516964466+519786884
1576+525590394+534737206+540801974+545687097+553972585+563352644+570930596
1562+574514320+573755579+580650399+599232393+615845804+629351099+640975245
1549+651803625+660672921+666181511+668859468+673774474+690969959+710378366
1535+721986634+731343569+742775655+752639504+760180188+766863742+771943907
1522+778265112+789229112+801837411+814804938+826733607+834786405+838022792
1508+838169021+846992209+866809280+880790289+886805377+889441871+894430997
1495+902723766+908969951+911852725+916011764+924350641+932910700+939231559
1481+943825749+946864944+947653986+946230175+945241239+949057342+956570569
1468+960912585+960643354+961489042+963346756+959434623+949958430+949224580
1454+958708469+964309276+963201914+958971252+956019280+954014297+951599539
1441+949705216+945999495+937530821+929908252+926553994+922588264+918149386
1427+915696910+914666302+916306371+920084271+923510569+927285279+931780526
1414+936715917+942390636+947006251+949047081+949675332+951705415+955990090
1400+959586260+962042134+964830404+968621130+973916374+977009999+975846128
1387+973931628+973651581+974187269+976079790+979639351+982427759+984160253
1373+987194734+991115534+994334865+996463266+996561584+994394910+993391274
1360+994658108+994186139+992286131+991806119+990825780+988394659+988101161
1346+990051993+990980468+989959429+986195882+979433909+972991435+968668417
1333+965222428+963059082+962941766+963518917+965201697+968657046+971607492
1319+973219550+974381964+975029769+976222899+979255439+982444261+983906276
1306+985695694+989890510+994359687+996691588+997129999+996649016+996623639
1292+998142371+1000850072+1004596770+1009798688+1016591863+1024251042
1281+1030518998+1034511838+1037149164+1038381261+1038912442+1041185547
1269+1045722119+1049146960+1049281610+1049042402+1050428979+1051352393
1258+1051399611+1052727391+1055370195+1057666319+1059230188+1060318205
1246+1061202860+1063231279+1067097512+1071133896+1073505457+1073741823
1234+1072392895+1071348975+1071993382+1072176013+1069623623+1066105456
1223+1063533791+1062433016+1063423894+1065225931+1065948965+1065812373
1211+1065766750+1066129654+1066074185+1065258866+1064876410+1064340929
1200+1062962464+1062524539+1063137953+1063386869+1061692232+1056602292
1188+1051417153+1050713533+1052384873+1051587303+1048378650+1045897538
1177+1045348329+1045091856+1043745702+1042503620+1042605821+1042811263
1165+1041635883+1040775772+1042042329+1043180407+1041204892+1037743510
1153+1036711377+1037295115+1036409143+1034578539+1033330217+1033067851
1142+1033701927+1035248531+1036353466+1034765607+1031846709+1029827789
1130+1029381544+1030300728+1028583211+1021657883+1014078302+1010581420
1119+1011417818+1014687417+1017598203+1018004025+1017534899+1017897456
1107+1017048439+1015672609+1016378031+1016314797+1013695776+1012424019
1096+1014203106+1016600530+1017725503+1018271869+1019061465+1020770731
1084+1025698357+1032134106+1035077341+1035215111+1035164218+1035878724
1072+1038231079+1041683031+1044523788+1044125731+1041586585+1040273088
1061+1038829378+1038428686+1043644056+1050625962+1052532489+1051721329
1049+1050273112+1046509288+1044285134+1046645117+1051006338+1053681937
1038+1052605984+1049853492+1048041956+1048021710+1048445559+1043844921
1026+1035464096+1032628747+1034982975+1034631304+1031763436+1030996652
1015+1032815122+1035241528+1036074944+1033806693+1029929782+1028242287
1003+1031843173+1039951578+1044121363+1039989574+1036752424+1039959690
991+1045344863+1048810058+1049674259+1049347618+1049943767+1051092939
980+1050107954+1048866566+1050548791+1053483984+1056359200+1057585820
968+1056349979+1055851454+1056797680+1058443226+1061306587+1064874052
957+1067480454+1066993231+1065300883+1065945429+1067541053+1068083953
945+1067075325+1065046560+1065949589+1069994362+1071997820+1071478564
934+1069767981+1066083684+1063425766+1063715035+1064165510+1064167520
922+1064676098+1064961415+1063748108+1061150859+1059896089+1061307835
910+1064328587+1067579327+1068210283+1065038031+1061474726+1060944862
899+1062982294+1065935236+1067093907+1063657278+1059802555+1061174294
887+1066108853+1069931613+1070289386+1066608556+1061244601+1056908964
876+1051174478+1044566707+1043120778+1045871052+1045503711+1042393030
864+1042171779+1043997183+1046555396+1049531358+1048057695+1041657585
853+1035140852+1032521901+1033627460+1035165189+1037452300+1039790857
841+1038630176+1033938847+1029536648+1029127012+1030152697+1028512073
829+1025640670+1025046809+1028621346+1033081787+1034480706+1033388043
818+1030521910+1028180163+1028373817+1028785325+1028485379+1028712523
806+1028217673+1026470896+1025553861+1023988744+1019782280+1015985105
795+1013632819+1011492909+1011249332+1013073487+1012299977+1006677330
783+1002128485+1003029088+1003953334+1000489249+996202771+992253751+987567830
770+983943232+981850400+980627663+980276547+980411821+979058525+973978291
756+967203768+963249756+963844379+965506636+964287088+962854472+963719020
743+962364129+955825764+949205374+945511718+941692841+938587637+938816029
729+939787632+937397072+930399080+923030695+919926393+919267218+919263335
716+922629865+927502300+927722857+926191090+929089812+932763777+933184368
702+933624581+936511515+939863000+939619215+936328400+938632220+946954388
689+947806109+941310385+940627080+944096366+942758463+936397735+930370097
675+932338055+944456496+956357916+954756398+939139203+931190825+936185152
662+943539738+944536926+943698587+944267834+941092254+938810829+944035351
648+949639000+949943246+946517503+938822686+930691677+929561781+936278963
635+939945648+930779179+915430868+905465789+910345365+927171845+934348863
621+924932091+924366311+944889013+958889921+946611245+934023539+935186231
608+937073135+935594203+936442873+934242987+927686594
##END=
