##TITLE=Sample description
##JCAMP-DX=4.24
##DATA TYPE=INFRARED SPECTRUM
##DATE=12/9/2023
##SAMPLING PROCEDURE=Instrument type and / or accessory
##ORIGIN=Default
##XUNITS=1/CM
##YUNITS=ABSORBANCE
##RESOLUTION=4
##FIRSTX=4397.6552
##LASTX=599.8556
##DELTAX=-1.9287962
##MAXY=1.6703566
##MINY=0.11614726
##XFACTOR=1
##YFACTOR=1.5556408e-009
##NPOINTS=1970
##FIRSTY=0.12240027
##XYDATA=(X++(Y..Y))
4398+78681573+78688786+78854135+78326674+77808428+78394511+79143439+78996069
4382+78423487+77814037+77622489+78473824+79639869+80251796+80803784+81567233
4367+81828552+81582971+81766395+82393662+82482505+81784058+81111464+80917494
4351+80832961+80999862+81586266+81768751+81801233+82864603+84107557+83951806
4336+83047242+82772302+82780233+82209318+81683146+82136060+82856950+82853569
4321+82699120+83189794+83862225+84047690+84041377+84034423+83800442+83734396
4305+84049222+84437997+84803619+85209712+85444383+85089000+84786828+85368481
4290+86187496+86543415+86815616+87528479+88053828+87613319+87063879+87228031
4274+87612610+88080821+88947376+89439037+88529626+86803422+85705376+85852650
4259+86927487+87934783+87975234+87557168+87427787+87438439+87545319+87603941
4243+87717670+88434547+89097514+88960241+88809518+89271168+89831719+90084197
4228+90179678+90265102+90422922+90566231+90596126+90799369+91174484+91158085
4212+90742365+90920703+92214645+93655113+94220981+93902428+93204125+93031103
4197+93727778+94054338+93445951+93230007+93905177+94426724+94154015+93749637
4182+94101447+94679853+94610205+94253683+94134685+94124829+94107232+94204122
4166+94371138+94592580+94768610+94590780+94409961+94656471+94931354+94749002
4151+94324384+94513287+95563429+96597661+96964711+96983361+97036073+96948791
4135+96634913+96223619+96056833+96566501+97096812+96743402+96114890+96275038
4120+97187226+97969028+97999728+97645131+97736675+98123735+97898298+97360966
4104+97582878+98343444+98734393+98948297+99462937+99748701+99660154+99745415
4089+99818501+99666697+99710951+100010001+100132973+100107130+100204268
4076+100247919+100349425+100646895+100989844+101530596+101763839+101318004
4062+101120882+101562627+102232185+102992262+103513808+103563580+103544796
4049+103342060+102698567+102440284+102972645+103613044+103937277+103981493
4035+103834362+103605104+103264079+102812296+102692293+103238063+104077989
4022+104598817+104749587+104904400+105112470+105095276+104647295+104251184
4008+104747078+105810123+106133828+105437603+104826294+104771973+104715688
3995+104475481+104335343+104508307+105100344+105999131+106638085+106663363
3981+106538551+106541253+106310691+105651239+104902513+104747681+105355992
3968+106162795+106565803+106550716+107024072+107850156+107853930+107103997
3954+105699516+103594902+102394133+103651024+104832932+104036772+104966537
3941+107971204+108955846+107019895+103354474+101332889+103839305+106701180
3927+105377257+103095445+103328018+102776605+100702021+101981613+107222439
3914+110930303+110975697+108469923+101595291+91189714+85075734+87003379
3900+94307353+103519718+106940391+101467385+96951329+100326216+100913664
3887+97272870+97771082+97685620+98011146+103311724+103238523+97033056+91403848
3871+88611170+92668325+96439046+95255107+98389298+105043953+105393838+95413483
3856+78186709+74662005+94904657+110023814+112617703+107477618+99576397+92008864
3840+86059399+87357651+95363204+100546135+103244692+106648267+108105355
3827+107243081+102394248+92495217+90431888+96542037+100105511+108040046
3813+116647856+116125323+108560912+103435157+102838676+98261766+97507369
3800+105855143+111000181+115008446+120619185+123209933+123002571+121418124
3786+119760533+119802344+118680102+116567662+119567558+125013801+125690083
3773+120777618+116091855+117137830+120453980+123467085+123770541+119059624
3759+116555411+118657017+115446656+103971368+97036197+104376934+107917112
3746+105237368+114932486+127662615+126606381+116236476+109379890+115980904
3732+130948965+141337003+142570569+141009686+143186093+148498875+155470176
3719+162552285+165943120+162425711+156430996+161010004+175832228+188392132
3705+193540465+195431951+202801894+213832257+222014691+226828418+226693644
3692+222470910+226454768+245480588+263557877+272088156+274839032+273911594
3678+268549194+268668891+284443438+297770853+306934635+325758611+345425520
3665+357773656+366239010+372913743+376659511+381459176+389855984+391289124
3651+384820834+390745853+417336735+443682860+459643274+468861368+476298917
3638+483516883+490470741+495237877+493847496+492530871+508517417+531568398
3624+543943202+545322472+544655980+553744989+566445549+572988631+577804886
3611+584471151+593612116+606505171+617969530+623942674+627248315+630341039
3597+632410212+635104688+641206379+646257085+645706189+647814367+659101556
3584+670119543+675984447+680058882+684559995+688719260+691039473+691034722
3570+688392508+685527606+689870018+699952119+707323344+711410500+715450375
3557+719128172+720871129+721977365+724013126+725425347+725991185+729814580
3543+737061971+741343308+740514168+739625946+742856374+747798342+749522294
3530+747566918+744309286+741807611+742588475+747303310+753337030+757682430
3516+759793366+760793315+759812753+757680820+758951658+762381709+763553846
3503+765000551+767891967+768519493+769164567+772709793+776161760+777191135
3489+776617174+777083317+777204546+774297420+773073021+775821062+778508718
3476+779911359+781214688+782086282+780828395+778127405+777285467+779218928
3462+781884284+783097802+783017647+783588390+784813249+784884592+783332214
3449+781637075+780096422+777457196+775438523+776001066+778556075+782914272
3435+788119465+790701218+788188279+785366903+787376151+790414544+790161051
3422+787036525+783808395+783080560+783283324+782665301+782430888+783684331
3408+786794297+790266034+791430662+791244680+792036272+792963805+792404404
3395+790349408+787720068+784735852+782144444+781750871+784131469+788084368
3381+791584536+793276687+791684845+789138725+789906638+789493447+784347643
3368+780283706+781662592+786209301+787538301+784974862+784377989+786400647
3354+787588953+787046564+785194025+782965462+781465729+780423556+780876365
3341+783090446+782423455+778050162+775903363+777306158+778234458+778460824
3327+779932969+781322737+781275916+779742313+777168453+774731455+772619063
3314+771138258+770460233+768924101+766594385+765795131+766710480+767687057
3300+767583146+766633926+766198513+765968162+765086607+764296471+763379053
3287+762287377+762695050+763578751+762216340+760870865+762160554+763271081
3273+763240582+764730659+766904661+767298618+767319308+768496657+769013452
3260+767070566+762487535+757739213+756916356+760168471+763067474+762600488
3246+759743020+756401554+754404490+753030202+750831064+751057737+753845395
3233+754068236+751481043+748861894+746707202+744102920+742028077+743235771
3219+745615067+745583878+745239808+746356389+747117634+745767408+742734532
3206+740660915+739865339+737799385+734800993+732916576+731257299+728969960
3192+728006563+728094688+726403457+723946841+723101915+722237525+720148505
3179+719981298+723378397+726250579+724764410+720099078+715018717+711478318
3165+711178157+712921881+713183343+712478881+711914192+709052585+704740749
3152+702236086+701124793+699712649+697947239+696537930+697016410+698984507
3138+699254706+697950764+696143974+692930404+690383594+689024325+686088847
3125+682628374+681387882+682391509+683745338+682859797+679479940+675867662
3111+672568649+669473779+668016347+667475643+665848015+664109272+662547393
3098+659923187+657201737+654748186+651704659+649117925+648420283+648403960
3084+646526057+643318388+641370100+641176301+641101165+639637794+637323481
3071+635904977+635780568+635438145+633712966+630975768+628108874+626151697
3057+625264969+625171403+625510186+624511846+621298467+617393807+615133327
3044+614993055+614787379+613937242+612972849+610617884+607270402+604725738
3030+602873928+601138212+599523151+597810386+596078311+594933798+594219412
3017+592652168+589824202+587169574+585946937+586151310+586715884+586139240
3003+584468163+583010040+582553783+582972492+583810329+585634745+588789462
2990+592757113+597456163+601213463+601854361+600376392+598796197+597710537
2976+596801893+595401320+592926428+589347523+585223776+580934967+576710375
2963+572977634+569569577+565972816+562599664+560273511+558904012+558172078
2949+558597031+559815913+559832964+558153380+556385250+555519212+555322617
2936+554974485+553851774+552098855+550085546+547922003+545486882+542955437
2922+540258049+536441782+531453798+526689306+523093083+520671525+519074319
2909+517657271+516258384+515034061+513493063+511356648+508989958+507293362
2895+506720550+506138773+505035832+504060481+503209769+502445688+502067939
2882+501514553+500002138+498245043+496713815+494772386+492629380+490258782
2868+487463422+485396970+484228395+482747284+480867963+478691508+475856952
2855+472959252+470089944+466697097+463425441+460991892+459250850+457520767
2841+455111509+452547420+450847069+449558951+447735494+445855675+444538859
2828+443451283+442170062+440362007+438207162+436264966+434585497+433233432
2814+432006963+430223009+428287135+426933919+425669251+423958976+422151880
2801+420540842+418818843+417005309+415474120+414090253+412639679+411084044
2787+409308596+407312452+405325734+403470130+401691387+400229701+398949821
2774+397282881+395466742+393825397+392071788+390402320+389389918+388784730
2760+387904439+386716170+385636870+384988118+384629833+383954873+382804191
2747+381698147+380814446+379955880+379264253+378694391+377940387+377217495
2733+376629893+375833589+374785592+373576940+372388327+371651948+371334698
2720+370945684+370210110+369238015+368368491+367584716+366518711+365286304
2706+364287504+363444838+362598877+361775983+360670437+359193732+357859444
2693+356835624+355828012+354670932+353457721+352340642+351287204+350370284
2679+349720114+348959864+347768684+346464780+345411075+344692780+344154759
2666+343573786+343052814+342737174+342472340+342161948+341829603+341403001
2652+340945059+340644208+340548420+340611985+340648231+340444088+340078446
2639+339879744+339998597+340086109+339850432+339517933+339284096+339134705
2625+339116888+339056734+338768680+338459745+338083911+337489452+337028022
2612+336865604+336638587+336112826+335571049+335159314+334504163+333588163
2598+332779789+332055249+331289406+330583832+329876725+329088122+328310516
2585+327472602+326578594+325816658+325238865+324900964+324732952+324333669
2571+323592961+322918690+322485882+322128555+321744483+321329473+321006725
2558+320839479+320750741+320782849+321044638+321362539+321435893+321356466
2544+321329741+321351945+321439380+321627239+321797358+321767702+321732376
2531+321971731+322255493+322326568+322284996+322228366+322093841+321865559
2517+321574287+321227650+320838100+320384946+319983039+319666384+319198862
2504+318608808+318140999+317748115+317231454+316625059+316136139+315846725
2490+315675226+315495260+315257533+315023773+314787866+314495426+314228675
2477+313961638+313529845+312992417+312555241+312343684+312274238+312144694
2463+311916795+311658302+311354080+310939222+310526414+310267212+310047417
2450+309715244+309197836+308578605+308218768+308194726+308155587+308006598
2436+307844448+307631684+307447963+307347845+307106747+306618363+306222989
2423+306224042+306453473+306626466+306591830+306343394+306073138+305938460
2409+305939399+306091817+306289523+306281285+306166110+306190746+306254905
2396+306153887+305882980+305629084+305392047+304850367+303713115+301757681
2382+298640244+294124264+288501226+282454785+276547601+270730017+264800381
2369+259241769+254469691+250695876+248273840+247354085+248169642+250925231
2355+256033256+263909342+272000778+275355329+272157296+265805483+261701603
2342+260821254+261338950+262471259+263698762+264302053+264572041+265895351
2328+268244608+270221307+271698318+273788698+276914622+280317986+282964875
2315+284710725+286305901+288064835+289788443+291497453+293158875+294547245
2301+295594149+296394228+297030508+297648685+298377823+299104202+299729506
2288+300318333+300748230+300703209+300202564+299668815+299305338+299032074
2274+298822854+298598633+298270866+297916145+297686407+297659165+297729473
2261+297751715+297766811+297870032+297998331+298054673+298043638+297931394
2247+297699760+297583301+297730622+297917236+297992028+298003656+298005706
2234+298104310+298307017+298460756+298497290+298448859+298370122+298402996
2220+298536410+298524819+298401866+298359049+298355083+298388475+298505508
2207+298678272+298852529+298974160+299142364+299355262+299472200+299598027
2193+299747935+299738088+299660711+299682072+299764449+299873149+299966907
2180+299929224+299767993+299658833+299660902+299678087+299728663+299788856
2166+299729927+299690118+299819642+300007693+300194499+300326629+300357242
2153+300490713+300822925+301136975+301394913+301713504+301978281+302109376
2139+302241946+302424844+302586304+302740503+302976659+303328009+303729246
2126+304053258+304284145+304528500+304766131+304878088+304891843+304980332
2112+305158325+305287447+305391319+305523315+305645962+305751482+305842768
2099+305966085+306186991+306436136+306563170+306633746+306813962+307035194
2085+307199776+307307998+307354052+307435395+307668428+307908914+307944010
2072+307880465+307830387+307655114+307501374+307720403+308118574+308375516
2058+308590157+308744127+308725735+308743590+308943806+309116646+309108504
2045+308960588+308752863+308760985+309088599+309472881+309744478+309849405
2031+309871206+309938085+310015328+310074238+310090579+309847623+309224599
2018+308821868+309267014+310053203+310488023+310683545+310904949+311186700
2004+311451553+311602189+311725392+311846698+311494486+310381123+309627062
1991+310329130+311673858+312724805+313305395+313470590+313673259+314088614
1977+314476230+314742079+315007029+315009385+314290209+313812247+314714243
1964+315940310+316373041+316431050+316422046+316276909+316218133+316299016
1950+316158342+315471811+313978458+311904228+311229268+312879272+314544890
1937+314969250+314878213+314825396+314899727+314925743+314266856+312423245
1923+310804966+310213015+309562520+310204701+312748158+314205284+313586302
1910+312966018+313724563+314993005+315772738+316173343+316348002+315959467
1896+315359030+315314930+314716121+313563869+314456880+316775236+318281175
1883+319086886+319569561+319846522+320143905+320138369+318221001+313431873
1869+309877930+312582311+318063966+321209642+322035909+322375343+323041644
1856+323814537+324327309+324156423+322696769+319409404+315062835+314845224
1842+320529758+325181508+326374527+326879674+326837374+323724420+319797690
1828+320137009+322661097+325529869+329820977+333073322+334187718+334996973
1815+335522274+334363278+333080602+334385961+336979477+337867584+335972018
1801+333518621+334212355+336816292+336270569+332200349+332237936+339591537
1788+345869554+347485075+347473236+347625270+348805684+350941448+350270511
1774+344811213+340452632+344533734+353103957+360367364+363281386+362484468
1761+363677564+367118305+370080643+372770291+371883640+367338043+366997651
1747+373218272+380054273+384099819+386167535+389565363+392902844+391014788
1734+390848691+402087221+415737345+426941851+435128692+440556649+444114940
1720+442560570+437252233+441307166+457896984+474559409+485425553+489807621
1707+490786918+493855810+496218707+494899898+499492048+512454416+530899454
1693+550706750+562852889+568844002+570422166+566862341+572267807+594077301
1680+613610682+623548871+628304090+635479180+642625036+648270317+661222991
1666+675782296+682332351+687437924+697925016+706233431+703340712+689137891
1653+684521220+700464469+707883282+708835184+719727191+733287697+738750137
1639+735409744+726131419+723754499+736569928+747967158+750878498+751524952
1626+754484416+760998684+773779246+786230067+792113822+800218170+815149362
1612+826233865+830856207+833362326+836053123+837473697+836873604+836142398
1599+834707571+830212895+823836254+817133705+809206909+800782629+792972771
1585+784390939+775467412+767208271+756106603+739693993+727625174+726295944
1572+722469485+713929340+710870027+712113660+710814470+701868260+681697239
1558+672198754+690993189+709962800+722335075+731782370+740997016+747886237
1545+749285353+746824217+749801612+776599856+810101262+829649969+845923878
1531+866130762+879347964+883070972+882608891+876314705+865966544+861576468
1518+859962786+856250429+851570384+841880171+823909436+801591539+797059008
1504+818522323+835058691+838511195+836859888+841622310+853797262+861174772
1491+861235310+865886695+881399971+897782925+908597919+915882859+920920997
1477+922129458+919913768+918484995+926320218+941247195+950706062+952012609
1464+953151719+955487029+950087885+936204306+932437158+943793852+952790407
1450+952646419+947569275+946257900+947753801+946199661+941017534+930645847
1437+918209892+915956041+918404993+914154231+908342893+906880479+906328664
1423+906078390+905337527+904498962+913168459+928976839+939571596+942606311
1410+943086324+943205790+942492515+943838834+946104410+945065455+943818373
1396+945639570+950164209+956452111+959853426+958261124+956530274+957822415
1383+958128017+956786679+957409991+958257292+957202476+958462508+961991259
1369+963659578+964121659+962540698+957617965+955192308+957863795+960690076
1356+962249963+963730998+963431296+960836363+958913708+958089472+955989187
1342+951579035+945965249+942846394+944220606+946430702+945705932+942295039
1329+938764602+937561582+939159402+941486818+941743683+940978529+943082722
1315+946613388+948505392+950351187+952581359+954959429+958287714+959912737
1302+958868189+959216091+962001987+964417069+965850976+966597662+966201636
1288+966450838+968650589+971040153+973365117+977544919+982862605+986716345
1275+988811495+990131836+992178020+995902791+998909382+999343953+997762226
1261+994782608+992907464+993926494+995726617+996017966+994839775+993498284
1248+993417285+995373965+998672518+1001015874+1001451134+1002122033+1003707897
1234+1004740261+1005971711+1008223034+1009882004+1010398416+1010908697
1223+1011311007+1011618754+1013174887+1015613264+1017441894+1018709666
1211+1020100507+1021989062+1024495180+1026931949+1028716746+1031015810
1200+1034292140+1036625457+1037075201+1036143989+1034779279+1035245345
1188+1037693607+1039619405+1040827099+1042571205+1044800305+1046300727
1177+1045663470+1043893232+1043707940+1046765950+1051754202+1054664929
1165+1054944707+1056188264+1058747794+1060483088+1061359126+1061498287
1153+1060805089+1060868462+1062495937+1064369396+1065643682+1066263698
1142+1065429577+1063808998+1063735586+1065566515+1067964355+1068621920
1130+1066364467+1064561815+1065226353+1065866140+1065170566+1063195649
1119+1060169210+1058565873+1060432742+1063636043+1064575685+1061758677
1107+1055322111+1048911063+1047165577+1047743064+1046140723+1045069738
1096+1047172091+1049643956+1051689373+1053887744+1055603344+1058703578
1084+1062399460+1061777604+1058130307+1057103307+1058749250+1060224614
1072+1061124484+1061909179+1063585467+1066075647+1066706238+1065710657
1061+1065635636+1065070410+1063301858+1063382397+1065511494+1068434099
1049+1071739166+1071278234+1065245281+1060650985+1062147269+1065725063
1038+1067449093+1066515505+1061906420+1055607789+1050926518+1047552024
1026+1045753510+1046556290+1046265631+1042572815+1039610286+1039494574
1015+1039760021+1039595802+1040129379+1041410409+1042038165+1040101563
1003+1036934354+1036265524+1038091396+1039556108+1040598510+1043853921
991+1048445611+1050060365+1048999725+1049274981+1051313425+1053504746
980+1055365790+1055351460+1054009433+1055325100+1058748100+1061145557
968+1062690655+1063730605+1064807338+1065788130+1064650323+1062891196
957+1062273786+1061784041+1063884709+1069774900+1073741823+1073140428
945+1072384316+1072876130+1072220787+1071675026+1071915645+1070760290
934+1069733903+1070594385+1071812348+1072777354+1072496273+1068908134
922+1064819752+1064889946+1067253915+1068210109+1068897023+1070317596
910+1070041727+1066727695+1063703861+1065386434+1070486336+1072489377
899+1068908517+1064423957+1062759009+1062965681+1062943152+1061474685
887+1058635454+1056275163+1055950633+1056185582+1054251355+1049910017
876+1045517719+1041295004+1034365092+1027614802+1027092183+1030471121
864+1032069477+1031431529+1030517099+1029186797+1026700755+1024913429
853+1023646959+1020770639+1018490887+1020234687+1024821856+1026581442
841+1023525730+1019432903+1015256013+1011506261+1011144336+1012757941
829+1011562891+1009023514+1010398723+1012941087+1012511728+1012356168
818+1013480642+1013475737+1012279538+1010345388+1009099455+1010777583
806+1012234632+1009511650+1007152355+1007241093+1004512286+998432052+993043942
793+990881434+991022204+990203945+988307957+987833156+987636982+983781786
779+977932439+974657182+972521800+969216810+967310477+967972870+968501773
766+966323862+961000275+955880832+953706369+953117389+954496352+955547184
752+950064283+941832651+937343876+934113294+929632794+925750088+923236460
739+921536262+919893844+916608318+911952412+908651330+906648979+903627445
725+899415918+894078461+886234196+879226811+878361501+879643144+878082031
712+877123002+876493867+873398001+872446865+874668379+875929867+877596194
698+879915182+877839036+872947568+872664112+875089156+874675582+875824501
685+878307094+876119221+874539870+877653514+879726748+879457622+878234602
671+870422905+858913717+863190916+876091251+880134115+880073347+877812062
658+875249850+877076027+878460048+875545413+874892906+878476600+881021187
644+880540409+877656502+875069768+876543217+876568658+866610085+857278272
631+860582266+866873004+871137099+876815867+872859213+858974178+848936370
617+841275405+836064541+842470072+852451710+853530972+852762140+853490894
604+850074713+845708930+842707702
##END=
