##TITLE=Sample description
##JCAMP-DX=4.24
##DATA TYPE=INFRARED SPECTRUM
##DATE=12/9/2023
##SAMPLING PROCEDURE=Instrument type and / or accessory
##ORIGIN=Default
##XUNITS=1/CM
##YUNITS=ABSORBANCE
##RESOLUTION=4
##FIRSTX=4397.6552
##LASTX=599.8556
##DELTAX=-1.9287962
##MAXY=1.9783562
##MINY=0.34337053
##XFACTOR=1
##YFACTOR=1.8424878e-009
##NPOINTS=1970
##FIRSTY=0.35367563
##XYDATA=(X++(Y..Y))
4398+191955479+192086561+192012366+191206137+190404033+190607046+191156221
4384+190685333+189930250+190753107+192436994+193173783+193650332+194703117
4371+195113559+194580074+194059820+193479071+192892273+192528075+191857329
4357+191211378+191137232+191011390+190488677+190228518+190575133+190770964
4344+190330469+190326264+191607084+192930543+193106689+192905989+193133588
4330+193295969+192893356+192607915+192908173+192813403+191844227+191013121
4317+191125505+191924795+192549475+192149223+191404913+191944593+193296325
4303+194119392+194246997+193468557+192396346+192486392+193331280+193362530
4290+192370708+191217978+191030865+192751550+195471675+196604623+195254136
4276+193330584+192431138+192367004+192409351+192077325+191677106+191504599
4263+191335586+191528134+192302417+192961744+193006161+192745177+192706227
4249+193105719+193798965+194149640+193805645+193216841+192590333+191792596
4236+191129193+191127656+191656920+192112377+192354097+192494075+192621535
4222+192641737+192374105+192455514+193397387+194531597+195039348+194752953
4209+194140226+193561564+193129722+193109746+193400476+193815350+194248178
4195+194021663+193149504+192916843+193399134+193238160+192370935+192046722
4182+192740502+193645900+193693617+192884864+192568044+193330260+194031416
4168+194391311+194917404+194903898+194065788+193301857+193076895+193290664
4155+193901078+194492518+194398574+194041235+194218481+194298013+193651998
4141+193357548+193868420+194033244+193680660+193256243+192605813+192327569
4128+192952654+193694911+193901709+193518942+192802841+192602432+193201232
4114+194033341+194555213+194060564+192920805+192877764+194160542+195043974
4101+194697213+194308285+194592529+194569253+194245072+194419035+194466800
4087+193756716+192673586+192095441+192642045+193527628+193849900+194017829
4074+194120411+193698388+193522954+193917237+193739408+193383088+193735203
4060+194064381+194033616+193970436+194047122+194569075+195408527+195731090
4047+195186040+194435097+194029524+194165427+194462433+193898441+192950406
4033+193045952+193659051+193696625+193637263+193902113+193991674+193866188
4020+194137929+194789638+195035692+194746175+194486695+194540930+194839522
4006+195177273+195558793+195937710+195764378+194786920+193610768+193015607
3993+193290033+194054644+194613184+194721767+194492729+193959599+193481174
3979+193531074+193928268+194070398+193921652+194065837+194371303+194216718
3966+193924871+194153053+194930183+195682290+195812968+195447800+195025098
3952+194670185+194399059+194204117+193783906+193321898+193640417+194348269
3939+194589294+194586625+194636007+194669635+194706660+194841188+194755120
3925+194349369+194031271+193564200+192702361+192374396+193342101+194498228
3912+194795396+194384566+193141611+191285945+190453949+191484607+193385919
3898+194916628+194866874+192956504+191570125+192543150+192714752+191646875
3885+191804032+191623162+191621755+193156977+192760592+190641305+189449350
3871+189571876+191405560+192356555+191609834+192538799+194498163+194224288
3858+190985041+186362440+186718080+193044803+196343073+195735959+193187758
3844+190544853+188832094+188133348+189579607+192565310+194108959+194131346
3831+194085538+193944734+193240926+191201156+188267472+188951385+192044183
3817+192989970+194107827+195408398+194644127+192321116+191043061+191114021
3804+189757048+189889634+192654548+193585778+194329150+195632746+195300074
3790+194326514+193930872+194126121+195082891+195295043+194345083+194431878
3777+195158235+194694868+193221855+192416225+193371895+194668616+195603420
3763+195461128+193409615+191765422+191848319+190972004+188182229+187182304
3750+190285939+191553901+190645187+192988983+195465237+193920795+190549415
3736+189191067+191601892+195274307+196764271+195539157+194013365+194321629
3723+195914014+197984031+200138434+201272078+200210526+198501341+200327633
3709+204622172+207588869+209077685+211267430+216185663+221836334+225585256
3696+226826820+225477563+222751712+222119090+224456610+225175364+223034080
3682+219815359+216283134+212164773+209821786+211458021+211724165+210241868
3669+211531148+213585832+214017398+213818850+213345568+212189845+211756822
3655+212371749+210645969+207117448+207849466+213003304+216457711+217283673
3642+217107867+217032556+216975409+216770439+216120963+214065600+212316608
3628+215027611+218261083+218089336+216081674+214735586+215559333+216594794
3615+216552578+216801528+217365551+218113033+219802031+220883494+220164319
3601+219227040+219162437+219221864+219297078+219526877+219337807+218949072
3588+219811687+221588225+222410710+222397818+222234677+221801477+221186582
3574+221019688+220938360+219865518+218915380+220196120+221969454+222410224
3561+222435894+222783237+222993480+222767127+222788300+223282447+223485897
3547+223414225+223659763+224349046+225080320+225243591+224859320+224527991
3534+224528088+224548323+224332192+224178464+224226067+224260763+224329442
3520+224469841+224464406+224303950+224176669+224118940+224218562+224341347
3507+224069477+223828711+224361857+225035612+224980989+224663327+224652943
3493+224655466+224394417+224067115+223885356+223821707+223987210+224487504
3480+224775178+224631203+224606957+224773059+224932221+225081646+225122197
3466+225261626+225650344+225975673+226182827+226363357+226280977+225922263
3453+225625306+225444485+225422147+225831618+226412044+226728444+226942294
3439+227203359+227512319+228002665+228413204+228486008+228600640+228890643
3426+228987758+228909826+229052862+229503337+230124556+230798263+231316980
3412+231638847+231803348+231889706+232250393+233049813+233789497+233852224
3399+233719071+234229135+235008465+235468418+235689839+235796853+235896944
3385+236260591+236988242+237801588+238386041+238552352+238353561+238372551
3372+239103889+240022810+240441339+240840054+241744902+242588641+243016357
3358+243348771+243522394+243482668+243697116+244273304+244880936+245396240
3345+245870687+246346734+246762029+246936250+247116084+247615747+247952124
3331+248121945+248627691+249074494+249405969+250048393+250445377+250046468
3318+249662635+250118156+250604297+250403128+250145346+250035130+249810135
3304+249534318+249430668+249917618+250630824+250966925+251737213+253592135
3291+255608581+256733830+257372389+258682147+260553065+261850967+262457823
3277+263219327+264161718+264975226+265980278+266784081+266915956+267066125
3264+267531400+267768704+267476454+266995877+266837539+266841373+266713687
3250+266735232+267231644+268125024+268725410+268610551+268341091+268031613
3237+267567018+267685387+268180974+267748065+266598957+266179927+266694455
3223+267117432+266976968+266548475+266097482+265968988+266187205+266113933
3210+265737944+265705319+265740386+265369945+264972039+264598946+263956974
3196+263237783+262578812+261943488+261502314+261367107+261295387+261014475
3183+260614013+260257742+259881429+259344482+258785877+258614745+258809169
3169+258877379+258513700+257638209+256516260+255805108+255838153+256315042
3156+256749358+256973625+256915023+256500036+256098329+256015933+256197078
3142+256371331+256249420+255907932+255216708+254183220+253363469+252924138
3129+252817771+252915485+252733402+252094811+251395451+250897098+250375258
3115+249553712+248539569+247755160+247078186+246052219+244758507+243360643
3102+242263636+241823788+241318059+240195430+239150958+238727383+238532991
3088+238180779+237606096+237015448+236795532+236804914+236700375+236451069
3075+236007403+235478722+235181991+235250298+235476619+235457872+235115673
3061+234830669+234899494+235156758+235187070+234907047+234601339+234495247
3047+234665700+234934496+235000863+234817211+234433539+233981786+233675253
3034+233341271+232906550+232905661+233276635+233271572+232857621+232368164
3020+231794257+231354636+231387730+231633671+231599283+231218749+230667212
3007+230258518+230237846+230227429+229986453+229958438+230074106+230049827
2993+230331063+230897399+231221612+231415421+231707478+232089694+232555843
2980+232849420+232791627+232716105+232720893+232389596+231798317+231434168
2966+231324728+231281638+231282107+231215417+230829901+230264357+230047692
2953+230165333+230193025+230260960+230658138+231060929+231014911+230728047
2939+230652186+230658429+230511495+230305247+229972915+229508076+229252883
2926+229320219+229494829+229458500+228906801+228178083+227866503+227801367
2912+227641848+227493022+227463777+227482217+227569303+227754766+227868736
2899+227801997+227424310+226872563+226814398+227333245+227936881+228585015
2885+229245620+229545635+229479188+229402922+229468286+229550520+229493244
2872+229419647+229494910+229625798+229721166+229800246+229922627+229946177
2858+229678772+229325703+229161526+229139722+228969496+228550190+228226334
2845+228287556+228607854+228867140+228944619+228985234+229051665+229089968
2831+229245604+229633352+229906468+229830752+229816227+230077098+230188075
2818+230096605+230151681+230158216+229963970+229954184+230226459+230505769
2804+230703380+230904694+231103340+231288350+231566157+231952627+232326497
2791+232553498+232485740+232187537+232061194+232252820+232419083+232401015
2777+232400918+232470439+232492162+232565127+232732458+232717771+232527084
2764+232435582+232343012+232145886+232144043+232497014+232954897+233191603
2750+233155015+233073202+233118314+233274516+233377115+233345331+233413492
2737+233680267+233878104+233901364+233925255+233995050+234074388+234201427
2723+234294871+234314733+234392940+234593429+234869376+235186601+235501157
2710+235639728+235605308+235602704+235600973+235619768+235818204+236059843
2696+236194241+236357075+236556368+236638958+236721095+237007037+237396274
2683+237588983+237556309+237580265+237716426+237832628+237860740+237768769
2669+237645127+237575347+237570996+237661059+237762493+237725856+237661949
2656+237714291+237686810+237478249+237310352+237368663+237556536+237615300
2642+237530219+237432376+237277355+237023131+236815298+236787671+236836099
2629+236823887+236736170+236521737+236254849+236220493+236423603+236601383
2615+236606737+236347192+236033025+235950047+235841415+235517316+235258984
2602+235226585+235236582+235181716+235174502+235245656+235315985+235257334
2588+235101811+235013075+234873015+234686226+234723283+234890711+234929628
2575+234874309+234801004+234635582+234378754+234156072+234010432+233838184
2561+233548069+233182723+232833795+232567910+232476407+232581319+232648623
2548+232459860+232154184+231968996+231943520+231940156+231839062+231704842
2534+231605672+231457574+231285665+231237997+231188825+230978550+230784320
2521+230680508+230584930+230617442+230803018+230904096+230783737+230529579
2507+230254652+230022087+229914992+229953634+230078506+230233317+230283977
2494+230187752+230134730+230220814+230372843+230532313+230674475+230848988
2480+231070925+231215773+231265058+231296486+231285520+231237270+231187774
2467+231145945+231190734+231339706+231449599+231430125+231381567+231448694
2453+231637246+231822466+231915327+231984751+232131782+232300714+232440385
2440+232618004+232786111+232841381+232798614+232751771+232829120+233026941
2426+233258616+233485665+233611847+233631742+233690878+233844347+234065169
2413+234272824+234359587+234435642+234660200+234884839+234948504+235014207
2399+235232489+235455155+235601394+235784074+235944822+235969246+235911599
2386+235667517+234833985+233141040+230724116+227788653+224359673+220644087
2372+216988964+213397490+209940171+206947027+204584355+202969972+202364573
2359+203248927+205816521+209805433+215146335+220490263+222972695+221292335
2345+217267369+214627634+214526362+215434591+216370932+217202992+217906995
2332+218675471+219941185+221625039+223217165+224546382+226063957+228142353
2318+230530824+232741597+234465113+235863478+237273780+238636770+239742253
2305+240697649+241666372+242527111+243212561+243835268+244439308+245069876
2291+245722006+246217124+246510992+246790982+247058549+247182984+247253248
2278+247383150+247570134+247852971+248239376+248531190+248538566+248488456
2264+248702015+249041691+249277701+249483431+249698284+249741908+249545333
2251+249398949+249604809+250064423+250516499+250810254+250895642+250911057
2237+251067744+251317827+251461979+251529332+251648881+251770971+251816989
2224+251840491+251935293+252051705+252080577+252091043+252203815+252414673
2210+252632518+252746698+252752311+252767143+252842050+252935525+253086843
2197+253320491+253506472+253534633+253430142+253376700+253555418+253859525
2183+254154461+254467464+254653461+254606197+254600277+254771636+254885637
2170+254902314+254974729+255076244+255175575+255295464+255404856+255530876
2156+255719137+255920872+256058231+256186596+256408744+256619699+256688508
2143+256729269+256869523+257043598+257212757+257394403+257507919+257560504
2129+257654902+257757791+257800688+257832633+257891575+257918992+257921677
2116+257973114+258066589+258226399+258518455+258809315+258918771+258922492
2102+258964822+259079050+259205005+259252754+259246834+259239911+259267910
2089+259386489+259517766+259562587+259604771+259696370+259764775+259852783
2075+260027474+260253245+260489805+260589750+260464960+260361165+260469699
2062+260605101+260658802+260764150+260867282+260855798+260862559+260976884
2048+261089139+261156055+261219267+261255742+261288658+261363096+261474525
2035+261634707+261792802+261888024+261957496+262018233+262051473+262110108
2021+262173433+262161463+262201804+262420507+262736810+263025340+263220185
2008+263405438+263657121+263865213+263951184+264006874+264173946+264405039
1994+264489538+264544290+264848300+265283813+265642673+265856393+265985875
1981+266171694+266416438+266687370+266948759+267153794+267274605+267264253
1967+267286009+267547219+267875540+268101959+268330803+268564015+268728434
1954+268859161+269006127+269211033+269412299+269448078+269345448+269544692
1940+270246721+270950885+271325257+271497667+271716903+272078157+272404440
1927+272469754+272323985+272374354+272671004+272970857+273527602+274242766
1913+274618900+274778871+275078207+275570219+276087368+276453862+276759473
1900+277151427+277450051+277643860+277932714+278107922+278235349+278756800
1886+279483157+280157915+280802361+281343157+281789912+282153139+282392659
1873+282312689+281760959+281583066+282750936+284338614+285318627+285915098
1859+286511505+287116289+287725312+288366717+288847213+288932585+288621313
1846+288318483+289070170+290755060+291959324+292585590+293198333+293656313
1832+293482399+293340349+294247867+295548728+296836294+298247631+299363095
1819+300187019+301023496+301674832+301895460+302242512+303266392+304461275
1805+305225060+305484832+305612420+306300216+307417911+307900898+307789581
1792+308822261+311158875+312917847+313837430+314538748+315149582+315950279
1778+316939739+317157843+316295875+316041377+318043524+320886935+322969634
1765+323694147+323700584+324479348+325879201+327242498+328441360+328797826
1751+328403996+328610810+330023894+331734373+332893412+333527377+334495615
1738+335408470+335136988+335516842+338169420+340874114+343137585+344846155
1724+345889995+346269138+345291454+343770288+344891704+348567483+351807085
1711+353814894+354419290+354171456+354461475+354692390+354257216+355183108
1697+357722267+361506807+365432328+367574163+368502319+368164520+366519615
1684+367594737+372387274+375999808+377548439+378425450+379834102+380811690
1670+381753271+384990577+388538929+390224854+391849249+394782917+397166892
1657+397115908+394980511+396310617+401650517+403938089+405933766+411011403
1643+415722805+418196649+418674589+417825044+419539987+425423497+430218945
1630+432765512+434720945+436802770+439537517+443795501+447666448+450346361
1616+454668171+460509206+465332152+469546139+473997123+478742590+483616519
1603+488731424+493990157+499305600+504951273+510976995+516956359+522492818
1589+527704029+532950210+538724798+545395322+552417102+558178783+562835643
1576+569501314+577134511+582683587+588375261+596242479+604479394+611532619
1562+615575086+617117345+624927562+639093860+650646918+660417162+669756309
1549+678983072+686804741+692512397+696246891+701460108+714497582+727385404
1535+735285684+743260304+752989658+761286809+768561438+775250272+780527477
1522+787532501+797120873+805619694+813996167+823427318+831991810+837272574
1508+838980400+845503342+860100673+872023298+879140705+883328489+887818746
1495+893061725+897230487+901115668+906292717+912661997+918056633+922369870
1481+926956078+931641535+935341285+937365689+938228013+939483326+943332986
1468+948123258+949869645+948628114+947637619+946385864+943825678+944505677
1454+948515535+950570995+949566654+945377253+940965866+938577265+936876815
1441+935801886+934024960+929267427+923635017+917982228+910927320+906502022
1427+908076501+912323421+914270637+912696094+913251027+919985475+925669450
1414+926966365+929298547+935266168+941672651+945870333+947567225+948608186
1400+951340151+956977672+963320036+967303949+969854819+971033720+969633803
1387+968080675+969420551+971634073+972297444+973778496+978250249+984428986
1373+990353840+992500528+989565986+985981338+984742006+984906668+986295198
1360+988342053+989784285+989607394+987822446+986269512+985210306+983149087
1346+980119113+978096262+976542682+972010823+966628868+965175184+964887204
1333+962671028+961535605+963566673+965964267+966902097+967358750+966671052
1319+964821598+964738781+967885539+972382072+975659913+978407729+981867571
1306+985483535+988966475+990126872+988895110+988824522+989975927+990878947
1292+992169069+995213147+1000507369+1007224153+1014250075+1020027218+1023942096
1279+1028650070+1036097966+1042316623+1042410115+1038668439+1036518711
1267+1037440624+1039876197+1042355379+1043579053+1044343227+1047501631
1256+1051409974+1051984124+1050494596+1050563502+1052431720+1055279757
1244+1059745104+1063083892+1061601352+1059800099+1062187859+1065067470
1233+1065472235+1065144140+1065157209+1065651260+1066498703+1066797941
1221+1066156245+1064642131+1064074193+1065145952+1064279746+1062997517
1209+1064870652+1064975855+1062490203+1063092303+1064149375+1061409128
1198+1059797058+1062815969+1065700109+1066416663+1068070141+1067913955
1186+1063217369+1059946128+1060736634+1061518148+1061038525+1059199099
1175+1056524912+1055670999+1054861600+1052874851+1053056465+1054362438
1163+1054091150+1052938775+1051295326+1049465799+1046970507+1042261693
1151+1036857481+1033729228+1034076991+1037703307+1042110489+1043561714
1140+1041430684+1038129163+1034657869+1030855440+1027929439+1026653034
1128+1027512705+1029563377+1029977394+1029605432+1030276826+1029456428
1117+1024614914+1019277149+1018298171+1018905835+1016777134+1014458215
1105+1014969993+1017458427+1020620842+1022925268+1021829506+1016966447
1094+1012079513+1011062038+1012894476+1016037093+1020107705+1022211173
1082+1023616784+1026264574+1027202209+1027048093+1026729833+1023489130
1070+1020497524+1023471726+1029039306+1032281432+1033053499+1031945314
1059+1034274003+1039933004+1040170648+1036206727+1033839800+1031943309
1047+1030719311+1033659934+1038499766+1039991170+1040177441+1040521646
1036+1037891713+1034642600+1033642335+1034317352+1037076232+1038110206
1024+1033774647+1028632924+1026626442+1027077596+1026656851+1023153854
1013+1020440652+1021600856+1024835153+1028057934+1029514335+1028940832
1001+1028374900+1028655569+1028621990+1028201827+1030646846+1035742438
989+1037360525+1036518905+1039184811+1041900601+1041345280+1042414773
978+1045242430+1047306560+1049597658+1050069322+1049679892+1052628602
966+1057502273+1061743369+1063523336+1061476157+1057092526+1053601758
955+1052757550+1052357250+1052819015+1057395905+1063706243+1067593883
943+1068669782+1069298215+1071810976+1073741823+1073023004+1071733465
932+1068394806+1062407452+1059715989+1063353174+1068034362+1067697468
920+1064649119+1063957409+1063846772+1059590471+1055079510+1056986871
908+1060641978+1061524359+1063896074+1066625580+1064643490+1059171667
897+1057694367+1064276640+1071771508+1071830062+1065625574+1059344287
885+1057992118+1061903761+1066076793+1065631785+1062962321+1062917936
874+1063979084+1062536335+1058215204+1052745063+1050120241+1049087044
862+1044522511+1040397616+1039996410+1039477385+1039760449+1043063781
851+1046745027+1047874563+1044648806+1037555014+1031048376+1029373029
839+1031553167+1035561731+1041937674+1045533710+1040507089+1032301424
827+1026637053+1024161042+1026271044+1032570577+1038081609+1037724205
816+1034390399+1032952567+1030408038+1025694048+1023069809+1022812884
804+1023594721+1024089419+1022053628+1017656215+1013697082+1013349836
793+1013176310+1010919439+1013426506+1016487665+1012085854+1008918715
781+1010035570+1007659844+1001851838+997448021+997402666+1000194349+998862496
768+992246709+988681017+990856949+990701280+985210435+981441391+980956463
754+977956316+973383566+973950857+976111002+972187907+968810364+972108390
741+973101344+966809381+961841831+962530370+963249707+959505443+951351538
727+941154790+932511752+927238882+925411231+925556807+925226707+924228189
714+924245528+925341032+926741985+929436165+932920722+935143756+934969453
700+933308147+934676297+939127281+941607627+943665222+946059970+943348256
687+936042182+927366665+921135197+922778387+928578564+933468539+938569112
673+939911900+933809120+925792574+925936856+930454157+931172006+932153831
660+935620919+937755572+938117311+941240324+945085326+941876327+935683485
646+936605850+944414773+950815239+952731722+949457441+933958642+912511892
633+898976486+893582691+893475094+906145977+932616825+945412062+927620095
619+913110757+920923627+929299194+920033094+912628676+923121945+936960990
606+945164002+962650195+977241379+965175831
##END=
