##TITLE=Sample description
##JCAMP-DX=4.24
##DATA TYPE=INFRARED SPECTRUM
##DATE=12/9/2023
##SAMPLING PROCEDURE=Instrument type and / or accessory
##ORIGIN=Default
##XUNITS=1/CM
##YUNITS=ABSORBANCE
##RESOLUTION=4
##FIRSTX=4397.6552
##LASTX=599.8556
##DELTAX=-1.9287962
##MAXY=1.8479159
##MINY=0.23370521
##XFACTOR=1
##YFACTOR=1.7210058e-009
##NPOINTS=1970
##FIRSTY=0.24559096
##XYDATA=(X++(Y..Y))
4398+142701993+142421911+141609337+141412904+142218421+143297448+143523701
4384+142792317+141939620+141415458+141291626+141504146+141644698+141281651
4371+140809967+141450975+143191210+144161445+143521415+142751822+143141502
4357+143547901+142271757+140335755+139800259+140725253+141793891+142053046
4344+141819883+141956833+142589226+142928419+142590758+142323993+142154054
4330+141556720+141322779+142008316+142496607+142194879+142288459+143308358
4317+144112369+143788865+142791919+142429210+142925639+143313718+143609064
4303+144152708+144486550+144478307+144002165+142940454+142571727+143698177
4290+144780841+144471242+143744906+144145894+145155775+145126822+144240608
4276+143758846+143668669+143451776+143511077+144208079+144823960+144765758
4263+144466688+144581230+145355568+146173891+146169787+145594765+144869356
4249+144024676+143837560+144532925+145041424+144895391+144632877+144808071
4236+145324969+145667115+145499142+144712638+144043872+144710318+146433903
4222+147272383+146406265+145786843+146823479+147872271+147515926+146771771
4209+146536799+146564004+146697794+146804535+146739874+146545163+146153094
4195+145496735+145010903+145493514+146355718+146080467+145205561+145274699
4182+146024066+146407252+146542150+146848969+146756013+145989329+145445737
4168+145754599+146405399+146455757+145930694+145802948+146237149+146585113
4155+146701309+146638640+146255678+145888597+146077887+146764654+147319865
4141+147238442+146845039+146535137+146198568+145869133+145789804+146130045
4128+146580940+146744047+146750420+146768879+146834700+146915154+147022415
4114+147116306+146923934+146340340+145586297+145218021+145411553+145464231
4101+145144303+145217190+145994697+146984196+147981489+148665589+148470619
4087+147863180+147393306+146680113+146013849+146101611+146328305+146216941
4074+146219833+146046959+145597484+145744521+146459030+146703907+146187000
4060+145843313+146432050+147402155+147701407+147269906+146856087+146530479
4047+146265203+146558463+146980317+146862875+146606777+146573546+146616214
4033+146955728+147604813+147467924+146264164+145247009+145153611+145697817
4020+146179935+146366125+146654484+146923536+146727336+146417816+146786629
4006+147507562+147471924+146795114+146510772+146843220+147069845+146989080
3993+147525139+148627475+149096951+149218999+149698969+149730555+148874533
3979+148104230+147873899+147452703+146817505+146717587+146896764+146944853
3966+147301579+147951963+148271060+148049647+147736438+147957557+148478464
3952+148576459+148325799+148112404+147736785+147175980+147215930+147826936
3939+147965886+147333805+146309949+145763673+146485992+147463231+147328091
3925+146917492+147249057+147178335+146577580+147095041+148739151+149818732
3912+149816360+149068603+146922237+143641057+141859115+142660424+145028731
3898+147827265+148528925+146255176+144617725+146194221+146835341+145699601
3885+145773786+145590315+145514952+146974828+146569303+144715946+143712714
3871+143444156+144782945+145184218+143873726+145031432+147792372+148124802
3858+144560320+137766677+135795713+143377721+149131740+149960141+147726620
3844+144632661+141922382+139980588+141042281+144773178+147023436+147590406
3831+147922386+147804078+147479665+145952773+142404932+142019191+144976469
3817+146412742+148848939+151522550+150952533+147771141+145711550+145863764
3804+144274038+143567902+146736081+148903349+150199512+151727062+152129366
3790+152067752+152063943+151686783+151411878+151000743+150563736+151942794
3777+154120261+154335682+152430037+150922731+151687250+153042100+154331769
3763+154989011+153942487+153710580+155332940+155184033+152000390+151129857
3750+156930277+161462604+163669025+169857740+175876299+177668970+177985884
3736+179557748+183155886+188198193+192525265+194496454+195135894+195705358
3723+196370669+197547623+199019032+200325810+201361996+204122780+212780698
3709+224989548+236037895+245449180+255323136+267970500+280321209+288733020
3696+293193881+293674492+290395399+286615850+285748071+284829033+280460886
3682+273127617+264737054+256214571+249294879+246864846+244576794+241324213
3669+242088802+244172741+244266027+243611226+242934451+241728664+240935416
3655+241480203+240252234+236576724+236448199+242427294+248139952+250669920
3642+251485905+252302185+253239214+254231987+255066899+254335282+252651361
3628+254643971+258214558+258269868+254545629+250275720+249384355+249747956
3615+249201559+249761653+251498771+253646021+256252771+258237364+259671247
3601+261099018+261426358+260683657+260770968+261818410+261751827+259965616
3588+259121854+260484167+261188009+260475353+259732168+259289360+258792645
3574+258539300+258578540+258219424+257645337+258092630+259049297+259520851
3561+259772793+259727129+259122547+258438897+258405926+259038232+259699785
3547+260356248+261031171+261119867+260589177+260200155+260300540+260131892
3534+259232699+258366582+258315082+259078632+259766005+259464692+258661297
3520+258417961+258658180+258721611+258478795+258142693+257999535+258050342
3507+257743506+257239691+257383455+257869226+257855632+257478316+257286896
3493+257271052+257015144+256485630+256012379+255679672+255322772+254958080
3480+254884882+255151959+255253713+255065445+254964280+254792289+254505004
3466+254389656+254416930+254805589+255439557+255501915+254814507+253988149
3453+253650991+253733280+253717089+253759169+254130787+254391284+254352927
3439+254354018+254356218+254146234+254047701+254179240+254034125+253516664
3426+253079675+252963946+253078705+253362579+253847225+254197180+254076620
3412+253852350+253763117+253618245+253548025+253610417+253742493+254114769
3399+254534719+254548486+254130112+253794512+254085729+254791302+255321526
3385+255450155+255218716+254996264+255123092+255376939+255449445+255440665
3372+255765061+256490012+257127235+257433258+257640055+257916310+258085513
3358+258112059+258366565+258972393+259544436+259594672+259208871+259248908
3345+260044147+260782571+260966891+260850123+260928465+261512006+261977413
3331+262005864+262184851+262453833+262459859+262436862+262564487+262730313
3318+262939136+263023694+262976696+263241418+263472840+263123630+262622464
3304+262356720+262175950+262364617+263258805+264177600+264771635+265516500
3291+266599753+267844277+268765514+269280221+270020342+270911274+271421237
3277+272068781+273066939+273730346+274063002+274342270+274420715+273998549
3264+273422384+273411959+273543792+273187153+272878394+273303937+274099125
3250+274345630+273739489+272771272+271988224+271665594+271869205+271920272
3237+271292123+270719473+270678034+270705429+270589233+270387493+269904111
3223+269104179+268374778+268004406+267601478+267069004+266846241+266494311
3210+265891028+265787197+265823960+265185109+264443205+264248252+263839021
3196+262808568+261918605+261359549+260505606+259532574+259104728+258921118
3183+258210817+256732655+255540306+255449895+255323101+254342052+253428019
3169+253374164+253568545+253161046+252083854+251318936+251672805+251875481
3156+250931992+250201656+250914883+251756705+250822845+249058937+248927416
3142+250418515+250534243+248156299+245919816+246103738+247543994+247099160
3129+244656053+243465228+245249656+246635347+244001114+240341969+240201565
3115+242817008+242995839+239041391+235579415+235929526+237703009+236063697
3102+231556046+229265257+230859702+232616631+230433674+226446462+225580207
3088+228756316+230869711+227555448+223079746+222341739+224185909+224473611
3075+221802493+219460915+220163856+222791093+223315445+220566212+218039101
3061+218274108+220403261+220796439+218500525+216682901+216812465+217618632
3047+217577712+216855290+216366367+216245756+216312806+216121213+215357317
3034+214396096+213903918+213971886+213735217+212849532+212378982+214556519
3020+223636257+239166106+248476262+242937014+231578609+223443850+218514898
3007+214820790+212337024+211127514+210481770+209730048+208571848+207571941
2993+207652239+209098920+210753159+210880213+209836131+209304262+210153565
2980+211721498+211982999+210660463+209519389+209447576+210303719+210593412
2966+209129207+207333160+207121860+209148238+210958104+209437377+206549695
2953+205568525+207028644+209262304+209302271+207274300+205870842+206283449
2939+208027910+208608594+206766138+204786273+204318252+205565356+207202452
2926+206550353+204093861+202432382+202634729+204032282+204227287+202420659
2912+200683402+200401104+201505362+202495104+201799003+200407251+199920303
2899+200573285+201684504+201814934+200626967+199536926+199558295+200502563
2885+201267827+201058484+200462319+200255314+200685602+201337389+201316574
2872+200757276+200435911+200437227+200504693+200409745+200130927+199892457
2858+199904302+200180401+200159638+199345662+198298549+197772915+197813436
2845+198018554+197971885+197729242+197604318+197751407+198215515+198688662
2831+198836063+198822556+198747280+198556777+198511321+198606165+198438053
2818+198083682+197914705+197959348+198057915+198117814+198135910+198127563
2804+198210736+198525676+198862471+198900672+198783108+198833015+199020366
2791+199162762+199163281+199016989+198869536+198909694+199045665+198861484
2777+198392233+198189523+198343279+198521226+198493865+198252642+198040234
2764+198058919+198198874+198258305+198238529+198222217+198246166+198343157
2750+198536499+198760440+198777082+198597056+198497052+198427802+198317719
2737+198327901+198430278+198501294+198599827+198793221+198991273+199103071
2723+199141462+199162814+199227388+199326890+199359862+199247597+199080334
2710+198968935+198900689+198940570+199072558+199179853+199392486+199638749
2696+199584478+199327912+199161065+199154432+199268706+199452766+199687703
2683+199828593+199745368+199581292+199470949+199446359+199449788+199340346
2669+199238592+199282473+199254108+199052817+198881398+198817586+198724248
2656+198540794+198406312+198411160+198423698+198359660+198288003+198157919
2642+197902756+197650000+197520038+197497543+197430527+197172940+196867488
2629+196717023+196655046+196565120+196410914+196239789+196217138+196270544
2615+196097185+195722311+195396374+195192451+195127478+195143895+195020080
2602+194749176+194532785+194390458+194284999+194247006+194213861+194133979
2588+194039273+193870382+193606059+193389910+193251826+193116235+192965475
2575+192807373+192678865+192556470+192474371+192547898+192606914+192389241
2561+191984600+191641484+191392607+191153601+190990078+190971151+190976450
2548+190893208+190778744+190665769+190504982+190367071+190343746+190382605
2534+190415957+190448287+190434001+190266426+189989409+189776586+189726817
2521+189799825+189820951+189706574+189583157+189481542+189402560+189445350
2507+189461056+189309118+189170930+189166030+189268182+189451030+189681586
2494+189872659+189938221+189962880+190053724+190190405+190391194+190656799
2480+190830937+190878541+190890749+190802070+190620295+190483527+190430399
2467+190475319+190647881+190937677+191264065+191432817+191313054+191102932
2453+191040989+191169896+191510361+191820350+191849754+191908007+192209960
2440+192510771+192730521+192899758+192936297+192936487+193047349+193217539
2426+193310028+193355536+193579477+193935580+194146776+194257517+194434096
2413+194600407+194683493+194786649+195010486+195280074+195470957+195619224
2399+195843321+196441010+198077743+201757408+208931812+221346196+240125301
2386+264647820+292632505+321695092+350762043+380228631+411134106+444144371
2372+478873293+514009750+547641861+577580054+600306872+613520218+619705851
2359+617588767+601094718+573190729+541904353+512763944+496117819+501171209
2345+522408470+533497251+524683482+512213512+502943688+498157115+500556220
2332+506192320+505653976+499529299+495887817+495369836+491898267+482444330
2318+467878196+452155056+444706370+448741948+452552753+444060488+423826805
2305+400565833+383176643+372588214+363606229+353457819+341497759+327013048
2291+311660904+297981285+286188229+275644373+266637365+259403252+253620738
2278+248770059+244406327+240395877+236914956+234128249+231778722+229471206
2264+227242377+225317736+223629243+222034227+220588620+219329809+218190139
2251+217139718+216213252+215370131+214554856+213879864+213433160+213088192
2237+212702408+212340210+212101584+211927845+211732026+211526805+211410852
2224+211410055+211427147+211418125+211430714+211492310+211596869+211742815
2210+211902164+212065652+212276051+212509672+212679394+212854017+213218155
2197+213694921+214016044+214148691+214268090+214505538+214840203+215123280
2183+215299548+215464214+215657296+215843261+216010126+216106234+216059617
2170+216012291+216120694+216224647+216209616+216154271+215997935+215677868
2156+215347775+215151091+215074101+215030705+214957818+214821812+214635050
2143+214625440+214943324+215385942+215789267+216131430+216474459+216912297
2129+217365547+217745963+218093753+218420002+218705660+218954295+219152174
2116+219390886+219745863+220102589+220408352+220686997+220949485+221218831
2102+221499345+221765886+222032097+222395404+222879114+223473773+224125318
2089+224729674+225353079+226143713+227165508+228351657+229630988+230958720
2075+232340514+233912984+235710832+237708308+239905655+242271564+244817325
2062+247623392+250737421+254021414+257325149+260627083+264012986+267586776
2048+271350255+275149043+278682381+281842196+284647830+287143753+289389674
2035+291239576+292685183+293876094+294826267+295395194+295460339+295089864
2021+294384412+293448127+292326032+291021003+289559603+287916810+286141889
2008+284364544+282665367+281026228+279420856+277869011+276398346+274987893
1994+273569075+272243612+271145501+270199553+269353731+268623257+267986050
1981+267412725+266888130+266425546+266034983+265702881+265418002+265214114
1967+265231864+265483668+265712319+265906042+266290285+266777198+267144038
1954+267458944+267949356+268625975+269247094+269613328+269928545+270776445
1940+272149478+273364875+274218767+274887524+275502513+276249508+277100283
1927+277732675+278132209+278592992+278931431+279049289+279626632+280649795
1913+281302223+281477435+281627346+282002446+282451193+282815418+283189668
1900+283609549+283849335+283947400+284200121+284361168+284486074+285199370
1886+286130045+286708842+287186681+287719052+288044279+288128906+288246626
1873+288093615+287120791+286182947+286740635+288134690+289065953+289283764
1859+289045623+288719392+288500992+288335201+288116352+287692834+286586325
1846+284804097+284087787+284907582+285199128+284649925+284329807+284069657
1832+282573588+280391619+279780907+280369228+280947004+281503773+281726710
1819+281606029+281357100+280800434+279832719+278996889+278923310+279154281
1805+279153658+278879083+278167622+277604981+277748261+277432315+276311225
1792+276581991+278707819+280360708+280993655+281045675+280783100+280972580
1778+281617839+281252385+279298340+277960547+279855214+283082044+285140026
1765+285524684+285167473+285732035+286967659+287984553+288836159+288860039
1751+287868531+287473240+288831362+290829479+291926811+291879051+292190719
1738+292919860+292495841+292959100+296290923+299419862+301623391+303092618
1724+303891338+303972692+302373347+299959246+300809535+305115082+308971950
1711+311112792+311397723+310775842+311010658+310973184+309554764+309836266
1697+312793284+317555267+322528377+325173726+326241827+325765927+323430963
1684+324569370+331095970+336040957+337631194+337950793+339339012+340744756
1670+342316221+346936033+351889124+354272748+356670744+361021038+364646138
1657+364911362+362229127+364006905+371488285+375074076+378100083+385368882
1643+392382673+396339251+397487044+396617602+398608307+405700786+411317353
1630+413826697+415467395+417175732+419057272+422190471+424674948+425113236
1616+427378586+432608019+436620253+439018943+441649123+445305774+449286111
1603+453160677+457282562+461770870+466349156+471159799+476452335+481951425
1589+487378962+492814534+498811621+505841690+513240260+518911202+522637467
1576+528664893+536927849+542866267+548584691+557290819+566592507+574431928
1562+579241602+581190435+589901412+606479759+620491895+632533794+644179138
1549+655659418+665151728+671560817+675179406+680673335+696854158+714581649
1535+726110693+735839136+746473040+755556813+763037673+770095934+776318139
1522+783718441+794296308+805839205+817488705+828423298+836427957+840936006
1508+844434278+854719491+871076876+882721596+888551057+890961002+895543652
1495+904117895+910530862+913327942+917593971+926166414+935215276+942197550
1481+946421188+947480215+947045632+946450765+946213941+949904983+957687640
1468+963093739+963610057+963259773+964126998+962715471+957641993+956131968
1454+959765934+961561133+961188683+959731647+957928552+956137509+953107622
1441+948279628+941433948+932983624+928012454+926583194+923100023+918243975
1427+915045907+913953494+916470596+920588532+922641197+926779359+935667660
1414+943589059+947405268+948459515+947817477+946567966+948327284+953970554
1400+958552442+960412405+963395744+968786189+973593957+975564610+976463837
1387+977708223+977960425+978120086+980207107+982800610+983607296+983980231
1373+986636560+990667496+991990985+989784339+987342046+986216454+986867912
1360+989509071+992679017+994499082+993769490+990940686+987751346+986432845
1346+986828430+985718353+981323972+975091307+969642124+967116295+967856900
1333+969260115+969140144+968736247+969021905+969728292+970840031+971739120
1319+972008708+972453680+973780148+976047264+979077497+982385423+985201759
1306+987383745+990002947+993253380+996005298+997290136+996686610+996113147
1292+998578229+1003561798+1007925286+1011829325+1017432282+1023386146
1281+1028282576+1032649113+1036260983+1040100257+1045024741+1049162072
1269+1050771773+1050359356+1049357752+1048619156+1048526338+1049567978
1258+1052229848+1055248999+1056836742+1058008882+1059297529+1060139680
1246+1061467186+1062583428+1062363643+1062240416+1062962042+1063840697
1234+1064511896+1065374204+1067429085+1068942921+1067172935+1065433220
1223+1066162327+1065377044+1063585794+1064319334+1065985764+1067250099
1211+1067631900+1066077959+1064395389+1064135775+1064147551+1063149549
1200+1061092381+1058145754+1055575594+1055400001+1056228576+1056097384
1188+1056052014+1055976027+1054297683+1051018226+1047415291+1045318088
1177+1045664355+1047048383+1047055171+1044858777+1042564231+1042097578
1165+1042810545+1043265354+1041211650+1036433943+1032305686+1030835974
1153+1031108610+1031668358+1033058205+1036019171+1037934825+1035086765
1142+1029588679+1027725391+1029434213+1030434016+1029644370+1027422485
1130+1024638566+1022403382+1020277779+1017730616+1016255778+1015860401
1119+1014672606+1013017050+1010385450+1007365607+1007811757+1011283430
1107+1013636923+1013483150+1011662599+1009147437+1007942395+1011392665
1096+1019677925+1026679179+1027014501+1021810455+1015280080+1012071484
1084+1014355570+1020582624+1027496186+1032121712+1033726287+1033079886
1072+1031941340+1032899375+1035319918+1035618529+1034401989+1035705252
1061+1039455726+1043101260+1046600917+1050398700+1052646213+1051987759
1049+1048991744+1044345922+1039787169+1037729794+1038643221+1041741475
1038+1045147967+1044313782+1038568136+1034776032+1036587370+1038962612
1026+1036639390+1032815562+1032141038+1032314275+1030029981+1026853317
1015+1026304512+1028320881+1029463028+1027694567+1024619379+1024576087
1003+1028511574+1031644807+1030115664+1027104064+1028191906+1032359368
991+1035696663+1039101562+1043844151+1046754413+1047166414+1048517402
980+1049879127+1050357902+1053259021+1058125666+1059727332+1056510147
968+1053584854+1053423877+1053481368+1053390836+1054881675+1057572568
957+1058328481+1055835553+1055227526+1062675899+1072595866+1073741823
945+1070160777+1069596388+1069848243+1068987736+1066898845+1064105575
934+1062145174+1061552039+1062357755+1064838284+1068359414+1068334131
922+1063627562+1060717230+1061265965+1061552801+1060947336+1061203486
910+1062143996+1061309119+1058858929+1058159954+1059614080+1060963891
899+1061336618+1060529100+1060802637+1064497974+1067339869+1066199869
887+1064075929+1062326723+1059844740+1056152728+1052220843+1048667712
876+1046397271+1047108368+1048285842+1046580483+1043484100+1041747293
864+1042153684+1043026728+1042493232+1041043053+1039702386+1038639758
853+1038237246+1037897698+1035793706+1032033119+1028675945+1026804622
841+1026520141+1028224253+1030353320+1031518672+1032361238+1030223790
829+1024412270+1019778986+1018896799+1022046033+1026813765+1026921476
818+1021188712+1017061287+1018992526+1022213244+1021474578+1016661545
806+1011164291+1010174809+1014191061+1016621370+1013241753+1008043802
795+1008694083+1018183831+1025674458+1019517502+1007949322+1001920511
783+1000139651+997503548+992026104+985742805+982137377+981870351+983353640
770+984796615+983669845+981090126+980403133+980024103+977154985+971907647
756+967845194+967449955+966590279+963104337+959517196+955769977+951992420
743+950800123+951896762+951355508+948343423+944695118+940941943+937732585
729+934084904+930006727+927785743+924670311+918597169+914245455+914360093
716+915666403+914010085+912231442+914749097+919083563+922931288+924728218
702+923433129+923974037+928354427+930052097+925886782+922219359+923157099
689+926971922+931349472+931192028+927106023+927572053+931823675+934035863
675+935752859+939680795+943938720+943054316+936406603+933464270+932479705
662+931789942+935370919+938995881+936560237+933785254+934871087+936486191
648+937225203+934500854+926706352+920611875+922741357+930077241+938941991
635+956065956+968997800+955278873+938802071+932091255+915781941+898314133
621+894319977+896932944+897714348+892758070+883832712+880574936+889351162
608+903817691+909499819+904056109+903100221+910493873
##END=
