##TITLE=Sample description
##JCAMP-DX=4.24
##DATA TYPE=INFRARED SPECTRUM
##DATE=12/9/2023
##SAMPLING PROCEDURE=Instrument type and / or accessory
##ORIGIN=Default
##XUNITS=1/CM
##YUNITS=ABSORBANCE
##RESOLUTION=4
##FIRSTX=4397.6552
##LASTX=599.8556
##DELTAX=-1.9287962
##MAXY=1.6739664
##MINY=0.12448701
##XFACTOR=1
##YFACTOR=1.5590027e-009
##NPOINTS=1970
##FIRSTY=0.12707144
##XYDATA=(X++(Y..Y))
4398+81508159+81096528+80802396+80508578+80416773+80574558+80732640+80515499
4382+80050849+79850410+80087571+80346759+80521816+81359167+82554020+83077442
4367+83423829+83927906+83755927+83186721+83415064+83951276+83420694+82615259
4351+83091321+84231826+84732405+84663606+84612938+84739631+84739220+84270718
4336+83983210+84635916+85379309+85241730+84762341+84389813+83726277+83337433
4321+84196920+85432825+85647052+85149322+84771880+84541051+84770083+85730982
4305+86412812+86239618+85843395+85811586+86290248+86920358+87321685+87273445
4290+87053321+87646662+88824492+89362806+89307149+88791172+87479461+86369542
4274+86431699+87388717+88770852+89759622+89894019+89617464+89339322+89689943
4259+90738346+90986877+90073387+89774217+90509869+91260326+91720015+91420969
4243+90311451+89464400+89230837+89050427+88686348+88634256+89214961+90022576
4228+90800082+91569866+92304887+92813475+93179265+94076918+95108288+94802657
4212+93421038+93005546+94074452+94891529+94569123+94005423+94185699+94990379
4197+95049936+94073352+93756558+94608274+95217892+94836732+93930955+93259525
4182+93272075+93538164+93650778+94120723+94826323+94746771+94192705+94648915
4166+96060585+96705864+96337092+96171344+96022314+95501233+95380313+95713739
4151+95793205+95540727+95299728+95240869+95714647+96777024+97774865+98243883
4135+98039358+97387455+96787577+96511863+96545020+96572538+96783581+97684780
4120+98812038+99363829+99230646+98771559+98552888+98766589+98981236+99090438
4104+99227606+99215353+99117812+99357635+99828641+99893895+99863337+100269243
4089+100496726+100217896+99880083+99770748+99925599+100306653+100682326
4076+100944773+101511810+102116525+101923594+101217821+100642335+100287757
4062+100233505+100562610+101048948+101532628+102236756+102824534+102648282
4049+101980675+101488832+101652496+102483242+103411126+103828119+103486464
4035+102970066+103141549+103788644+103936728+103514249+103414663+103723075
4022+103769432+103476017+103240533+103388426+103792764+104050738+104159672
4008+104399992+104884876+105321177+105472042+105433905+105023680+104310251
3995+103754875+103516773+103873004+104854634+105881695+106416367+106229439
3981+105648132+105138569+104740396+104411032+104345941+104741782+105381164
3968+106040675+106358722+105979503+105881312+106537631+106856806+106582124
3954+105995628+104928414+104145889+104823676+105186426+103981900+104193794
3941+106213668+107233846+106330162+103737938+102099846+103951123+105872614
3927+104542533+102900923+103409874+103304572+102242558+103767215+107841667
3914+110340604+109916165+107455270+101779304+94006054+90372471+92981928
3900+98819541+105279838+107041345+102311358+99104536+102247949+102540657
3887+99712433+100699340+100475077+100253462+104294461+103818552+98690812
3873+94635925+93119919+96999098+99977729+98598824+100741558+105810878+105747623
3858+97092328+83315316+82626537+100287374+111422135+112134140+107278167
3844+101408228+96706294+92795248+93773839+99924127+103758039+105558257
3831+108048476+109204619+108673837+104497514+96228196+95461748+101178566
3817+103885392+110104594+116898623+116098473+109350591+104883137+104541204
3804+100996521+101069402+108269174+111966490+114885708+119132226+120745515
3790+120721132+120038805+118864722+118822771+118048658+116813555+119978876
3777+124473714+124313730+119922789+116457830+117713320+120549697+123212489
3763+123564410+119698813+118019286+120357369+118105280+108941579+103920279
3750+110816102+113889645+111821570+119997094+129734790+128164005+120250757
3736+116582277+123837219+136517874+144377320+144777672+143620335+146201768
3723+151562984+158186763+164652308+167905916+165490900+161538362+167056141
3709+180634009+191482839+196268674+199475792+208414409+220232759+228834355
3696+234014196+234743559+232168558+236927727+254298799+270239745+277977133
3682+281103160+281379868+278545728+281195110+295798146+306754963+315081630
3669+331981964+348662098+359096410+366598936+372527160+376366549+382672625
3655+392707789+395375848+390107326+395357725+417349813+437874880+450404182
3642+458873112+466631070+473915746+480349787+485733312+487895630+490011687
3628+503376753+520400980+528724129+529829623+531568592+540350914+549969994
3615+555154136+559873600+565562833+572813979+583679631+593627702+599190308
3601+603119084+607104636+609857533+613322319+620260838+625830823+626626710
3588+629697128+638282705+645272418+649149504+653362960+658178349+661352951
3574+663136728+664125193+661470707+657129095+661150242+671077705+677173043
3561+681286330+686320945+688286557+686565022+686117854+687779593+688431382
3547+688722714+692106294+697762188+701519683+702193646+702331359+704654598
3534+708121908+709910656+709293200+708107074+709133847+712888207+717621396
3520+720424836+720352271+720690552+722804889+724135458+724242432+724570009
3507+724117412+722180169+721012012+722311001+725177448+728399151+731356745
3493+732082169+729320326+726363268+726241230+727167452+727078140+726607498
3480+726925210+728174956+728861153+728433484+728640399+729075409+728406645
3466+728645369+730505077+731741594+732821663+734503819+734669748+733879634
3453+735020799+737300071+737960959+736852521+735084265+733678684+733570792
3439+734353947+736087870+737992768+736075635+730303362+726802101+728678784
3426+732897669+734850894+733331609+732411351+734577531+736271692+735486013
3412+734311815+732589439+729119070+727149941+729439383+732408140+733781988
3399+735521110+736074106+735280092+737239052+739281970+736244547+732624460
3385+733761725+736503534+736953837+735582971+734241926+733685413+732650381
3372+731893071+732477188+731858509+730577413+731896206+734501142+735359081
3358+734676018+733532253+732075134+730847028+730371110+730195928+729240191
3345+728270919+727865501+725417319+721629697+720679388+723255956+726722119
3331+727831398+727088310+728001533+728822692+725722338+720672430+717267975
3318+716494683+717436351+719097937+720774205+719547705+715279118+712809677
3304+713322605+714636581+715284470+714556064+714145981+715514324+717302613
3291+717634242+717564200+719318539+720155144+717150601+714214341+715028771
3277+715594460+710643421+704562458+703497682+705180984+707077319+710336949
3264+712627232+710874422+707410477+705765636+707038245+709577268+710210935
3250+709302223+708532755+705924378+702089577+701220169+701666113+700015461
3237+697995636+696284576+694670551+694192797+693258241+691331626+690739786
3223+690766549+689607644+688415706+687708328+687242732+688019311+689744364
3210+690843550+690682438+689422752+687755048+686750449+685744857+683040516
3196+679413012+676589309+675225707+676028667+678113793+678010566+675671957
3183+674868538+674460291+671441526+668926665+669630297+671132224+670947408
3169+668658043+665095229+661703849+659963809+660201845+659974056+657933737
3156+656277351+656318565+656456432+654138545+650214816+648376136+649257702
3142+650648755+650732025+648851749+645871216+643703354+642753428+641927070
3129+641472408+641188226+639241501+635752093+632992200+631966841+631356917
3115+629716779+627654210+626542331+624791166+620308896+615746530+614000832
3102+613665571+612492979+610460727+608883864+608077272+607215511+606216150
3088+605481512+604558043+602806380+600334455+597799369+595920775+594643234
3075+593445753+592332039+591179442+589571649+587879667+586341572+584292613
3061+582477179+581777065+580541542+578496215+577669322+577527976+575711165
3047+572369373+570020365+569795405+570061045+569152525+567408509+565374920
3034+562998537+560998669+559508403+557917088+556732146+555835899+554266644
3020+552435496+551660867+552023158+551620340+549565647+547546968+546676107
3007+546163179+545637176+545639393+545913712+546215787+546642768+547313520
2993+549645438+554346053+559941042+564724355+567327762+567237571+565707466
2980+564502873+563843056+562758705+560699270+557822003+554463121+550645104
2966+546387451+541926516+537651391+533910795+530483820+527587781+525969742
2953+525394265+525391283+525995549+526952815+527406406+526053777+523309521
2939+521427333+520976571+520949808+520168373+518249405+516669942+515940848
2926+514926270+512858693+509205305+504252508+499184745+495109232+492528421
2912+491084836+489913773+488086181+485653406+483432783+481578734+480016170
2899+478608906+477059035+475988294+475774804+475385252+474279070+472954695
2885+471786576+470827512+469920980+468900592+467729261+466469881+465171848
2872+463540618+461271631+458663216+456109931+453793957+451926144+450396268
2858+448858899+446946201+444465941+441568794+438172941+434546354+431616594
2845+429659737+428058482+426214067+424170767+422313698+420912857+419831641
2831+418611372+417219899+415800095+414316978+412902909+411647849+410494067
2818+409264279+407595696+405389028+403140878+401513318+400579794+399658122
2804+398489353+397582630+396683324+395095985+393043509+391106648+389520189
2791+388142823+386675458+385020447+383412272+382029057+380637774+379183408
2777+377972392+377043685+376060153+374696589+372971231+371122802+369443399
2764+368195297+367357852+366643668+365764625+364751615+363843592+363085517
2750+362366593+361562256+360691319+359876239+359140110+358441563+357637724
2737+356764722+356071795+355478732+354658567+353586679+352733979+352189547
2723+351324192+350211816+349585376+349348410+348844773+348007862+347178331
2710+346421900+345769576+345144627+344070713+342741864+341920285+341287078
2696+340249982+339169606+338255122+337295256+336308435+335426640+334655031
2683+333751022+332684219+331775623+330963831+330037877+329134824+328276924
2669+327505621+327118440+326910837+326301525+325306064+324424001+323911685
2656+323648568+323446242+323242424+323160033+323224569+323125547+322739246
2642+322328054+322101412+322082525+322113188+322067270+322112346+322304274
2629+322405284+322331457+322098277+321681122+321160203+320576621+320070098
2615+319790885+319581486+319503568+319616258+319467839+318974410+318377524
2602+317640744+316943421+316538901+316347184+316146635+315678000+314932217
2588+314152158+313427957+312690088+311865527+310962436+310128049+309515754
2575+309057595+308500508+307758434+307097431+306796292+306758079+306666072
2561+306296039+305646334+304964571+304523253+304417788+304613635+304964208
2548+305274637+305406023+305289089+305162042+305430549+305969303+306332780
2534+306471583+306565444+306598267+306510982+306425265+306437212+306489075
2521+306428839+306133569+305679826+305296162+305184982+305212662+305004505
2507+304444570+303812261+303477669+303299888+302933830+302527533+302201734
2494+301844298+301479751+301142291+300867590+300645995+300392666+300156981
2480+299938329+299605438+299119790+298600534+298256843+298074091+297820208
2467+297503375+297328079+297222327+296980545+296739297+296507665+295976615
2453+295305137+294892627+294680704+294480882+294269073+293988332+293664559
2440+293383206+293113934+292933477+292801249+292441309+292007083+291862812
2426+291765606+291392552+291091280+291147214+291223182+291076904+290899830
2413+290760472+290521328+290267177+290173488+290232404+290366868+290535015
2399+290699224+290758675+290658047+290547383+290488907+290216729+289545805
2386+288440693+286641699+283815224+279901932+275191778+270124015+265082633
2372+260313142+255701074+251005409+246509816+242808065+240314576+239566442
2359+240813320+243822030+248626619+255276463+261838296+264518378+261846229
2345+256575681+253039037+252060685+252405466+253431245+254436436+255019693
2332+255605033+256736564+258266707+259659576+260827389+262381733+264727281
2318+267371654+269523841+271103954+272674834+274313136+275567164+276543298
2305+277777693+279130093+280109286+280796841+281397092+281880046+282310563
2291+282808389+283359817+283737670+283762272+283552548+283271443+283005746
2278+282809364+282604744+282322893+282061115+281812183+281458914+281159362
2264+281150894+281366869+281533468+281399692+281012262+280767937+280922932
2251+281243168+281356164+281215545+281091079+281185838+281397704+281527006
2237+281532722+281503111+281451249+281340967+281224262+281141813+281110367
2224+281102549+281028894+280941609+280964759+281025682+281031188+281127648
2210+281370521+281586840+281788689+282068417+282264340+282283896+282304178
2197+282389322+282450991+282461773+282461544+282573909+282770119+282844596
2183+282841824+282905768+282908081+282758094+282615028+282550587+282483795
2170+282355467+282194853+282151401+282298042+282489625+282592968+282689123
2156+282890264+283132697+283300423+283387746+283505866+283737517+284054656
2143+284410620+284702697+284872641+285085157+285394974+285659333+285913924
2129+286259909+286635964+286890000+286992731+287120485+287264049+287235279
2116+287133580+287212205+287460105+287645648+287700186+287786668+287999509
2102+288265321+288516853+288759763+288967767+289112611+289251969+289451141
2089+289708733+289986015+290203711+290315063+290387074+290500873+290689704
2075+290906750+291129264+291400868+291543857+291372671+291205060+291428873
2062+291853235+292171196+292336590+292347620+292339859+292433204+292568298
2048+292733081+292950089+293081857+293056413+293164459+293474314+293734123
2035+293992920+294303119+294444236+294357180+294313270+294461498+294620430
2021+294540180+294185879+294010449+294411184+295063068+295498307+295702717
2008+295933221+296273243+296541062+296673805+296809741+297010175+296974026
1994+296298438+295683047+296225624+297405155+298280337+298777054+299076644
1981+299330336+299597199+299918716+300306031+300676848+300687324+300133277
1967+299951214+300928476+302115252+302657466+302880725+302978925+302913586
1954+302912210+303000087+302936124+302503160+301316593+299500050+298882136
1940+300296817+301675960+301882359+301633885+301540636+301667511+301711937
1927+301085592+299617520+298496236+298104562+297650647+298248680+300096230
1913+301029295+300619270+300357817+301128986+302245358+302916759+303163474
1900+303130288+302764766+302352103+302286343+301776493+301011077+301962762
1886+303898820+304951381+305447295+305907997+306271226+306552407+306679530
1873+305553639+302195464+299551454+301554973+305617220+307987122+308765670
1859+309171145+309686329+310165211+310456428+310439051+309589027+307249788
1846+304088358+304148364+308488236+311850138+312714098+313240465+313389572
1832+311165431+308364094+308844907+310911720+313224484+316594434+319133897
1819+320032305+320617951+320948815+320006536+319038220+320219109+322437323
1805+323267275+321962398+320288042+320935893+322899096+322528164+319684828
1792+319969661+325475090+330077792+331475994+331792713+332096661+333186366
1778+335121582+334821342+330784329+327715823+331081205+337765172+343471991
1765+345853191+345482526+346650913+349371465+351772889+354079573+353677405
1751+350651643+350872474+355855131+361287670+364840927+367000645+369979687
1738+372705744+371693805+372472908+381703048+392398641+401581067+408681080
1724+413522123+416651763+415774173+412612571+417379520+431332297+444706462
1711+453710380+458015250+459954367+463466523+466104607+466261437+471630663
1697+483229768+498910618+515087765+524980704+530851159+534089723+533932626
1684+540949445+559520178+575717282+584925362+590784423+598958160+606873597
1670+613391711+625278975+637957423+644586373+650142097+659187153+666233794
1657+665191345+656106528+654365341+667746656+674977195+678435788+689436057
1643+701244332+706291946+704362808+697652537+696951811+709450719+721086259
1630+726038903+729411779+734753018+743175802+756421544+768918005+777520787
1616+790181036+807179915+817898563+821479958+823513012+826935284+830036708
1603+831215494+830473094+827733350+822786135+816440679+810081459+803419820
1589+795391674+786192464+776964274+768645483+760094545+748927965+733937671
1576+721419953+717696485+713832245+707094217+704355391+704609025+703092570
1562+696060457+680481917+674049444+690439202+706614705+718127366+727748280
1549+736703414+743578620+747030636+748806844+756185496+782843828+812893922
1535+831243633+847447504+866488536+879872375+886246735+889711903+888826973
1522+883709852+879754542+876014099+871979571+868803135+862198462+848918846
1508+831424703+826851784+842265694+854753438+858264333+857742077+861840606
1495+871659488+877444302+877706348+882537336+896180774+909481648+918404283
1481+925477457+930826955+932781174+931524317+929847820+934886181+945660266
1468+952187327+953355484+956495370+960281692+955770710+943589438+940831266
1454+950379156+956917381+957077805+953987085+951471919+949548210+946540226
1441+942775620+936151602+925937089+920084451+918540391+914258269+909862520
1427+908988065+908129133+907714310+909253629+910715030+915352867+925159133
1414+935729897+943902028+948818351+949498279+946512087+945525076+948094150
1400+949366070+948370877+947402829+950012812+957150446+961629083+960336212
1387+959380016+960750117+960451750+960308531+962784471+963851924+961798377
1373+961603926+964568019+966864190+966784666+964210927+961049937+961784384
1360+965659482+967584720+966802712+965410741+964373263+963842824+963931295
1346+963907208+962335468+958110160+951719284+946907106+946321001+946737277
1333+945786433+944473145+942634925+941731489+944209341+948056070+950394755
1319+951456167+952620348+953759908+954162343+955068914+957099979+959180365
1306+961097957+963141792+966040814+969606304+971614354+971338392+969763517
1292+968439906+969507206+972736709+976353508+979670946+982468345+985152041
1279+987874351+990192467+992543233+994923439+996420319+997135727+998027616
1265+999120455+999497657+999394123+999369731+998576176+996522477+994268133
1252+993532462+994313247+995256444+996191459+996897767+997641467+1000191195
1238+1004029514+1006603252+1007277598+1007078942+1006990242+1007699227
1227+1009523684+1011887984+1013770632+1015438947+1017185104+1017986687
1215+1018101079+1018894175+1020730255+1023201148+1025052215+1025924452
1204+1027372472+1029652355+1031599615+1032529584+1032259509+1031957090
1192+1033068280+1035289209+1037380606+1038767147+1039292769+1038908761
1180+1039377645+1042191484+1045436127+1047377117+1048532046+1049089859
1169+1049502388+1051301994+1054272586+1056534577+1057283858+1056566998
1157+1055301118+1055530131+1057955604+1060608790+1061443254+1061182966
1146+1061610024+1062523094+1063046880+1063656077+1064063254+1062800127
1134+1060545553+1059438798+1058854451+1057654255+1058499730+1061601536
1123+1062335142+1060208648+1057530076+1054826576+1053852334+1054116139
1111+1053077743+1052940259+1055533343+1057771323+1056656615+1053156273
1099+1052425878+1055239717+1055824828+1053629515+1051712841+1050384183
1088+1050313530+1051737845+1054731224+1059774403+1064479835+1066423196
1076+1066715445+1066470987+1065621383+1064534814+1063623809+1064245317
1065+1065067011+1061040436+1054711573+1053894314+1057301675+1058212068
1053+1057259237+1058900025+1061792546+1062355788+1061524383+1061455794
1042+1060913962+1059314083+1057483891+1054437445+1051164280+1048894949
1030+1046878641+1045739005+1046411975+1050100039+1053725708+1051161069
1018+1045789396+1043027018+1040794696+1038323191+1037269426+1035869120
1007+1033521871+1033622805+1037128577+1040392948+1040408012+1039236720
995+1040297749+1042665185+1043488791+1043736614+1046735346+1052253755
984+1056883793+1057878069+1055778184+1054610792+1054947085+1054233819
972+1054346758+1056587414+1058913635+1061511384+1064169464+1064895959
961+1064532367+1065839538+1067943016+1067484608+1066581632+1068431934
949+1069731841+1068267457+1067303462+1069247052+1071980679+1072721243
937+1072499648+1072516088+1072458433+1072285163+1069984252+1065287766
926+1063714114+1067796509+1072662748+1073741823+1070991450+1068061996
914+1067726085+1067574684+1066031159+1065039560+1064853597+1063653248
903+1061354707+1060908916+1062875980+1063796161+1063033345+1062932488
891+1063557514+1064575417+1065572828+1062803032+1056872017+1053910677
880+1052979485+1049947415+1047419402+1046768761+1044051650+1038551669
868+1032603296+1027299983+1024393163+1023847966+1022537508+1019943429
856+1018445172+1018446549+1018202548+1017148248+1016007083+1015823872
845+1017535849+1019494426+1019941594+1020059350+1020111500+1019535029
833+1018158275+1015166731+1011831324+1010016654+1009953723+1011252330
822+1011817331+1011355023+1010631969+1007750841+1004549171+1004041289
810+1004427056+1004652781+1005102548+1005968592+1006961491+1005920496
799+1003241923+1001289464+999697460+997521875+995027049+992852917+991362383
785+990195831+988684881+986667120+984438162+981866871+978243955+973253460
772+967923614+963523812+961100174+961888530+963548816+960924916+954210593
758+949763918+951394689+953108349+947997498+941452315+939254632+937837657
745+934122754+929548000+925984191+923364880+920215512+916008708+911332256
731+906500732+901630288+897996132+895904658+893164379+888672819+884216357
718+881437845+879079661+876756499+876906447+880581130+884937423+885692668
704+883474416+882111808+882658075+883105472+880719685+876955996+874827361
691+873753944+872775726+872420928+872696508+872375355+871798884+873364507
677+876910194+879795757+879432242+872459772+861994530+865362741+880764034
664+889143538+889199434+886119726+883562427+882121519+881175493+880131362
650+880845623+884181795+884960898+882145453+878777318+874949705+873537012
637+877053719+882827980+884663372+878477346+870524670+868091015+869157015
623+867394801+859642234+849883147+843798361+843061084+845023790+846912096
609+852072954+858214860+855294429+845417433+837662037+836619818
##END=
