##TITLE=Sample description
##JCAMP-DX=4.24
##DATA TYPE=INFRARED SPECTRUM
##DATE=12/9/2023
##SAMPLING PROCEDURE=Instrument type and / or accessory
##ORIGIN=Default
##XUNITS=1/CM
##YUNITS=ABSORBANCE
##RESOLUTION=4
##FIRSTX=4397.6552
##LASTX=599.8556
##DELTAX=-1.9287962
##MAXY=1.814375
##MINY=0.1798279
##XFACTOR=1
##YFACTOR=1.6897684e-009
##NPOINTS=1970
##FIRSTY=0.19807871
##XYDATA=(X++(Y..Y))
4398+117222397+116335216+116426963+116655194+117168790+118137657+118373145
4384+117221939+116128952+116425922+117322637+117728383+118249131+119357083
4371+120253867+120456763+120036475+119490444+119317576+119071091+118595943
4357+118619665+119389305+120388384+121232479+121718306+121551046+121133474
4344+120786309+120322387+120185392+120208646+119952399+120100117+120385906
4330+119579026+118102145+117563231+118240295+118940657+119319498+120220560
4317+121212152+121221923+120675249+119863218+119092449+119455938+120402794
4303+120477768+119698498+119247469+119816260+120626209+120863717+120582055
4290+119733613+118586737+118307139+119498998+121241756+121797257+120710611
4276+119634362+119253616+118863769+118808768+119404667+119936588+119963608
4263+119850079+120150991+120987758+121754056+121862002+121518303+121135290
4249+121274534+121895751+121674231+120490546+120037259+120717516+121041903
4236+120543457+120414302+120943462+121240407+121060836+120954794+121287259
4222+121614230+121167963+120151873+119807098+120762261+122008001+122599226
4209+122694448+122311903+121564758+120716493+120017779+120159624+120909379
4195+121298388+121350082+121575799+121800608+121513558+120843346+120460458
4182+120742269+121182743+121357868+121639116+121929825+121663040+121138359
4168+121296439+121897991+122011105+121923943+121842196+121382093+121063050
4155+121343080+121597925+121457623+121346889+121412781+121505296+121649742
4141+121998794+122566942+123035599+123339968+123473656+123218256+122591818
4128+121645633+120897359+121088006+121970372+122806574+123226818+123041207
4114+122368738+122017825+122190323+122115101+121961043+122226628+122462319
4101+122393006+122204838+121955505+121556134+121157557+121206129+121618260
4087+121808924+121712750+121708076+121862082+121778315+121179453+120571032
4074+120439064+120661580+121310734+122240508+122759246+122595443+122134369
4060+122074527+122468510+122540336+122167086+121933661+121976801+121989535
4047+122012190+122384646+122804326+122760427+122294689+121696445+121614133
4033+122306030+122864900+122786565+122761195+123092566+123239561+122979355
4020+122406666+121830900+121918476+122461032+122597498+122533052+123078351
4006+123985488+124130905+123358116+122731662+122558079+121940901+120947898
3993+120980765+122160507+123166870+123518039+123483541+123214349+122928490
3979+122631043+122227783+121918917+121952868+122326744+122570372+122609790
3966+122899371+123220434+123337640+123366979+123252630+122904733+122190058
3952+121240116+120585794+120894396+121516460+121482297+121760184+122501914
3939+122548458+121743253+120523016+120189475+121519114+122426525+121295875
3925+120177473+120584084+120397873+119429138+120106229+122124537+123123413
3912+122906787+121964685+119256173+115407610+113829149+115322874+117949047
3898+120487169+120668520+117717510+115974928+118084640+118694772+117492154
3885+118082259+117613046+117199601+119484130+119397180+116927278+115179194
3871+114469696+116413030+117744274+116922084+118664992+121707238+121064178
3858+115592833+107376918+106421622+116225752+122584093+123051146+120402891
3844+116910788+113695497+111094368+111678300+115550222+118261115+119437992
3831+120303304+120142190+119356818+117238835+113295729+113425528+116983223
3817+118649463+121592201+124358624+123136447+119086894+116769349+117217900
3804+115741918+115640488+119378432+120989918+121690616+123359457+124059802
3790+123889261+123360912+122630770+122343658+121591461+120825013+122527285
3777+124939320+124953297+122524842+120429178+121201588+123012926+124448731
3763+124226867+121472755+119838818+120463958+118815047+113671175+110950627
3750+114879411+116691587+115362345+119203403+123838714+122483783+118009586
3736+116053580+119372806+125154199+128860159+129105656+128602386+129809695
3723+132396839+136341302+140728250+142980653+141706296+139922612+144162776
3709+153252884+161736951+168699446+176024731+185359622+193137895+196234445
3696+195440237+191190813+184373065+179624763+180270187+181327415+178909004
3682+173544627+166610792+158824636+154032842+155766622+156001828+153976809
3669+156709192+160756867+161928753+161887183+161591870+160068674+158805112
3655+158976419+156195711+150387465+150056949+157078175+163005999+165463087
3642+166022601+165862264+165201708+164413267+163253833+159991407+156396490
3628+159137445+164164392+165033734+162523170+159754437+160254761+162043534
3615+162176075+162042123+162102653+162524228+164456583+165888666+165001158
3601+163450661+162714337+162141031+162186428+163460908+163825340+162493963
3588+162742150+165377336+167082457+167293359+167030763+166817356+167047042
3574+167648373+167314823+164678932+161720778+162804356+166209341+167829698
3561+168125963+168475651+168660186+168369000+168151131+168142824+167599607
3547+167194240+168148397+169438274+169737449+169440673+169487040+169827450
3534+169797503+169336809+168711844+168214624+168106051+168356584+168909731
3520+169602421+170020099+169863024+169123913+168189174+167738956+167846153
3507+167625057+166890056+166856034+167749344+168209580+168031958+168143353
3493+168329811+167824354+167073991+167030551+167459376+167490981+167368528
3480+167622341+167765729+167589060+167670119+168087867+168341557+168261997
3466+167920846+167432814+167260255+167551811+167695199+167445107+167248209
3453+167305634+167454208+167654881+167923191+168090813+168253143+168832551
3439+169663110+170186679+170260296+170055566+169986553+170315888+170636051
3426+170515361+170252042+170438076+171094787+171787848+172321576+172796592
3412+173239261+173290814+172877634+172886822+173817417+174893534+175318425
3399+175242710+175291811+175656243+176186727+176753084+177200532+177664948
3385+178254286+178619758+178771207+179246610+179939988+180346555+180704884
3372+181292705+181910668+182579090+183430936+184378638+185178191+185714829
3358+186189422+186684772+187260001+188090136+188868030+189250592+189566434
3345+190136460+190704157+191134551+191695406+192425857+193269325+194008771
3331+194299321+194491828+195039120+195723891+196088588+196182945+196436247
3318+196757556+197110118+197687922+198099162+198104982+198199163+198697971
3304+199087377+199154750+199775640+201322698+202897711+203783103+204288277
3291+204946858+205838351+206740269+207511426+208459587+209657099+210564748
3277+211243082+212069513+212751974+213152120+213365827+213257131+213081255
3264+213208894+213415263+213396480+213340359+213488633+213698759+213898409
3250+214102733+213991162+213400431+212924710+213123549+213375968+213011060
3237+212501300+212188333+211977536+212073834+212203360+211765964+211167525
3223+211013096+211129712+211322078+211338568+210911120+210466951+210367461
3210+210261022+209978602+209783820+209479460+208645498+207488145+206459718
3196+205785247+205446036+205192029+204966946+204878850+204486481+203357859
3183+202006976+201103895+200674471+200355578+199870421+199301771+198883688
3169+198723968+198700758+198597652+198365656+198055705+197638150+197126538
3156+196729461+196606531+196555878+196400832+196475753+196818756+196791842
3142+196261553+195771458+195560697+195186706+194315812+193383295+192779600
3129+192390618+191981230+191457236+191004602+190649342+190118999+189351141
3115+188534974+187831084+187314305+186801441+185865361+184528834+183139944
3102+181811090+180743174+179914662+178929868+177821564+176935185+176408035
3088+176177220+176091240+175883989+175374617+174815738+174371904+173911069
3075+173563498+173394519+173116014+172718108+172595901+172796751+172915641
3061+172828144+172775622+172837721+172955536+173232189+173535544+173437306
3047+172928569+172502038+172475212+172550028+172384276+172080109+171631126
3034+170896001+170177614+169790060+169494624+169177653+169005675+168845938
3020+168535704+168157269+167934479+167958589+167991393+167826171+167377346
3007+166729895+166269430+166059815+165767112+165333191+164866201+164586814
2993+164847647+165553617+166259765+166683774+166915241+167137678+167241048
2980+167304188+167557825+167802802+167844866+167753577+167516784+167186691
2966+166869720+166525112+166229288+165977927+165664360+165479101+165462205
2953+165374585+165230068+165260016+165469595+165646441+165651837+165464569
2939+165265942+165146628+164902462+164560852+164369845+164263212+163977141
2926+163641598+163493977+163215173+162501318+161728644+161355500+161292395
2912+161345658+161523774+161682982+161636632+161530141+161600283+161637126
2899+161348586+160958845+160810166+160933554+161101863+161211406+161477971
2885+161921645+162354579+162725977+162922929+162962083+163081361+163253974
2872+163349390+163403129+163483765+163612850+163648318+163559657+163543096
2858+163544930+163329830+162806878+161999953+161154509+160660481+160622438
2845+160847203+161103856+161300578+161611870+162083552+162372674+162361263
2831+162370064+162530049+162635394+162621037+162589626+162549255+162534810
2818+162628974+162780546+162895909+162969331+163040920+163144254+163355721
2804+163741335+164117707+164289738+164415013+164623728+164839692+165100754
2791+165352698+165299804+164972781+164806500+164922445+165027931+165009748
2777+165033557+165112271+165102712+165076062+165068672+164926290+164808810
2764+164937789+165138709+165265183+165287758+165128638+164978918+165130578
2750+165492770+165833833+166076993+166157312+166100274+166073748+166078792
2737+166031261+166051243+166216713+166424688+166579152+166595907+166522043
2723+166540086+166656842+166796227+166992244+167225580+167408634+167510681
2710+167567702+167660930+167819557+167943985+167979559+168021800+168068484
2696+168073670+168212490+168522459+168715689+168749058+168898214+169158605
2683+169289348+169261993+169166595+169084742+169094654+169109292+169008321
2669+168878231+168849695+168894598+168902147+168836925+168748564+168661350
2656+168560855+168428031+168276230+168197904+168223672+168260215+168232279
2642+168079613+167813807+167624492+167582093+167512110+167370221+167241366
2629+167137025+167016530+166769542+166426857+166249976+166313169+166308425
2615+166025388+165743814+165749511+165867749+165806513+165538450+165223736
2602+165015127+164876465+164661683+164483074+164485014+164500993+164414960
2588+164305981+164238026+164196280+164086331+163919115+163822324+163712834
2575+163511896+163354328+163213091+163028009+162890882+162834462+162759434
2561+162512870+162162936+161849933+161576843+161422873+161429734+161449910
2548+161310155+161039411+160809848+160684432+160617200+160525330+160375292
2534+160270723+160286508+160264550+160085518+159892781+159783203+159710327
2521+159607416+159495386+159489460+159551154+159521171+159354837+159159297
2507+159038025+159010776+159117991+159324431+159428842+159343532+159271961
2494+159328788+159387942+159477185+159703854+159980842+160186524+160382047
2480+160669018+160864364+160821401+160740870+160753128+160777485+160716161
2467+160640358+160777097+161084403+161287827+161319803+161302748+161335323
2453+161447265+161640089+161865119+162069249+162291174+162519625+162645094
2440+162727406+162958890+163251258+163352599+163310941+163346779+163490344
2426+163606906+163697366+163930050+164310002+164613022+164701525+164700378
2413+164735740+164790132+164920646+165218992+165579702+165790570+165842369
2399+165931400+166179164+166511214+166778132+166902631+166870814+166660299
2386+166131879+165048513+163191962+160413159+156807536+152740355+148621198
2372+144590128+140494790+136392731+132604655+129501649+127483896+126968448
2359+128277355+131445397+136260754+142402752+148378655+151196383+149373942
2345+144959137+141829640+141067055+141606762+142729415+143962059+144931597
2332+145630089+146741039+148609857+150562847+152107136+153714019+155938582
2318+158525478+160667554+162079513+163375175+164993874+166738942+168364256
2305+169750165+170899405+171902541+172742658+173404907+174037526+174708205
2291+175283610+175739243+176207168+176681672+177049878+177277782+177370094
2278+177364327+177406144+177589603+177808812+177955569+178011267+178003048
2264+178059063+178247355+178469192+178623056+178747132+178971174+179266293
2251+179507566+179689861+179813919+179912404+180052794+180165212+180205177
2237+180235460+180268829+180340117+180509626+180695237+180784850+180818078
2224+180868713+180948344+181036106+181079492+181116248+181241558+181405105
2210+181545919+181700012+181852819+181965025+182053104+182140600+182226792
2197+182325524+182447201+182535227+182597661+182761949+183011089+183194107
2183+183287142+183341005+183383457+183432505+183474693+183501466+183521713
2170+183586176+183773127+184043925+184287491+184433031+184440138+184386469
2156+184421249+184569099+184797868+185071999+185292302+185415231+185468283
2143+185500964+185566291+185625110+185659714+185730932+185824284+185895925
2129+185979560+186103759+186207817+186272950+186392105+186583483+186726819
2116+186760241+186763539+186793663+186858584+186962818+187056047+187106136
2102+187120687+187135678+187208924+187288484+187293581+187273810+187306386
2089+187390778+187505383+187642475+187756921+187835599+187930186+187979058
2075+187917505+187898986+188007718+188072111+188000505+187946977+188049200
2062+188241072+188411057+188529912+188590125+188580989+188552911+188582805
2048+188632736+188641184+188632206+188638820+188658962+188698786+188844079
2035+189063323+189193519+189246518+189288353+189306166+189337454+189428090
2021+189480684+189380577+189338900+189633808+190059387+190267132+190336957
2008+190496236+190686185+190786557+190882079+191056508+191216581+191160336
1994+190822483+190655074+191073510+191698704+192112148+192316014+192443441
1981+192634995+192895352+193157754+193380949+193556119+193560740+193307773
1967+193253681+193767145+194408547+194826048+195111572+195269617+195367414
1954+195531684+195718283+195916451+196069769+195890666+195449919+195658123
1940+196726409+197617339+197980342+198182391+198455975+198840654+199179142
1927+199172986+198765168+198563437+198699964+198779030+199417893+200632883
1913+201272274+201256366+201427903+202073273+202733247+203187574+203640914
1900+204001977+203980195+203904268+204187676+204226795+204056651+204812746
1886+206078707+206886161+207391371+207814710+208197784+208583945+208874936
1873+208482867+206986462+206016202+207557405+210085517+211593475+212197575
1859+212635976+213254379+213976947+214556443+214878740+214822567+214019240
1846+212756154+213258330+215970519+218058925+218884033+219584590+220019534
1832+219089574+217853913+218480748+220020504+221614142+223607732+225231352
1819+226211824+227036597+227602707+227495651+227412017+228417392+229916231
1805+230711216+230501301+230092477+230780105+232157973+232295964+231216161
1792+232059612+235519571+238107278+238969795+239377843+239774497+240599094
1778+241832039+241753166+239725802+238437706+240692393+244507596+247474286
1765+248505658+248209410+248799877+250092646+251232203+252351531+252054225
1751+250370957+250196775+252317368+254600733+255862002+256383138+257420084
1738+258334276+257192991+256811857+260414799+264420586+267496307+269481502
1724+270401215+270434337+268265736+264730343+265217881+270476489+275347438
1711+277861264+277896362+276710878+276465019+276011768+274234777+274641097
1697+277928708+283280563+289006815+291621348+291913715+290515177+287208218
1684+287713305+294407647+299748990+301562631+301825174+303061699+304082419
1670+304976999+309339246+314334447+316283539+317887406+321634124+324587710
1657+323559124+318967244+319402947+326676204+329408552+331285227+338519718
1643+345797349+349237361+349225262+347074297+348820565+356916585+363227289
1630+365973605+367846506+369931296+372761776+377601948+381638089+383255042
1616+387217107+394562076+400411045+404573042+408964955+414064355+419271657
1603+424627392+430507262+436596234+442329329+448180027+454814933+461681024
1589+468340092+475125159+482482368+490639870+498978785+505392136+509769939
1576+516808202+526110834+532674275+539052917+548673966+558958094+567630735
1562+572210586+572458526+580246252+598357859+614293881+627484257+638889493
1549+649673909+658432125+663791140+667273164+673772865+689639609+705642580
1535+716030166+726005188+737582420+747261495+755369190+763206053+769629986
1522+776445812+785576449+795404520+806591129+817809837+825156887+827919253
1508+829232710+839785307+859265998+872514505+878903940+882587942+888232182
1495+897086060+904234236+907287611+909533921+915394107+922811211+928615312
1481+933212130+937626088+940573289+940702039+940506269+943480984+948131136
1468+951329840+952585941+953240695+953411773+950909022+945323408+944181029
1454+948665394+951360246+951441728+950280160+949398525+948690156+947415288
1441+944963121+938670759+928423422+921146708+918008746+914335045+911088087
1427+910237422+910712914+912705252+915587831+917097340+919000859+924347387
1414+931367378+937965846+942563511+944120922+945281009+949457151+954575316
1400+957193201+958272298+959570306+962511157+968310743+973954630+976288207
1387+975154153+973657131+975344350+980328334+984988997+985636766+983945103
1373+984711392+987843569+989694882+990072242+990536657+990815250+990124094
1360+988776845+988642310+990440501+991197407+988827357+986472545+986813008
1346+987213296+983778963+976407504+969867378+967987917+967721529+966374632
1333+965579559+964346879+960331163+957902276+961441090+966751145+969359153
1319+969955210+970121562+971231983+973705103+976208277+978236876+980192459
1306+982518205+986534980+990749147+992333014+992501270+992888506+993634689
1292+994985749+997304652+1001669932+1008430449+1015026448+1018969359+1022317553
1279+1027516355+1033383032+1038260559+1041656726+1044057817+1045169155
1267+1044789538+1045499671+1047197966+1047500404+1049411189+1055072360
1256+1059990593+1060506368+1058698794+1058802358+1061660175+1065282800
1244+1068387605+1069117562+1067393588+1066716188+1068811667+1072209386
1233+1073741823+1072026103+1069869671+1069465503+1070405975+1071524438
1221+1072117744+1072789923+1072551119+1068749373+1063469865+1061350965
1209+1062083603+1062955784+1063383021+1063169473+1061877110+1061279923
1198+1062715992+1062833313+1059469175+1055507357+1052863441+1051412204
1186+1051519648+1052565235+1052215460+1049494435+1046164724+1044927952
1175+1046032941+1045881405+1043121367+1040683308+1040205418+1040927262
1163+1040890648+1038971962+1036304906+1034546716+1033853867+1031908655
1151+1028049978+1024746299+1023006804+1022419212+1022979926+1024409786
1140+1024966337+1023888862+1022494769+1020383840+1017717208+1015705822
1128+1013612319+1011390983+1009120405+1006104138+1003529781+1002647018
1117+1002179710+1000907100+1000244304+1003623398+1010900324+1014266225
1105+1010408677+1004106650+998088648+995436901+997839827+1004165981+1013108608
1092+1019422981+1020070891+1018489070+1016762344+1015070117+1014536635
1080+1016453698+1019371340+1020507440+1021973492+1026133620+1029925912
1069+1030824337+1030159848+1031509849+1035386234+1037613636+1038790302
1057+1042766018+1046111743+1044283076+1040608739+1037223860+1033992917
1045+1035264398+1040628069+1044142827+1044437928+1043023023+1042746617
1034+1045059242+1044686750+1038445465+1032558611+1030917742+1031052135
1022+1032092220+1033704729+1033777605+1032676426+1033991506+1037715437
1011+1037897238+1033008705+1027749656+1024331972+1022910224+1024929864
999+1030851004+1037141743+1039099089+1038140769+1040058256+1043831288
988+1043646453+1040285208+1038150293+1039311297+1042795789+1046651292
976+1050552862+1053712764+1056526771+1059099576+1059213016+1058986135
964+1061115970+1062137007+1059347269+1056462432+1056637249+1058082631
953+1057462798+1054274677+1052177223+1052678465+1055365838+1059899163
941+1061986882+1060840058+1060539384+1061364651+1061273080+1059465648
930+1057086215+1055955547+1056746034+1057616592+1056050998+1053180835
918+1052602626+1056463702+1061926422+1062632323+1057854903+1054146844
907+1055407250+1059026065+1061104683+1060329152+1058222527+1056919440
895+1057776242+1060195323+1060247669+1055408167+1049243356+1048151348
883+1051646140+1052471689+1050352365+1048258016+1043848572+1039453239
872+1039489853+1039041452+1033827412+1029439556+1028915457+1028548468
860+1027614980+1028372240+1029231087+1027162346+1023683075+1021823860
849+1021864848+1024204422+1027831562+1027440728+1023072272+1020608464
837+1019702843+1017917563+1017107534+1017463800+1016522341+1013539584
826+1011420472+1014134866+1019067773+1019141707+1015053397+1012555514
814+1013101624+1015150611+1016559449+1015814113+1014502560+1015134456
802+1016660191+1016559308+1014842953+1013163141+1011556629+1009148906
791+1008198558+1007438407+1001546756+994401755+991825776+991297303+990193937
777+989213747+987568080+983620795+979874500+980447206+983225375+982789743
764+978565135+973356739+968970082+964696373+959336087+955035076+953267997
750+952434264+951704166+950392825+947335569+943456151+941342965+939919735
737+935921303+932174162+930920670+927294377+920211810+914620058+911610986
723+908447839+904659004+902846421+903687350+902961273+898979137+896659035
710+898572430+901608027+904369053+909004601+914157265+915694005+914175466
696+912027782+909508947+907678939+907426449+907078367+905472983+903588724
683+903111328+905647800+910837501+915599542+917155754+915390933+910040665
669+903409533+905791012+913313726+916188404+917909062+917154131+911056622
656+906267703+907367894+911355321+914660340+917082808+918242965+914941473
642+910311145+911822488+916529573+918871756+925012864+933948507+926070092
629+902515270+891950046+897919087+900957577+902988998+910551571+913776589
615+913841493+919960025+924954239+916604988+906221565+907458266+910988121
602+910689563+912525708
##END=
