##TITLE=Sample description
##JCAMP-DX=4.24
##DATA TYPE=INFRARED SPECTRUM
##DATE=12/9/2023
##SAMPLING PROCEDURE=Instrument type and / or accessory
##ORIGIN=Default
##XUNITS=1/CM
##YUNITS=ABSORBANCE
##RESOLUTION=4
##FIRSTX=4397.6552
##LASTX=599.8556
##DELTAX=-1.9287962
##MAXY=1.6848725
##MINY=0.12614237
##XFACTOR=1
##YFACTOR=1.5691598e-009
##NPOINTS=1970
##FIRSTY=0.13153473
##XYDATA=(X++(Y..Y))
4398+83824939+83395461+83059445+82959687+82545384+82321205+82425455+81936018
4382+80771453+80408401+81807353+83459400+83821473+83666627+84050067+84828828
4367+85263576+85283671+85260215+84886299+84557349+84864154+85180399+85372005
4351+85618746+85978389+86759666+87075493+86332581+85783488+86149540+86558525
4336+86229204+86093626+86931140+87403304+86822959+86494046+87319813+88515839
4321+88764214+88348534+88320957+88327652+87630008+86401552+85685401+86296409
4305+87420654+88224665+88868132+89094361+88734852+88264198+87940479+87701477
4290+87808206+88524433+89312547+89883140+90538601+91106943+91502035+91774160
4274+91540315+91057980+90833327+90448263+89906178+89811225+89891022+89765633
4259+90144677+91207015+91667859+91224042+90764983+90706438+91133039+91528948
4243+91374681+90971640+90860809+91316972+91945530+92372435+92607724+92554288
4228+92434170+92687265+93257933+93745424+94130982+94515002+94584343+94139025
4212+93741512+94501726+96075903+96756130+96480900+96104363+95592800+95148754
4197+95052832+94759160+94401730+95072433+96281611+96650437+96322445+95842969
4182+95351442+95140008+95468351+96085732+96297404+96125208+96213096+96920834
4166+97999496+98496739+98019096+97045681+96068762+95654649+95850756+95972774
4151+95949223+96487975+97486346+98073576+98237738+98506511+98694537+98225174
4135+97381820+97159123+97869682+98683626+98304582+96885707+96125721+96585577
4120+97459177+97973333+97963723+98111808+98869259+99545118+99245871+98402394
4104+98409411+99343873+99938985+99742545+99255102+98937100+99101139+99857165
4089+101013582+101951747+102138529+101783416+101339257+101157004+101173813
4076+101091613+100999015+100864462+100796327+101203137+101803453+101953513
4062+101756323+101888549+102180788+102119850+102022238+102066528+102233796
4049+102317106+102008601+102095587+103010524+103771374+103824705+103665472
4035+103902110+104296148+104084666+103530407+103566217+104096061+104277013
4022+103972819+103799483+104010168+104397378+104766735+104750620+104335082
4008+104297012+104908334+105104071+104473576+104097524+104133040+103882709
3995+103493988+103407439+103841685+104865563+106020993+106394794+105708831
3981+104791160+104347855+104109318+103753683+103634552+103982904+104494705
3968+105006193+105438093+105593081+105756161+105896838+105746665+105713352
3954+105370204+104019702+102876978+103431626+103803130+102604454+103109665
3941+105696600+106678581+105097946+102182108+100714326+102573268+104443862
3927+103398959+102298798+103339760+103406271+102100744+103314984+107143395
3914+109200030+108370350+106079243+100876295+93173027+88771830+90418321
3900+96235801+103349370+105510711+100554599+96725486+99612142+100239019
3887+97580986+98224187+97959136+98374009+103227922+103158580+97915150+93497951
3871+91501466+95052481+98027348+96693987+99084007+104586885+104856475+96292285
3856+81987212+80388478+98053491+109677834+110662246+105841675+99765298+94678394
3840+90267758+91081769+97877127+102504876+104513232+106628564+107216240
3827+106205942+101891360+93638458+92613877+98314914+101548773+108327617
3813+115264251+114292830+107564070+103447067+103339190+99643869+99317283
3800+106377350+110128489+112937950+117216978+119137988+119222970+118371107
3786+117064003+116701644+115318522+113623761+116636015+121330153+121714866
3773+117673074+114082991+115319700+118523693+121529622+121875040+117571588
3759+115081002+116750142+114421571+105355219+100096632+106913632+110424412
3746+108746735+116832303+126458708+125080581+117185583+112821821+119185203
3732+131978318+140904762+142151812+141139890+143692382+148965403+155358964
3719+161801811+165188674+162897396+159082470+164995140+179446940+190985741
3705+195776285+198472541+206896015+218983244+228454157+234418154+236067675
3692+234396997+238763874+254799518+270387698+278399054+281372297+281387149
3678+277900158+278378921+291274150+302265605+310010096+325166936+340456307
3665+350265457+357438292+362690032+365145311+369743479+378736825+380994049
3651+375247174+379719460+401232343+422094958+434730692+441983067+447804735
3638+453654360+458748500+461970431+461916531+463299719+476679656+492399397
3624+499480460+500209241+501482349+510604843+521947717+528131990+531480678
3611+534116044+538371588+547230542+555560402+559491514+563461068+569732441
3597+575059619+579357896+584494997+587289976+586222786+588125344+595397965
3584+601724417+606585746+612119981+616756400+619244194+620808799+620001883
3570+614497846+609766388+614538794+623333439+628339454+632053444+635757938
3557+636697688+635762762+637544224+642259386+644839712+644894335+646720733
3543+650579712+653294733+653461335+652814298+654176594+656996302+658402889
3530+658401749+659141547+660556187+661034571+661616882+664430360+667791355
3516+668367816+666022010+663173358+662740100+665654771+668764532+669270114
3503+667966390+666947327+667871579+670490270+672362478+671800603+669226355
3489+667206461+668654376+671400620+670579763+667794242+667692214+669259098
3476+669457076+668577798+668177815+668163077+668545131+670684374+673116406
3462+672446881+669743939+668722977+670220272+671967889+671682393+669450771
3449+667657723+668210634+669484046+669682024+669405265+669119085+669962126
3435+672513051+673700996+671505991+668513755+666766138+665645730+664982131
3422+665564974+667306817+668152137+667181315+666615185+667363263+668221498
3408+668408384+667327557+666058096+665957664+665947560+665735147+665886783
3395+665257295+664189079+665078537+667225985+667789911+666960166+666900681
3381+668120078+667856005+664019513+660181806+659476347+660358512+661464866
3368+662722323+663367766+662666561+661423538+660859232+661112516+662067613
3354+662545541+661323181+659770731+658779549+658490483+659427194+659467459
3341+657995309+657638250+658335200+658708365+658106757+656710578+656327309
3327+655936367+652629462+648086372+646412674+648845314+651952264+652128591
3314+650910714+649805120+647858082+645324326+643918270+645345369+647993081
3300+648685700+647145482+645780602+646136826+645656163+643756530+643287110
3287+643064670+641478261+641811162+645764876+648829740+647549263+643799453
3273+640967362+641774089+644568423+644327825+641398417+640422808+641499229
3260+641264101+639201436+637348373+636897034+636854757+635817574+633560008
3246+631384185+631855542+633483202+632010065+628979616+627632551+627394119
3233+627640794+628176156+627450907+625566771+624934358+625110875+623752604
3219+621702360+620022281+618006717+616596559+616946098+617931772+618537064
3206+618048880+615745846+613597182+613619365+614972469+616075252+615993964
3192+615813649+616124899+614634706+611755894+609942335+607905651+604661992
3179+602677348+602888925+603777434+604485893+604021754+602037186+600825310
3165+600569936+598619973+595588840+593883425+593360256+592904967+592574915
3152+592653468+592231264+590756722+589352603+588010211+585788274+584344766
3138+584659928+584004875+581418776+579372672+578565603+577457161+575541498
3125+573327500+571306884+569167679+566204160+564197751+564393412+564222441
3111+562720321+561254515+560049705+559260147+558363396+556427487+554302830
3098+552350283+549826251+547861436+547542893+547272667+545720103+543774508
3084+542591729+541930675+540686968+538669998+536899590+535941835+534752750
3071+532574230+530588903+529591187+528996569+528120329+526636252+525016949
3057+523672087+522441865+521457064+520452169+519025488+517825008+517246077
3044+516692597+515667608+514058104+512250547+510794769+509748470+509096836
3030+508501914+507146075+505049185+503209720+501950781+500542826+499063232
3017+498221179+497710849+497419808+497634272+497504477+496590898+495778169
3003+495365993+495232666+495606894+496382284+497686121+500231691+504429459
2990+510022077+515693969+519454491+520785830+520953838+520676699+519959617
2976+518999506+517353803+514241610+509925063+505809874+502484205+499105737
2963+495503195+491905059+488517703+486100827+484691315+483903656+483620554
2949+483761630+484404642+484923821+484669663+483852263+482518683+481370508
2936+481331307+481351174+480016720+477706012+475643803+474097355+471906756
2922+467973820+462777196+457954498+454456605+452214536+450776801+449302752
2909+447526836+445583178+443253098+440990783+439560228+438798171+438037900
2895+437049415+436294233+436305819+436744774+436616613+435592991+434347499
2882+433555928+432908966+431649647+429804978+427740186+425522275+423316368
2868+421338068+419441170+417405056+415420298+413545469+411435816+409064066
2855+406589795+403915266+401050242+398242576+395721127+393569842+391727187
2841+390133903+388738635+387253761+385417031+383704170+382696654+382056682
2828+381271150+380124457+378578047+376984535+375370967+373673529+372448662
2814+371590807+370304633+368851514+367976832+367228716+365952531+364599883
2801+363435413+362056137+360601878+359459895+358488389+357352674+355861874
2787+354185365+352741096+351463962+350014148+348549254+347336808+346242003
2774+344922135+343302566+341764095+340578695+339732843+339141112+338436603
2760+337363069+336321594+335659286+334931720+333784989+332703668+331904918
2747+331067841+330355393+329872223+329214283+328349629+327502638+326734276
2733+326205220+325977044+325746399+325342617+324977011+324609353+323883269
2720+322902418+322176106+321728832+321235330+320667301+319899699+318936777
2706+318220759+317693336+317041930+316318903+315522508+314704614+314013855
2693+313291398+312275639+311080762+310111953+309467023+308863345+308197410
2679+307445686+306485100+305565748+304940437+304330910+303550279+302770198
2666+302065708+301403989+300780426+300125032+299522437+299229762+299155653
2652+298913441+298411545+297941289+297719381+297688423+297735752+297741450
2639+297610136+297440133+297355218+297270948+297109815+297026362+297111771
2625+297090044+296817311+296725805+296998120+297135094+296926119+296615952
2612+296227973+295809510+295667598+295773197+295684198+295221046+294622021
2598+294135565+293818333+293547613+293131278+292473415+291644998+290843494
2585+290182060+289593520+289057075+288640455+288322672+288036417+287677762
2571+287101015+286418348+285880688+285393738+284788313+284243360+283864953
2558+283529868+283379637+283542783+283801081+283991424+284065913+284084678
2544+284193220+284335037+284410647+284547754+284826260+285080969+285241646
2531+285319174+285264798+285144347+285045985+285090238+285334292+285589513
2517+285665161+285532346+285293382+285045111+284815776+284547602+284121105
2504+283624489+283315366+283209502+282967195+282397533+281798356+281427603
2490+281229853+281181175+281153199+280902080+280559853+280372739+280219488
2477+279896691+279488332+279177216+278956162+278728802+278421978+278075725
2463+277785405+277560932+277384073+277107371+276649556+276195711+275835802
2450+275436066+274992590+274785781+274828590+274717218+274346369+273943937
2436+273537344+273119927+272801422+272495870+272136398+271856999+271706787
2423+271590211+271426875+271270376+271108598+270848115+270548204+270304967
2409+270216899+270416738+270808820+271043378+270974378+270819323+270747094
2396+270611962+270322079+270070428+269846031+269386887+268441495+266706698
2382+263984783+260220767+255540683+250482800+245576781+240690192+235504945
2369+230322528+225628865+221690611+218993538+218168236+219431183+222705040
2355+227781270+234492035+241135282+243973735+241481915+236321263+232603095
2342+231251662+231317395+232162316+233102124+233684245+234125100+235204863
2328+237099312+238969279+240278434+241730755+244175797+247099622+249309821
2315+250662526+251967048+253505367+254925002+256202535+257468027+258565890
2301+259460381+260274629+260980430+261536152+261965364+262368727+262809924
2288+263086132+263139919+263123377+262952786+262600759+262232741+261949543
2274+261795438+261696904+261532467+261340395+261210354+261086427+260884119
2261+260670434+260549299+260505028+260493442+260523716+260568672+260582441
2247+260517031+260408033+260401519+260461459+260449076+260340040+260230092
2234+260289121+260457167+260545881+260565519+260588063+260627625+260663957
2220+260690015+260689863+260603694+260490271+260518494+260749728+261030589
2207+261132256+261105382+261198426+261419442+261620042+261788771+261998525
2193+262206607+262268466+262236216+262272758+262306071+262272302+262300639
2180+262400901+262431232+262316384+262095577+261866204+261753179+261845863
2166+262095938+262340428+262422913+262387815+262400141+262451896+262510867
2153+262632799+262817787+263030845+263278622+263635814+264056252+264337873
2139+264440034+264544056+264806134+265174608+265519076+265803489+265984013
2126+265991895+265929277+266012122+266242445+266458029+266640110+266868211
2112+267108675+267231177+267242763+267311800+267468014+267626830+267831436
2099+268081017+268286307+268477999+268691342+268932414+269195727+269416021
2085+269620989+269833762+270019927+270224837+270424297+270574243+270778147
2072+271086130+271285646+271152433+270990635+271262343+271727622+271996480
2058+272189995+272418646+272567149+272642967+272794907+273026179+273211148
2045+273228849+273090317+273174017+273681403+274247893+274580718+274695509
2031+274722270+274810110+274951643+275048675+275164872+275218849+274937493
2018+274712830+275171671+275946510+276416955+276679849+277007338+277339821
2004+277555595+277738265+277993430+278269771+278245385+277661687+277284534
1991+277914383+278900039+279617083+280138751+280553719+281011591+281489614
1977+281850168+282144989+282503150+282717557+282445337+282380744+283365924
1964+284551742+285057798+285307911+285589380+285763789+285875294+285880840
1950+285592723+284929656+283727048+282151561+281748900+283154271+284492011
1937+284783185+284611208+284441623+284409735+284434558+283926964+282461994
1923+281261969+280911519+280538999+281216026+283176113+284091116+283495074
1910+283108120+283900792+284973946+285474798+285710743+285891988+285650612
1896+285261170+285368744+285066972+284289683+285033070+286825073+287962934
1883+288603135+289092212+289439984+289726752+289805457+288506748+284933093
1869+282167685+284235099+288493415+290953366+291593452+291817260+292310744
1856+292899759+293300729+293331288+292519813+290203104+286899030+286721108
1842+291048974+294604187+295617762+296155896+296234278+293898861+290950631
1828+291287996+293235148+295421322+298736811+301362491+302379237+302996172
1815+303248734+302223289+301252125+302422597+304547045+305190189+303620171
1801+301671841+302161393+304130824+303704954+300602030+300763409+306425787
1788+311038921+312270416+312487900+312669260+313508065+315143569+314504090
1774+310020808+306497426+309716357+316453807+322044260+324070649+323253894
1761+324078208+326640263+328968900+331137695+330430148+326840141+326353666
1747+330912672+336154801+339290317+340739068+343185192+345701855+344223400
1734+344115029+352713937+362914220+371330686+377729157+382097364+384623181
1720+382715001+378003865+381096457+393933891+406623981+414960299+418438933
1707+419430534+421954908+423563841+422509869+426609522+437275692+452423834
1693+468373878+477985127+483438073+486160691+485251367+491720490+510211660
1680+526135761+534909211+540278780+547564468+554405731+560198417+571796702
1666+584322734+590628902+595814320+604707004+611768125+610852001+602176287
1653+601436642+615215118+621656588+624562066+636516006+649884281+656690902
1639+657133048+652881075+654534034+669561535+683547942+690889696+696847578
1626+704365355+714475841+729474474+743668963+753606313+767154752+784681215
1612+796495483+802168554+806157746+810353121+813488484+815214830+816308724
1599+815811955+812617563+807264327+800758320+793590917+785598251+776907495
1585+767964290+759121897+750019611+738715406+723667848+711470691+707990878
1572+703471871+695685235+692687377+693048160+691209226+684282421+670153950
1558+665489839+682453364+698937973+710451627+720292723+730779565+739387058
1545+743813914+746213887+753046337+778977301+810474217+830126856+846125712
1531+865410048+880819831+889819634+894587824+893704291+889078090+886210521
1518+883854003+882060348+880576879+874066998+861124725+844857922+840946372
1504+856845479+869891375+873525483+872300844+874630772+882999263+888027195
1491+886893872+889561564+901865080+915390803+924436416+930077047+934077406
1477+936080283+934670581+932221380+937673149+949382655+955978078+956612125
1464+958249586+960017866+955307718+945327521+944049551+951791820+954501979
1450+951447827+949330919+951089780+952260859+949762733+943810853+933972416
1437+922140522+916737830+918108255+918005999+914615832+911387329+909264419
1423+907930460+905499263+903519329+910487159+923782237+933999309+939597397
1410+942745220+943680640+942571324+942758894+945699698+948025904+947777178
1396+947320521+950381358+956402903+960459557+961228299+961101884+961186743
1383+960556799+959649335+960558622+962521386+962946971+963576308+966156406
1369+968157231+968257436+966084462+961920539+959677216+960551405+961110773
1356+960818820+960955718+960580121+959051450+957891310+957519133+956236301
1342+951977795+945694001+941920792+941872399+942383374+942038241+941888200
1329+942487909+943812144+946098238+947892045+947979030+948046872+949177687
1315+950211489+951317310+954159049+957651321+959620695+961045363+962722555
1302+963910500+965457329+968001341+970178569+971338481+973019776+975542365
1288+976910663+977717770+980188015+983920124+987839271+991715344+995088342
1275+997459066+999184120+1001022294+1003018333+1004071051+1003138442+1001800760
1261+1001745453+1001733222+1001315310+1001209332+1001200899+1000998667
1250+1000913200+1001993572+1003583551+1003560456+1002811846+1003626322
1238+1005430385+1006053872+1005300172+1005667260+1008681907+1012087193
1227+1013479573+1012792423+1010320355+1007870774+1007545014+1009216205
1215+1012486188+1015978383+1017394846+1017014008+1016785110+1017296313
1204+1017897921+1018696975+1020737153+1024208912+1027639040+1029349204
1192+1029245884+1029110505+1030623755+1032423715+1032142018+1030512686
1180+1030182976+1032180763+1034660352+1036667483+1039010098+1040661233
1169+1042108996+1044561616+1045639405+1045481691+1046110192+1047232802
1157+1049870258+1053557848+1054829285+1053361617+1052643396+1054104757
1146+1055360392+1056217563+1057761048+1057722000+1056488548+1057480339
1134+1059706644+1059959928+1058196129+1056190670+1054520238+1053418899
1123+1053468204+1052993542+1050624413+1048188127+1047148779+1047758212
1111+1048852790+1048595707+1047482060+1046701087+1046426379+1046164662
1099+1044996090+1043149787+1042552738+1044156088+1046549299+1048617890
1088+1049735107+1049503246+1049903609+1051198824+1051468518+1052760618
1076+1054737437+1053264832+1050912948+1051185073+1053414189+1056821374
1065+1058467495+1057635394+1057687889+1057919598+1055073377+1050322584
1053+1048639845+1051897977+1057173951+1061411110+1062398873+1061030499
1042+1061320781+1063289167+1063166248+1058567319+1050790636+1043777756
1030+1039971728+1038653115+1038221528+1038179213+1037035862+1033604671
1018+1030325116+1028547643+1026278567+1022783788+1020626236+1022552763
1007+1027299377+1031207509+1032905290+1032709515+1031870273+1033608470
995+1039231475+1044950052+1045866252+1042366079+1040003560+1041957664
984+1044992519+1045509344+1045560548+1047874902+1051312551+1053664890
972+1054268549+1053873884+1052992706+1053998703+1058444931+1061096745
961+1060949363+1063944106+1068114563+1069184450+1069358042+1068524878
949+1065496708+1063314238+1064131069+1067159086+1069412892+1068043759
937+1065460926+1065936347+1068962542+1071857460+1073741823+1073613889
926+1069844935+1064616594+1063185544+1065502557+1067609133+1068613611
914+1067738435+1065182723+1063570561+1063540553+1064292049+1063082984
903+1058999362+1056801242+1057602727+1057687509+1057146298+1058345335
891+1060187535+1058986523+1054631990+1050651763+1048136163+1048089442
880+1050147625+1049052515+1044674432+1041678094+1039752631+1035589011
868+1029269815+1025336005+1024565744+1023235962+1021288696+1020378118
856+1020077732+1019251329+1018109194+1017871255+1018357312+1018688922
845+1016852192+1012399050+1010236560+1012488999+1014757847+1014344037
833+1012915419+1012275295+1012491050+1012896806+1012859201+1012658868
822+1013454579+1014430871+1012829193+1008274707+1004157885+1002728811
810+1003311806+1004785854+1004814419+1002566007+1000071679+998090378+995918392
797+992894096+991072181+992379703+992822381+989620923+985650875+982275750
783+980440159+980384093+977632911+972890779+972399708+974773395+972943274
770+966781640+963241507+962953505+960776808+956144757+952170759+948972796
756+939357635+925896182+923592692+930362771+931997724+928884012+926538889
743+923678842+921289429+921943456+922420624+918164701+910675489+904947796
729+901698933+897810401+893949751+892481856+890887774+886342937+881487837
716+878549388+876004388+874850858+877167035+879674810+879605145+879418714
702+880420153+880363023+877121073+873334494+873753317+876577811+876705669
689+874732952+874059173+874864988+876187476+878268830+881091121+883366123
675+883951093+883776361+881316524+876245214+877220442+881691817+882689836
662+883649187+883005416+879020479+875883520+874178370+872518118+872478690
648+872719211+869190702+865435802+868389445+875366999+877820986+871525037
635+858923946+852653750+860142507+867229077+864045929+858651745+853146341
621+846705288+843871070+844539683+844078849+844634342+849868761+852737089
608+847303401+839923358+836510247+834749184+832109297
##END=
