##TITLE=Sample description
##JCAMP-DX=4.24
##DATA TYPE=INFRARED SPECTRUM
##DATE=12/9/2023
##SAMPLING PROCEDURE=Instrument type and / or accessory
##ORIGIN=Default
##XUNITS=1/CM
##YUNITS=ABSORBANCE
##RESOLUTION=4
##FIRSTX=4397.6552
##LASTX=599.8556
##DELTAX=-1.9287962
##MAXY=1.8040918
##MINY=0.18263376
##XFACTOR=1
##YFACTOR=1.6801914e-009
##NPOINTS=1970
##FIRSTY=0.19498225
##XYDATA=(X++(Y..Y))
4398+116047637+115409851+114995017+115098861+115617610+116315996+116169972
4384+114844860+113967344+114166465+114723297+115646017+116807439+117678756
4371+117967433+117523447+116873298+117000963+117786050+117931940+117405422
4357+117164538+116996573+116768319+116915673+117424498+118124844+118689232
4344+118788615+118791010+119182112+119249940+118791471+119023796+119577941
4330+119181305+118379288+118369009+119077931+119604707+119823800+120055433
4317+120034148+119382749+118319397+117501523+117398602+118137296+119048212
4303+119181305+119002183+119380913+119659533+119269832+119236034+119712648
4290+119634594+119293813+119423341+119980865+120757961+121018825+120363196
4276+119600866+119413293+119898882+120718787+120895798+120118073+119266116
4263+119036292+119620857+120872270+121731711+121212181+120149584+119951217
4249+120467847+120730113+120715462+121334366+122668418+123053587+121464186
4236+119707096+119610782+120448256+121073457+121400030+121966192+123080565
4222+123812271+123410163+122579659+122211687+122271622+122262664+122017391
4209+121686241+121837409+122455568+122671415+122637519+122660817+122289395
4195+121752340+121767905+122340665+122581690+122172665+121728182+121598849
4182+122020158+122734126+122717036+121934956+121566762+121945820+122381523
4168+122848391+123480350+123469920+122636206+121974857+121934513+122424767
4155+123059608+122910676+122308117+122426816+122917815+123059333+123015939
4141+123098276+123595670+124170479+124025377+123398438+122894686+122419792
4128+122024850+122059686+122520328+123222802+123914323+124197404+124021147
4114+123597062+123263403+123238464+123065116+122804065+123245187+124186389
4101+124602315+124284052+123776388+123149626+122878944+123431989+123755050
4087+123608246+124035612+124878381+125253013+125085013+124843340+124940648
4074+125368626+125335093+124646002+124283635+124527223+124629089+124188509
4060+123935227+124345787+124818215+125336069+126084058+126219545+125320283
4047+124406209+124157850+124321362+124998215+125613217+125155032+124473284
4033+124894664+125795753+125956774+125603426+125274724+125097988+125281828
4020+125528920+125568616+125733450+126285112+126824579+126708549+126247570
4006+125895402+125586699+125743170+126283125+126241415+125631478+125310846
3993+125713974+126638832+127437292+127703452+127400443+126459072+125440773
3979+125262973+125642652+125639468+125264170+125262193+125992337+126969973
3966+127276361+126874190+126874838+127248956+127076761+126679220+126145420
3952+125183961+124880527+125744997+125680930+124131172+123836899+125097358
3939+125864920+125612490+124310543+123205180+124028987+125107939+124278899
3925+123331621+123863594+123718342+122788607+123927591+127116786+129105394
3912+128552180+126195520+121771878+116495171+114557602+116703870+120473620
3898+124290730+125240358+122474077+121033734+123783102+124272141+121947674
3885+121704396+121131325+121218531+124251636+123902883+120362087+117647449
3871+116359275+118854714+121131103+120174256+121504610+125140088+125347377
3858+119587138+109917847+108698184+120317229+127827942+128303776+124838170
3844+120268673+116370290+113641622+115242135+120679215+123898847+125056296
3831+126196247+126212415+125352556+122335663+116139038+114900272+119059129
3817+121775629+126757478+131386945+130203901+125042044+121983433+121986838
3804+119099739+118452508+123922784+127254029+129351723+132104878+132997302
3790+132467866+131348295+130288766+130312259+129856194+129317880+131829974
3777+134994238+134776546+131260273+128349104+129334039+131429950+133045220
3763+133090122+130062436+128321691+129689648+128214548+121668602+117549787
3750+122062373+124380260+123074091+128841469+135903203+134938454+128927053
3736+125737911+130735173+139917305+146077674+147347552+147497522+149683859
3723+153238995+157770135+162483580+165160659+164085645+161956032+167055675
3709+179124205+190028448+196773914+202440251+212171375+223441648+231493105
3696+236136168+237008762+235177565+237267978+246179223+253584025+255586371
3682+253930101+249954853+243987618+241170857+246732117+250662702+252185462
3669+260007627+268801255+273080612+275187556+276938367+277972993+280154717
3655+283752619+282432171+276274152+277206185+289277570+300786146+307178974
3642+310311125+312594290+314961531+317011378+317734818+315662587+314278533
3628+322181847+332614487+336619498+335410761+334282375+338279050+343002712
3615+344529197+346478863+349969204+353698930+358348875+362715837+365350949
3601+367263792+368947396+369936720+371976244+376045748+378088004+375980758
3588+375580140+380568942+385578141+388263592+390201693+391738502+392688449
3574+393488373+393096411+390003353+387029030+389644595+395125469+398019229
3561+398940902+399809151+400323892+399495269+398261913+398349394+399013768
3547+399394201+400201787+401245317+401887733+402426526+403211231+404016014
3534+404001789+402775989+401284056+400407719+400274334+400948924+402212080
3520+403359941+403344723+401970105+400308815+399012136+398728159+399922245
3507+400659662+399116716+397067011+396848308+397363120+397037709+396372235
3493+395604381+394685545+394347291+394514236+394132917+392784728+391611608
3480+391414332+391181226+390358279+389572687+389133614+388606457+387684606
3466+386478140+385180326+384311439+383665937+382522403+381485613+381116178
3453+380637799+379344348+377851421+377104249+376591814+375684472+374764395
3439+374086895+373771452+373662189+373349832+372885608+372423405+372032401
3426+371726252+371270861+370749238+370679316+370937680+371039493+371284093
3412+371943075+372531781+372644662+372512979+372606243+372639518+371809902
3399+370702730+370874890+371936299+372285372+371962515+371792768+371965992
3385+372257560+372107217+371585133+371837501+372884685+373178240+372474347
3372+371914446+371921435+372042227+371776910+371384842+371311125+371522626
3358+371835657+371655089+370681090+369612941+369133142+369214770+369349681
3345+369386859+369487430+369284940+368493388+367705064+367582286+367513713
3331+366642378+365556100+364650142+363324161+361785436+360745844+359772413
3318+358246246+356882413+356074117+355269298+354541317+354459973+355435711
3304+356951199+357674213+357261569+356868791+357577225+359025204+359936023
3291+359729914+359263773+358937049+358394248+358250858+358277180+357555940
3277+356618622+356076423+356042935+356325847+356444121+356346778+356154787
3264+355674102+354807557+354012635+352959314+350999005+349533643+349174602
3250+348266621+347008823+346719738+346765890+346357113+345756026+345109638
3237+344580991+344307692+343486199+341588362+339994865+339852823+339904155
3223+339047365+338510523+339154641+339607443+338907346+337974391+337043636
3210+335597182+334694806+334931460+335173824+335127671+334961649+334311961
3196+333608458+333326752+332987825+332327494+331712643+331251682+330167108
3183+328346855+327220207+326919379+326111793+324796100+323951442+323783362
3169+323559125+322945551+322247263+321413779+320609102+320010285+319286101
3156+318888888+319171410+319116850+318296209+317445024+316796897+315957596
3142+315056604+314549384+314011832+312879615+311528979+310540541+309970637
3129+309417512+308601021+307880952+307558201+306891308+305450778+304054308
3115+303013545+302004355+300974554+299923538+299036736+298237770+296909643
3102+295178485+293827813+292780789+291688481+290874402+290253609+289265739
3088+288240479+287717561+287212575+286317650+285385813+284900392+284899789
3075+284674789+283994274+283349624+282744422+282201868+281728668+280792805
3061+279577026+279133714+279718074+280279891+280158797+279902349+279632509
3047+278976755+278236323+277681992+277288025+276987925+276493618+275749886
3034+274961580+274454644+274425324+274376085+273855402+273045474+272461060
3020+272869323+274061582+274369149+273325619+272409018+272341261+272559947
3007+272693048+272795252+272947439+273161601+273597481+274693426+276727114
2993+279529348+282426957+284786535+286936315+289200820+291201233+292923433
2980+294120854+293964906+292539134+290491362+288102375+285928898+284500891
2966+283392938+282109793+280893926+279963330+279347096+279173268+279231164
2953+279113937+278843582+278761139+279108952+279648916+279849332+279714598
2939+279506378+278991619+277871357+276172144+274313365+273012464+272292040
2926+271347485+269965045+268551565+267021106+265308750+263886029+263000433
2912+262436542+261892374+261362876+260814469+259957767+259059011+258492228
2899+257929738+257091235+256203901+255668194+255540928+255523882+255501994
2885+255406035+255106680+254713440+254252887+253490620+252418160+251361983
2872+250570165+249871647+249005775+248313411+247988000+247331661+246169910
2858+245126664+244183191+242928106+241431686+239970581+238666292+237630283
2845+236855422+236056758+235247398+234766429+234626214+234459730+234013793
2831+233570197+233359263+233026384+232406318+231804611+231336643+230972990
2818+230819472+230587023+229896858+229216627+229064670+229177835+229176735
2804+229019156+228799939+228636257+228557946+228315937+227776736+227281896
2791+227018761+226741595+226342254+225962868+225571296+225004921+224478846
2777+224357752+224367100+223942483+223156678+222460785+222028097+221762425
2764+221488701+221125491+220803024+220593953+220329789+220017202+219883851
2750+219881545+219789843+219587920+219343728+219056913+218747253+218431047
2737+218058969+217674935+217374445+217117305+216929518+216956462+217118032
2723+217197478+217149445+217062833+216986207+216864369+216719879+216547968
2710+216236268+215949506+215880525+215880649+215803243+215614517+215307304
2696+214981467+214682449+214427331+214322378+214253433+214059970+213782557
2683+213431426+213079710+212742805+212323704+211891566+211466949+211042244
2669+210764901+210532930+210040503+209427674+209053626+208905058+208758262
2656+208439928+208021768+207731335+207595714+207483117+207256964+206953015
2642+206666981+206339423+206044290+205897867+205786990+205571161+205237093
2629+204924967+204837930+204961489+205004147+204909128+204934652+205008298
2615+204881440+204623431+204448522+204424860+204421312+204386192+204389704
2602+204385075+204275103+204092247+204057482+204212401+204228329+204005671
2588+203802772+203680241+203462088+203134105+202897257+202832888+202757291
2575+202510243+202104073+201599638+201139918+200841574+200616717+200365944
2561+200113558+199912806+199718616+199418747+199073345+198819859+198627958
2548+198439568+198260987+198053672+197795184+197624355+197637569+197676254
2534+197642713+197581501+197476832+197405386+197431761+197457285+197487971
2521+197574636+197703659+197902496+198060465+198062062+198064439+198182215
2507+198324470+198416580+198502163+198657153+198822981+198882011+198834492
2494+198733283+198637873+198639256+198775427+199030261+199312535+199421531
2480+199372789+199384336+199381711+199188018+198971568+198937618+198948491
2467+198831938+198719430+198741956+198843290+198978893+199020558+198881497
2453+198785697+198876672+199016461+199126274+199247882+199366953+199440493
2440+199501917+199611801+199722536+199741302+199765461+199862183+199889729
2426+199876550+199930277+200020277+200173706+200381607+200509760+200510558
2413+200530672+200700615+200919140+201079469+201230947+201383010+201522852
2399+201713424+201916021+202011874+202094637+202267311+202315823+202043411
2386+201361690+199968271+197560145+194129650+189904056+185301877+180712523
2372+176127018+171391863+166725599+162561891+159250964+157026492+156251010
2359+157401497+160551492+165505155+172242994+179007280+182110749+179985039
2345+174962625+171260233+170146551+170519765+171657499+172951162+173947865
2332+174816983+176194722+178153966+180090861+181767636+183543829+185830773
2318+188477929+190723562+192269275+193693876+195405345+197167633+198749122
2305+200207070+201512369+202546339+203334343+203972111+204590794+205249403
2291+205842437+206336975+206864665+207416282+207711611+207663134+207530777
2278+207506832+207628723+207778268+207807907+207799677+207827294+207887105
2264+208033847+208262447+208503286+208669664+208744569+208869778+209161222
2251+209528245+209790458+209833755+209714613+209662163+209803318+210047580
2237+210268642+210433210+210563510+210643364+210704150+210819461+210935943
2224+210987701+211075430+211253337+211394155+211468439+211538768+211576460
2210+211616529+211765347+211987455+212137922+212170878+212202256+212361449
2197+212612594+212832929+213010551+213150092+213204812+213215596+213255027
2183+213383322+213692397+214053354+214188053+214166839+214216273+214349765
2170+214574924+214879281+215104848+215191372+215234172+215320802+215461903
2156+215628139+215849893+216056995+216092612+216073154+216188891+216411425
2143+216626935+216760853+216880474+217082131+217342961+217587507+217720751
2129+217744821+217755232+217777582+217863005+218073230+218313749+218498201
2116+218649732+218775934+218891565+219026547+219149414+219251139+219387220
2102+219544942+219682460+219789204+219853432+219952105+220144007+220356909
2089+220546984+220721627+220860263+220970749+221096614+221234736+221370268
2075+221521178+221705240+221888007+221967151+221914382+221873284+222013286
2062+222278337+222485369+222623189+222793486+222989662+223088105+223115953
2048+223240878+223401171+223377137+223250492+223368836+223735611+224058504
2035+224250210+224377618+224535730+224771780+225012743+225200583+225379075
2021+225443302+225218054+225050329+225417494+226078960+226498787+226618320
2008+226758020+227047850+227324306+227481904+227625896+227867605+227931335
1994+227436407+226971366+227425782+228364094+229029036+229408174+229712052
1981+230015699+230298239+230636315+231021590+231308033+231315323+230945993
1967+230759768+231331890+232144460+232603754+232848495+233035111+233203883
1954+233427127+233582524+233561718+233392131+232877620+232037663+232058966
1940+233435960+234692978+235148281+235333495+235538469+235783459+236045211
1927+236050159+235547249+235182904+235179694+235039994+235720402+237430541
1913+238456121+238358335+238256859+238932904+239992114+240815487+241414587
1900+241869198+241844915+241567466+241724265+241704045+241362900+242156846
1886+243736048+244794087+245438240+245940654+246355302+246835065+247217751
1873+246543851+244247081+242656848+244603001+248047704+250092389+250747026
1859+251067169+251655875+252446735+253094117+253397622+253152384+251905477
1846+249976404+250321717+253783501+256562783+257625877+258452939+258873565
1832+257471402+255681781+256436137+258454305+260616927+263440517+265561030
1819+266457109+267176487+267735376+267409929+267192965+268513270+270363535
1805+271067304+270271761+269283554+270017264+271766887+271791649+269951955
1792+270481454+274890134+278538268+279704771+279977733+280207646+280935644
1778+282183137+281826898+278804791+276528898+279046978+283944449+287922730
1765+289311094+288697573+289363969+291254906+292737438+293936083+293222576
1751+290606567+290097431+292910130+295973478+297523306+297961918+299023185
1738+299963944+298002820+296880766+301703208+307588000+312211835+315211239
1724+316412597+316170836+313028787+308006781+308311972+315453994+322551283
1711+326595706+327199986+325941904+325687336+324976277+322376498+322960344
1697+327932295+335913334+344448102+348531370+349320120+348078852+344308189
1684+345458356+355257982+363566313+367004967+368187452+370810928+373278067
1670+375476305+382419455+390417310+394293831+397692186+404047942+409470495
1657+409460775+404278635+406402341+419138615+425651171+430771123+443496364
1643+456582137+464409038+467335541+467362041+473308736+488265634+500353391
1630+507262591+513132519+519536734+527038117+537121542+545484965+549769200
1616+556667474+568283025+578082863+584903270+590887675+596984322+602360261
1603+606913466+611552876+616251741+620038759+622793386+624949906+626558835
1589+628106747+630012388+632227655+634814911+637138305+637101411+634124640
1576+633612879+637574150+639070766+638906730+642932777+649018144+653144160
1562+652843404+647000970+648276151+663979830+678879791+690505629+700586109
1549+710836443+719368373+723744913+725225139+729460134+746966507+767709043
1535+780170600+789983103+802295168+812430918+818407022+822765115+826162051
1522+830369872+837150760+843837355+851967992+861523160+867053203+866490216
1508+862588330+867194464+883472695+895673795+900785942+901404909+903638409
1495+911087361+916958813+917373231+917806735+924742222+935035978+943550666
1481+948995214+952440892+954629340+954424720+951607516+951390906+955806681
1468+959257752+960478514+962805598+964477034+960796440+952466505+949202033
1454+952947332+954977490+953201545+950482322+950382283+950820114+948720922
1441+944713534+937370724+925822646+918847569+918381712+916198160+911252816
1427+906568566+903205544+903721775+906977663+910484997+918375823+930029687
1414+938553457+941740878+942582272+942550770+941417985+941910022+945077577
1400+949380826+953505140+955833358+959621724+966628232+971442958+971517243
1387+969593722+969953012+972279954+973613881+974709417+977042035+979410837
1373+982379448+986573647+988860786+987846984+984541290+980991173+980595415
1360+981366072+979831853+977916492+978316223+980611379+981284267+978004753
1346+973243736+970548139+969116514+966492292+963197879+960554927+958527820
1333+956691709+955803914+956464315+957864865+960250694+962905850+963578099
1319+962904644+963350067+965593358+968541040+970717071+971873624+972905092
1306+974507423+977775514+982774781+986414223+987251431+988108150+990024363
1292+991674230+993810388+997578604+1002102791+1007109791+1013818522+1020766497
1279+1025007948+1027397184+1029526033+1031239897+1033057703+1035128515
1267+1036726518+1038074139+1039492852+1040248964+1040509776+1041369120
1256+1043119594+1045501877+1047735590+1049132024+1050198046+1051947385
1244+1053511048+1053355951+1053284079+1054417716+1054574798+1053374611
1233+1051746738+1050079701+1049436612+1050069130+1050959266+1050526260
1221+1047342528+1043263197+1042555472+1045246528+1046699439+1045191187
1209+1043898978+1044129920+1042964569+1039587783+1036629175+1034995485
1198+1034036881+1033112263+1031652187+1030273135+1030151243+1030840166
1186+1029988201+1027961732+1027491902+1027682544+1027475442+1027440109
1175+1026397643+1024972757+1024253681+1022829434+1021259598+1021624564
1163+1023861470+1026077872+1026186212+1024409983+1023818971+1025945763
1151+1028582755+1029553917+1029376542+1029212861+1028813839+1028409283
1140+1029870353+1033089772+1035325614+1034808390+1031465731+1027249253
1128+1026707977+1030566229+1033232665+1032191689+1030139608+1028382819
1117+1027098911+1026707197+1027048678+1028482503+1029907885+1028051554
1105+1023962503+1022262332+1023035472+1023522685+1025363265+1029734981
1094+1031704477+1029306089+1026118597+1025489201+1029680065+1035335902
1082+1037055371+1036757878+1037115182+1036920495+1036363610+1037179533
1070+1038712404+1037100921+1033193004+1032770356+1036288616+1040076556
1059+1041532518+1041599565+1042452382+1041827101+1039123274+1039181099
1047+1043446318+1046022861+1044330637+1043864568+1045491376+1044792166
1036+1040385969+1033864686+1028819373+1027477783+1029189731+1034018647
1024+1040279260+1041500306+1035954442+1029360791+1025779528+1026395230
1013+1028938498+1029423511+1028960847+1029705253+1029600885+1027551713
1001+1026148254+1027896103+1032055253+1035220325+1034905946+1031193993
989+1027825295+1028831577+1032467329+1035133695+1036773700+1038982510
978+1042029592+1045193742+1048660137+1051193046+1051541622+1051161048
966+1050365203+1048983881+1049045608+1052737978+1057807273+1058421627
955+1055022421+1052872712+1053232286+1056447732+1063275730+1070456633
943+1073741823+1072723409+1069619071+1065586424+1060522451+1057515314
932+1059351779+1062690040+1063521997+1061345469+1058404812+1057816354
920+1059148934+1060301585+1061379454+1061776419+1059781026+1057377388
908+1056792335+1055707158+1053901627+1054862926+1058183661+1058960136
897+1056260992+1054774948+1055430099+1055082586+1053310047+1052155622
885+1051330192+1047051847+1040356595+1037932949+1040909720+1044502690
874+1045385022+1043116047+1039519884+1037117310+1036231360+1035212662
862+1033006335+1030666268+1029446286+1028190048+1025438259+1022347543
851+1020912795+1021898005+1023282733+1021654860+1018925491+1019228305
839+1021337217+1022778989+1023427115+1022910955+1020516825+1017206022
827+1015562469+1015285907+1012200937+1006469185+1003550593+1005642619
816+1009623259+1010517440+1008653162+1008515520+1007358896+1001858085+997709364
802+998024453+999120344+1000003811+1002136066+1003509300+1002982497+1001217479
789+997007529+991857707+988317736+985460799+983787377+984630190+985942620
775+984198602+978751074+974397380+973791681+973780330+973053519+971448705
762+967888585+963629467+959317349+952968404+946307847+945066225+948187237
748+949965169+950037822+949173795+946255912+941822470+937946765+935640115
735+933293450+928700939+922352845+916863173+912571631+909155326+907593294
721+905832533+901231933+896384286+894682129+893681382+892007959+893498189
708+896173140+897016591+899185953+901888432+901764270+898654184+895000410
694+894576130+895934748+895873731+897070300+900299510+901718933+900945792
681+899951856+898414870+896044153+895111375+895909064+893072703+887684773
667+893393254+904154356+907097781+906352240+904233040+902534572+903445142
654+903422296+901650324+901210010+900902584+898531654+896860431+898117945
640+897955115+893509399+889382674+890959817+894261893+887724718+876108032
627+875361356+882007297+880932549+873089898+870197273+877179729+886117775
613+885709317+881249482+884085772+890105581+892555905+897834855+906018137
600+904474482
##END=
