##TITLE=Sample description
##JCAMP-DX=4.24
##DATA TYPE=INFRARED SPECTRUM
##DATE=12/9/2023
##SAMPLING PROCEDURE=Instrument type and / or accessory
##ORIGIN=Default
##XUNITS=1/CM
##YUNITS=ABSORBANCE
##RESOLUTION=4
##FIRSTX=4397.6552
##LASTX=599.8556
##DELTAX=-1.9287962
##MAXY=1.7477257
##MINY=0.11632325
##XFACTOR=1
##YFACTOR=1.6276964e-009
##NPOINTS=1970
##FIRSTY=0.14299618
##XYDATA=(X++(Y..Y))
4398+87851872+87201042+86046288+85159916+85388446+86617545+87206992+86371301
4382+85531654+85619961+86081791+86479235+86868193+87327643+87737529+88075934
4367+88295950+88126798+88188190+88961080+89472583+89103885+88300757+87978390
4351+88331718+88629659+89033430+89606902+89566099+89178450+89327490+89677714
4336+89259397+88245032+87536142+87426825+87670763+88069828+88419494+88381968
4321+88242935+88629220+89350450+89502895+88545124+87315513+87396377+88963808
4305+90338568+90328690+89656814+89517671+89771743+89786857+89950672+90240036
4290+89959543+89337377+89134361+89868270+90951671+91022099+90073502+89200092
4274+88802950+88778195+89145731+89675132+90127917+90418727+90375700+90353454
4259+90850960+91409565+91450761+91211630+90939184+90707798+90747841+90703193
4243+90210219+90051219+90690349+91230415+91218505+91430712+92020370+92191765
4228+91957870+91714244+91356614+91061876+90965797+91161828+92000028+92733260
4212+92480021+92385498+93293989+93866847+93270214+92051331+90844277+90444663
4197+91047155+91504161+91254685+91351304+92115515+92387769+91650802+90914549
4182+91201450+92010291+92495044+92564574+92444327+92424424+92443805+92553781
4166+92613021+92131756+91710143+91817940+91796426+91794010+92420625+92864631
4151+92424809+91980043+91966037+91926177+91747531+91506559+91483251+91763561
4135+91946244+92021331+92131399+92027062+91584466+91332427+91946711+92969819
4120+93305743+92594657+91517673+91418948+92416533+92882986+92286929+91915557
4104+92260929+92566057+92392941+91962759+91839170+92116641+92415471+92667053
4089+92793709+92890539+93160851+93242850+93175828+93432729+93514426+93212246
4074+93342362+93462592+92871863+92389883+92380893+92370997+92318641+92588001
4058+93245377+93744787+93830906+93832865+93773652+93200519+92150377+91490136
4043+91694616+92436792+93218965+93379778+92930435+92890035+93391175+93671695
4027+93656489+93755910+94140263+94379770+94115252+93630014+93182703+93030139
4012+93201196+93346491+93471353+93544344+93457740+93430513+93258367+92694984
3996+92250228+92294949+92817850+93829230+94865677+95210207+94787120+94110913
3981+93412909+92510470+91836295+92064606+92930993+93802105+94205152+94123107
3966+93983946+93911101+94140263+94388266+93912566+93256253+92854295+92077404
3950+91316186+91749993+92181695+91418097+91663765+93407517+94146983+92963841
3935+90695668+89534085+91035318+92725195+91951737+90786007+91433404+91458003
3919+90073904+90399420+93021964+94782561+94597140+93334260+89677668+83630404
3904+80036558+81298953+85559860+91046798+93420361+90401278+87325015+88735543
3888+88702806+86344550+86857510+86992121+87034846+90179578+90049141+85917060
3873+82209357+80526795+83294150+86060167+85627678+87381766+91201853+91376525
3858+85086440+73975932+71464952+83955919+93041867+94248665+90613129+85652671
3842+81333549+77702581+78206706+83362169+87046665+88852358+90938763+91852142
3827+91078318+87622463+81309692+80386197+84388152+86188929+90611142+95731909
3811+95273860+90228730+86613590+86247959+83496360+82969321+88321684+91565882
3796+94027669+97456893+98651900+98210504+97337387+96306626+96141264+95407712
3780+94129287+95914134+99076901+99116650+95730270+92991268+94278967+96637488
3765+98292256+98218111+95210271+93955154+96012163+95005388+88834049+85287808
3750+91389717+96291713+98249457+108501812+120258979+123640947+122196272
3736+122759500+129351408+140036691+148467433+150569282+148967777+147698681
3723+147487526+148159998+148472541+146820053+143690418+143944023+154744390
3709+172257381+188070004+199429663+207797218+216862091+224674155+227241258
3696+225310337+219178903+208374462+199516834+199504237+200812562+196942920
3682+189132029+179285522+167538306+158685183+159404856+160076394+157888957
3669+161346232+166507865+168037002+167804691+166786353+163940231+161448014
3655+161155593+157288826+148915219+147557743+157882494+168113609+173215755
3642+175545604+177645961+179563644+180972597+181196468+178208301+174992236
3628+180250781+187462329+187094015+179828326+171254111+168141367+167399300
3615+164603036+163826310+166708629+171335607+177374120+182136643+183473603
3601+183351955+183278771+182397132+181852607+182518670+180971499+175928840
3588+173318966+175970329+177992157+177409915+176232467+175355753+174889739
3574+174926578+174024340+170239655+165985001+166777326+170706364+173023176
3561+174047556+174735609+174609274+173541884+172510345+172161329+171465641
3547+170594420+171243144+172910371+173718681+173359064+173000417+173252796
3534+173414560+172812855+171678782+170777570+170261699+170140069+170827939
3520+171882951+172658872+173049230+172488905+171090772+170564172+171243949
3507+171119262+169989126+170121357+171628779+172351162+171969372+171602029
3493+171297743+170686169+170197671+170180295+170214589+170104054+170386387
3480+170931205+170911430+170517007+170446058+170537624+170374541+170368151
3466+170709751+170590080+170120624+170108797+170356982+170619046+171049045
3453+171377664+170981483+170303005+170594273+171204584+171128069+171338481
3439+172208073+172873404+173027460+172934759+172820966+172708619+172644316
3426+172489362+172078717+171970416+172610699+173434755+173822331+173963955
3412+174418617+175065821+175295954+175303808+175723334+176341445+176459322
3399+176140773+176170928+176754874+177462335+178076765+178505574+178704470
3385+178712160+178704086+179211351+180259625+180945463+181001490+181111804
3372+181576774+182270723+183016689+183706152+184380601+184936624+185326251
3358+185668474+186103874+186793337+187576324+188201136+188842134+189710426
3345+190533274+191030285+191537861+192230144+192719136+192956409+193240170
3331+193828198+194643575+195276572+195865479+196480403+196737615+196967894
3318+197362739+197519926+197638095+197991707+198379026+198692229+199019548
3304+199253690+199136967+199138670+200072125+201737265+203265578+204202512
3291+204817053+205310622+205472551+205729122+206613490+207567141+208199478
3277+209069326+210224491+211021413+211249970+211034632+210566696+210233921
3264+210294580+210619153+210841302+210787527+210689626+210622851+210480019
3250+210431572+210214256+209404445+208594744+208336323+208320302+208343794
3237+208527090+208684094+208392625+207791835+207311119+207025527+206857739
3223+206523993+206054812+206029343+206295344+206147678+205499338+204665853
3210+203895260+203403943+203199975+202812619+201952109+200992324+200251082
3196+199696853+199262771+199033262+199026725+198821073+197992714+196726557
3183+195545264+194736862+194236445+193732018+193035396+192340935+191712809
3169+191059214+190575147+190291625+189888870+189514661+189547911+189708760
3156+189705025+189563455+189103209+188396462+187792340+187300144+186953819
3142+186912861+186738500+185935719+184823929+183900160+183397893+183281573
3129+183156079+182690285+182051265+181652100+181288088+180436110+179286291
3115+178229668+177418557+176854349+176055359+174819906+173586340+172298101
3102+170748036+169335879+168181702+167126782+166324258+165693056+165064600
3088+164645715+164381875+163887500+163186887+162718181+162587598+162324710
3075+161752813+161316717+161147390+160930038+160673192+160543763+160404024
3061+160237170+160250151+160370609+160445898+160458861+160306709+160088002
3047+159983015+159880903+159783222+159670106+159307266+158789400+158232773
3034+157461869+156677270+156291617+156199209+156107643+155965213+155717687
3020+155386358+155149598+154904910+154446293+153867163+153204918+152420016
3007+151815583+151722049+151866712+151733254+151216441+150454655+149823426
2993+149837085+150434231+151160688+151816562+152320193+152541372+152533599
2980+152504863+152538131+152657573+152797870+152632041+152060775+151507800
2966+151210582+150968768+150727623+150518528+150212018+149857308+149610303
2953+149382771+149158013+149142129+149283350+149340009+149229282+149036575
2939+148933703+148853919+148628392+148316810+147983183+147686395+147460749
2926+147196268+146815174+146269459+145517432+144790417+144425883+144279270
2912+144058823+143972879+144278474+144817368+145382088+145873699+146044865
2899+145943769+145992857+146148424+146226898+146332096+146384030+146372660
2885+146468355+146615856+146669091+146599378+146456683+146273752+146074993
2872+145913183+145767861+145554555+145270574+145002972+144752159+144449933
2858+144114521+143801044+143436154+142779813+141854038+141152766+141007855
2845+141143538+141165564+141144233+141315903+141647919+142010401+142403314
2831+142847659+143170162+143183437+142933841+142637108+142476388+142465072
2818+142543565+142528149+142312948+142186045+142339432+142604563+142859450
2804+143152027+143500191+143803800+143971570+144041411+144106776+144260118
2791+144495871+144567086+144379377+144227079+144298989+144419951+144356536
2777+144185415+144057789+143983086+144000270+143975634+143775530+143620604
2764+143696057+143865420+143945497+143901362+143800476+143838395+144139037
2750+144567114+144866465+144822870+144552320+144343509+144293057+144414431
2737+144539119+144470650+144412170+144527336+144612585+144581606+144625356
2723+144813862+144970683+145084266+145210519+145161935+145048929+145153714
2710+145376138+145623060+145826726+145822185+145734299+145770387+145823759
2696+145802108+145851773+145982302+146095372+146266630+146445944+146390503
2683+146180328+146166541+146317420+146251442+145940913+145728175+145673786
2669+145607442+145579254+145587649+145422671+145129490+144970307+144944509
2656+144901363+144850399+144817176+144763657+144692305+144585158+144357168
2642+144028613+143778423+143643326+143469697+143263523+143142341+142997980
2629+142717222+142443705+142224174+141939278+141667171+141598218+141620125
2615+141439154+141111148+140920061+140904580+140901019+140802496+140636740
2602+140456190+140278157+140168007+140151171+140083500+139905421+139778719
2588+139712613+139553055+139361327+139278064+139249602+139212434+139168967
2575+139018490+138691391+138319095+138066323+137941076+137866410+137807628
2561+137710596+137539549+137326783+137053148+136794462+136733601+136793400
2548+136754922+136586209+136348488+136105942+135960171+135947418+135906945
2534+135730148+135585613+135530135+135410675+135229557+135136490+135197250
2521+135251336+135139053+134986526+134942931+134966248+134956462+134906248
2507+134899556+134933520+134963584+135007710+135049172+135104558+135231562
2494+135362173+135423299+135529659+135763343+136006430+136244746+136607815
2480+137017984+137228754+137181223+137014743+136817907+136674910+136661983
2467+136727284+136881148+137151387+137360793+137356298+137269612+137272322
2453+137317180+137431614+137745769+138093192+138254013+138345991+138542626
2440+138831623+139170926+139457928+139553101+139574541+139687858+139788085
2426+139815210+139913963+140116054+140309475+140490383+140718565+140941822
2413+141101920+141290948+141614907+142002089+142296597+142473513+142616730
2399+142786761+143102911+143828252+145572388+149815361+159089621+176311326
2386+203318566+239601916+282723977+330244074+381164796+435867347+495020830
2372+557616501+620208839+678635581+729418689+767345738+788791300+796505828
2359+787971400+754211009+701803189+640882032+583556278+552856688+561366288
2345+601863736+637701817+641056266+628738287+618157588+612340218+610605099
2332+611495710+609998944+601943895+587949278+569953192+548631365+524823035
2318+498906108+473505106+455582697+446648425+437009348+416924402+387218689
2305+357032533+334359539+318326121+303777422+288891956+273351339+256560256
2291+239705364+224523449+211146833+199546020+190846806+185650823+182926277
2278+181186178+179713965+178342033+177020325+175835700+174768713+173675837
2264+172515142+171283205+170002235+168759496+167542060+166283299+165052717
2251+163885797+162736052+161630780+160642762+159807647+159152917+158706623
2237+158345541+157941762+157563707+157277602+157079970+156968318+156906157
2224+156847439+156785608+156723685+156673242+156650117+156641695+156690581
2210+156849306+157017809+157065706+157044815+157077022+157175197+157310523
2197+157463627+157608107+157748193+157890110+158008262+158103618+158201226
2183+158311888+158453036+158601911+158715045+158783376+158773251+158726690
2170+158820398+159057891+159238166+159359082+159512772+159617960+159657399
2156+159733439+159895441+160105433+160276920+160390237+160509212+160643366
2143+160727151+160768438+160830489+160945473+161138053+161364688+161547691
2129+161671299+161756200+161868474+162054627+162233785+162333004+162448904
2116+162689710+162997310+163287516+163558258+163793975+164019127+164318927
2102+164690299+165095067+165560312+166148981+166889051+167752198+168795565
2089+170138714+171812936+173843167+176289208+179139541+182265596+185317370
2075+187925816+190192094+192292689+193930621+194900311+195530653+196183918
2062+196828321+197396685+198013184+198705265+199410602+200167463+201082462
2048+202105030+203036361+203747027+204288457+204906824+205646949+206265133
2035+206657762+206888664+207001102+206958386+206723750+206291883+205674945
2021+204811981+203622577+202455620+201686108+200955852+199849390+198596141
2008+197541458+196660935+195819705+195010461+194298478+193754813+193188061
1994+192266488+191494523+191687157+192461759+193130569+193592133+193941717
1981+194345734+194905658+195611910+196356119+197086247+197683119+197969589
1967+198556830+200098912+201931895+203371737+204651699+205997998+207435569
1954+209027342+210672415+212175608+213434972+214263807+214803700+216321686
1940+219199062+221879849+223672698+224964305+226012543+227003033+227980083
1927+228495734+228144667+227736511+227707326+227536627+228117203+229594213
1913+230141429+229358990+228523198+228372584+228353359+227897379+227102142
1900+225975539+224253365+222336598+220844922+219032922+216842756+215935081
1886+215994971+215632022+214993642+214453237+214046418+213782670+213480728
1873+212226105+209390933+207463985+209531806+213314789+215681549+216813425
1859+217830390+219163542+220706081+222092459+222954342+223088167+222202609
1846+220666130+221549033+225660085+228719842+229419045+229436604+228836968
1832+226138183+222700609+221761881+222213045+222805047+224148800+224847985
1819+224236777+223355028+222292325+220412690+218715142+218701941+219420900
1805+219112531+217296393+215258361+215097018+216145768+215435158+212716123
1792+212495109+216488504+219772296+220477615+220260666+220006273+220316967
1778+221188134+220340111+216647559+213728565+216030931+220985869+224896212
1765+226013056+224977928+225151721+226500382+227515680+228475556+227423346
1751+224107786+222976735+225691596+228870255+230276736+230311854+231121848
1738+232011269+229727817+228078808+232748483+238579439+242944957+245572518
1724+246376544+245696400+241815224+235668575+235165705+242249928+249415776
1711+253167907+252955132+250543147+249320530+247794780+244031169+243590844
1697+248188434+255924715+264137262+267700988+267697674+265341332+259891213
1684+259422929+268775170+276883994+279577213+279617567+281324929+283214745
1670+284716180+290962762+298492657+301934003+305058630+311374404+316485540
1657+315562448+309041772+310366502+323112007+329049708+333108780+345348540
1643+358460858+366031254+368130330+366701236+370940180+384762175+395962651
1630+401542437+405517908+409197130+412514740+417467352+420890938+419534862
1616+419130112+423328556+426114311+425831026+425225970+425995885+427510777
1603+429359781+431920110+435024597+438251099+441991072+446686692+451941997
1589+457480734+463397085+469907398+477333515+485101287+490500762+492830024
1576+498589097+508808806+515623678+521209067+531368831+542744895+551350328
1562+554379233+551339745+558081343+580232223+599719656+614995023+627749281
1549+639430601+648422621+653079388+654921910+659701937+677837579+698125541
1535+709772293+719830145+733328721+744232620+750645196+755913427+761075683
1522+768700715+780985151+794155180+807596411+820539989+829486674+832109914
1508+830585098+840701981+864364458+879679849+884663624+886076313+891404746
1495+900988822+907855694+910546752+914088251+922017659+930617270+937685619
1481+943954868+947849081+947510575+943788178+941035600+945590054+953998220
1468+957070629+954855764+955053067+957656240+955002240+946150911+944249724
1454+952603548+958548499+958511001+955103894+953510601+953521074+950221554
1441+943604571+935497120+926969503+923133221+923412771+921981480+918888638
1427+916743935+916233979+917524945+917399342+916499759+923874244+936268683
1414+943396721+945549626+946707007+947232636+948077364+951366704+955429437
1400+957801837+959515021+961484905+964124477+968385978+971868154+972523122
1387+972635396+974902772+978073686+980772142+982389311+981609985+980796896
1373+983391573+987335222+990716109+993454846+993667163+991250893+989098647
1360+988436502+987923177+987132279+986973865+987184644+986898357+986688530
1346+986848262+986017450+981859507+975068803+970214220+967685750+965243115
1333+964342580+965278342+966059133+966708022+967692195+968022718+967899312
1319+969277432+972350353+975013508+976208167+976655651+977738476+980122374
1306+983276150+987038095+991216691+994548802+996738473+998149404+998395044
1292+998453927+999720726+1002618755+1007522700+1013434621+1019346396+1025621211
1279+1032117571+1037243867+1039536291+1041011964+1043879600+1045993542
1267+1045557776+1044465138+1045050676+1047818122+1052135284+1056619283
1256+1059032696+1058607842+1057465695+1058112973+1060659972+1063584440
1244+1066615030+1069798101+1071569070+1071447788+1070869208+1071152785
1233+1072780134+1073741823+1071960527+1069478783+1068374500+1067571958
1221+1066070944+1064880387+1065116067+1065658834+1065141187+1064095714
1209+1063055588+1061448599+1059208833+1058223928+1059044560+1059137060
1198+1058019081+1056995140+1055254492+1052364373+1049594290+1047622576
1186+1045743288+1043192334+1040663425+1038603312+1036917885+1037025252
1175+1038463720+1037749137+1034481475+1031216816+1029234190+1029664317
1163+1032366507+1033464711+1030652371+1027064879+1025503883+1024246386
1151+1021085872+1017300711+1014977380+1014014886+1013794000+1014700907
1140+1016032008+1015532305+1012496369+1008982774+1007298299+1006953714
1128+1004822707+999522470+995008371+993901012+992296732+989830661+990692160
1115+992727006+991885721+990619508+992172081+995364894+997915921+998628747
1101+996952255+993189577+990496175+992853268+998165663+1001396119+1002614434
1088+1005060950+1008145517+1008610212+1008558579+1010661243+1013228163
1076+1015422961+1017330812+1019727673+1024604154+1030320017+1031439240
1065+1028543115+1027989802+1032383865+1040381898+1046486801+1044904419
1053+1039251835+1037800110+1040548734+1039156552+1033880118+1033010636
1042+1034931450+1035020434+1035814481+1037144410+1036204473+1034619822
1030+1034132496+1032967791+1028790806+1023840648+1022124827+1024081967
1018+1028980859+1033634477+1034334779+1033870670+1034150512+1032484713
1007+1029467819+1027667042+1028294179+1031132227+1032740680+1030883437
995+1027653420+1027054919+1031499296+1037108450+1039255863+1039381612
984+1039530359+1039829317+1040656247+1041036792+1039237407+1037196409
972+1038626235+1043384950+1047751402+1050435722+1053337999+1056116064
961+1057872166+1058164459+1056970606+1056432233+1056471488+1057324052
949+1060150601+1062674091+1062720231+1059327479+1055613578+1055608451
937+1055756099+1052820060+1049936751+1050634490+1054130654+1056241960
926+1056071243+1055069786+1052711448+1050045437+1050104613+1053748498
914+1056339733+1052771576+1046984892+1044860989+1045554846+1047555343
903+1051878731+1056342590+1056453399+1053591256+1051467133+1048702764
891+1043916365+1040030355+1040323454+1043973051+1045875629+1043089508
880+1039204230+1037528104+1034822618+1028421980+1023513347+1024521102
868+1027421328+1026840697+1023488080+1020734183+1019352035+1018428943
856+1017236042+1015542339+1014575450+1014239654+1013199088+1011678373
845+1009923590+1009387341+1011375168+1013334505+1012476448+1010706285
833+1011662261+1013083372+1010814823+1008271779+1007888964+1005465517
822+1002538852+1003511087+1005461782+1005260011+1005125986+1008314184
810+1011813424+1009912751+1005150740+1001219615+997946534+996486534+997011138
797+997306361+995857419+993381754+990980425+988275452+985840360+984800746
783+983195442+979275229+974154792+969782921+968411685+969396077+969771642
770+968737521+966623505+962413710+956240842+951641420+949148324+946607916
756+945009716+943788545+940981111+937970149+936441891+935367123+932729235
743+928466561+924766796+924235087+925008261+921594417+914950628+910510646
729+908580604+906182351+902339112+898139496+893588485+888765687+886780790
716+886125822+882669719+881367254+886663169+893606282+897253243+898802520
702+901486035+904524169+905352198+904255824+903379605+905309280+909023328
689+910132591+909060240+909591289+911986319+914514862+917418970+920525947
675+920333404+917867480+917359134+914941034+907357968+904777499+909907604
662+918100963+922116897+918287134+912682886+912706835+915518003+915137239
648+914653648+917130485+917082661+908775710+898568305+895694591+898505613
635+901149799+899770434+896105090+896311328+901257825+904717664+901153901
621+894335000+888695159+882225750+875208228+870519163+867379668+864707065
608+862762815+859524156+859573738+867668592+875791862
##END=
