##TITLE=Sample description
##JCAMP-DX=4.24
##DATA TYPE=INFRARED SPECTRUM
##DATE=12/9/2023
##SAMPLING PROCEDURE=Instrument type and / or accessory
##ORIGIN=Default
##XUNITS=1/CM
##YUNITS=ABSORBANCE
##RESOLUTION=4
##FIRSTX=4397.6552
##LASTX=599.8556
##DELTAX=-1.9287962
##MAXY=1.8547016
##MINY=0.27447221
##XFACTOR=1
##YFACTOR=1.7273255e-009
##NPOINTS=1970
##FIRSTY=0.29168186
##XYDATA=(X++(Y..Y))
4398+168863283+168588022+168337519+167726591+167225172+167305849+167548743
4384+167766654+167940344+167737892+167725125+168197524+168604223+169154504
4371+169540239+168980365+168294178+168635313+169639930+170055013+169566120
4357+168552945+167115923+166329994+167311715+168948929+169556854+169104417
4344+168703499+169069410+169393965+168733899+168029096+168424683+169158006
4330+168963802+168181841+168049127+168541472+168592266+168288847+168714369
4317+169639498+169955064+169606148+169404265+169959222+170657970+170577793
4303+170197268+169894729+169309526+168883090+169136388+169688429+169822057
4290+169375314+169127175+169548970+170214763+170782229+171257906+171470883
4276+171031921+170339592+169999526+169660617+169500902+169800352+169456422
4263+168369783+167917984+168337501+169114769+169986655+170446529+170664026
4249+171543486+172454657+171865021+170543631+170095697+169892089+169177624
4236+168504532+167901835+167354365+167426226+167923488+168399183+169097447
4222+170078978+171004264+171438878+171287910+170903003+170167747+169459925
4209+169834497+170866288+171401921+171278904+170936958+170757729+170778606
4195+171025761+171484134+171617141+171323539+171233165+171240722+170996948
4182+170953918+171046241+170699361+170178755+170001441+170144007+170328705
4168+170560884+170842047+170804969+170577620+170281620+169668415+169428541
4155+169790639+169877976+169857599+170076235+170096025+170032618+170185139
4141+170533917+170862595+170533382+169606182+168871703+168592714+168765680
4128+168981124+168905502+169523521+171149779+172315767+172149340+170916530
4114+169536323+169279229+169931944+170390213+170485107+170234432+169611634
4101+168861678+168383775+168492196+168805208+168983350+169210923+169447864
4087+169519380+169561737+169798489+170049596+170155480+170167609+169893228
4074+169342825+168650375+168079476+168252511+168953984+169244722+168700687
4060+167813307+167742654+168808141+169899387+170020541+169406767+169076605
4047+169497227+169980306+170058826+169961137+169372864+168424269+168249147
4033+168893735+169185560+168895202+169270723+170420303+170604656+169587704
4020+168715990+168336000+168108082+167956683+167906390+168112051+168959195
4006+170237192+170738077+170186364+169739413+169646935+169303298+168969616
3993+169362236+170190746+170310744+169628404+169140701+169155625+169216513
3979+169375831+169920712+170190746+169867451+169582303+169152899+168715611
3966+169358699+170441853+170381880+169579560+169320517+169595657+169853389
3952+170540525+171881412+172499206+171517226+170124665+169618018+169487772
3939+169086508+168836834+168729569+168566627+168689748+168923774+168674237
3925+168470163+168804863+168688782+168201389+168656708+169933031+170705900
3912+170534245+169843814+168350700+166080975+165124012+166398059+168183273
3898+169571710+169762930+168162068+166742161+167042992+166672285+165898243
3885+166870182+167513132+167358420+167746450+167314182+166300715+165146925
3871+163943376+165050530+166308030+165979973+167150136+169042357+168670959
3858+165384142+159850409+158900106+165886563+170329947+170274839+168232376
3844+166225955+164823474+163722946+164320346+166520713+167462130+167464926
3831+167989568+168403755+168308809+166870769+163781884+163456811+165688096
3817+166589624+168717181+171045361+170595132+168290779+166848650+166625752
3804+164925425+164690209+167709648+168867579+169174311+170728743+171967489
3790+172454899+172204931+171419865+171073019+170691320+170460107+172107052
3777+174066043+173997599+172390199+171617796+173194986+175010031+175786229
3763+175471078+174239182+174681784+176933843+177094783+174387268+174002844
3750+179327793+183178866+185290102+191946189+198609523+200603418+201034409
3736+203003114+206137600+210305377+214831250+217662627+219108259+220428511
3723+221492945+222691128+224605415+226801762+228833442+232323297+240542253
3709+251673230+261898435+270768450+280603813+293456804+305878804+314741245
3696+320213280+321577683+318685384+315275033+315000875+314659326+310911946
3682+304209913+296314907+288222763+281674096+279829133+278518285+275515012
3669+275232279+276484880+276490021+275810391+274765746+273327861+272729028
3655+273415923+272253627+269007132+270107626+277068391+282344824+284317652
3642+285377808+286624231+287661181+288250610+288721578+288968492+289459905
3628+292122353+294601778+294236591+291131971+287666875+287395392+288416675
3615+288068794+288121296+289922297+292900380+296054207+297953364+298419276
3601+298972697+300175815+300944352+301248565+301823140+301834320+300588310
3588+300102902+300984139+301198254+301083553+301231519+301159227+301100876
3574+301313956+301460438+301296978+300995630+301138626+301612095+302062272
3561+302534637+302551477+302041982+301632075+301369408+301468581+302633707
3547+304330549+304731312+303666291+302912798+303342340+304125750+303910634
3534+302869009+302285256+302322075+302679290+303192718+303011454+302124902
3520+301703573+302199920+302873702+302830914+302369108+302027904+301462508
3507+300746628+300611947+301151877+301610405+301425448+300594763+299471184
3493+298593605+298188321+297910264+297473752+297227960+297451944+297734003
3480+297524960+297279720+297549840+297657087+297590282+297843597+297690041
3466+296790102+295711002+295035219+294969345+295005336+294737631+294346081
3453+293939832+293319294+292686127+292703622+293240411+293472539+293322710
3439+293188064+293092618+293050520+292928400+292379740+291775697+291916244
3426+292585229+292784092+292283501+291621762+291327280+291452229+291692087
3412+291899577+291612652+290696149+289837238+289432541+289725849+290395766
3399+290527169+290142141+289933132+290193590+290592594+290797806+290936420
3385+290996738+290919098+290827172+290661055+290461364+290500874+290719579
3372+290703947+290589902+290994357+291778803+292404344+292666424+292609211
3358+292623670+292605346+292475601+292901278+293518917+293600318+293603769
3345+293806877+293924856+294040626+294270891+294418649+294359919+294284728
3331+294472446+294662199+294548602+294244769+293964401+294338490+294885562
3318+294116162+292725189+292275633+292642372+293144068+293443070+293441794
3304+293141411+292583435+292321148+292676672+293087787+293426921+294178999
3291+295248126+296097617+296682958+297192659+297709676+298206472+298375693
3277+298360131+298523314+299112485+300259701+301081276+301055844+301146804
3264+301815721+302039567+301203568+300483340+301137211+302539917+302907588
3250+301867515+300810673+300372056+300010182+299769910+299679192+299035638
3237+298236941+298315997+298837879+298675558+298010680+297874481+298233905
3223+298551196+298701991+298351884+297345594+296431851+295910452+295248471
3210+294855300+295120520+295251888+294672586+293918265+293597834+293066945
3196+291997784+291243635+291032212+290613953+289715359+288851151+288304044
3183+287709042+286253420+284578352+284286424+284644467+283990803+282942552
3169+283160584+283870512+282944675+280931715+280128377+280664390+280607074
3156+279375350+278353394+278813060+279852028+279326609+277641517+277784720
3142+280264645+280718065+277024965+273560368+274052023+276030683+274881068
3129+271627258+270865328+273492649+275029362+272047621+267876340+267412740
3115+270587875+271464281+267060321+262888213+263511994+265893367+263986481
3102+258740122+256260767+258413014+260707619+257848722+252561955+251436098
3088+255413570+257920134+254057191+249122256+248401079+250438314+250912318
3075+248274283+245636973+245616700+247761027+248324163+245489818+242794622
3061+243152114+245589008+246146691+243840388+242035988+242406972+243604292
3047+243251839+241373283+240054706+239982224+240310005+239896215+238620357
3034+237476712+237145360+237179505+236633881+235539064+234992682+237463824
3020+248420765+267800011+280387075+275238025+262229960+251484287+244233232
3007+239352421+236119884+234143588+233239438+232787087+231730796+230399883
2993+230212010+231751915+233508264+233369926+232064840+231611937+232747663
2980+234464122+234232167+232113426+230783254+231217282+232695419+233034760
2966+231030117+228845468+228818552+231691079+234284652+232332890+228375639
2953+226824951+228530678+231549376+231856177+229201044+227088359+227450043
2939+229963508+231148492+228926766+226375481+225950270+227802669+229907193
2926+228846744+225559410+223490204+223893538+225744643+225918558+223483130
2912+221205606+221093096+222909229+224125131+222872651+220932139+220173505
2899+220870199+222318126+222359758+220622370+219409505+219873329+221281452
2885+222133238+221635941+220704393+220370573+220885485+221611528+221428193
2872+220541728+220017844+220148746+220614451+220769249+220194053+219368493
2858+219045785+219358331+219550897+218858792+217675516+216820659+216546847
2845+216779855+217130962+217106445+216895453+217076114+217472218+217534124
2831+217363332+217237347+217131049+216961913+216792329+216765741+216719261
2818+216492222+216285388+216226105+216271585+216287286+216159697+216041821
2804+216102674+216255867+216317859+216264046+216206264+216225036+216388305
2791+216591947+216552575+216262959+216004519+215981848+216155728+216249277
2777+216094824+215845529+215626496+215443541+215286189+215039275+214771519
2764+214700642+214728213+214765860+214893483+214987532+214959737+214932407
2750+214959167+214996504+215033116+214993640+214850022+214852230+215027801
2737+215044330+214863790+214741411+214848193+215173075+215503186+215534622
2723+215266537+215004941+214882131+214905768+215037636+215127268+215105960
2710+215099041+215304184+215519507+215413330+215200491+215163948+215137671
2696+214927887+214810563+215017898+215220367+215207669+215152199+215133617
2683+215111567+215038913+214860081+214610820+214429504+214410559+214536527
2669+214675279+214617100+214311628+213991093+213858604+213854912+213763917
2656+213444125+213036046+212787182+212773638+212886804+212959027+212863218
2642+212546686+212245355+212186176+212141299+211961691+211748525+211518001
2629+211351419+211249917+211018031+210724498+210606950+210620149+210607796
2615+210420717+210019591+209691344+209571433+209488237+209373191+209203606
2602+208967441+208740334+208569163+208458085+208430514+208416918+208255150
2588+207952904+207629350+207367546+207257952+207289509+207306020+207169011
2575+206958501+206813728+206672802+206492175+206312584+206094725+205822707
2561+205579123+205420874+205254137+205003858+204789933+204661308+204530769
2548+204436479+204390032+204257319+204042237+203925932+203993772+204056696
2534+203922205+203717631+203586315+203460641+203299994+203186138+203238951
2521+203432397+203539800+203424132+203191539+203027890+203008704+203066261
2507+203088536+202976492+202749764+202626350+202689066+202746779+202772884
2494+202862929+202939172+202955460+202980684+203121300+203428515+203767666
2480+203931970+203866614+203774446+203825655+203878554+203778380+203630708
2467+203606760+203682382+203754778+203850517+203999759+204126676+204186994
2453+204216980+204266739+204408010+204660791+204941901+205178981+205342388
2440+205469477+205684904+205914737+205922898+205811164+205781178+205790684
2426+205840443+205952056+206113013+206305407+206423869+206502614+206680911
2413+206874512+206915109+206938298+207202586+207575278+207726228+207664202
2399+207738081+208395990+210147974+213836296+220868853+232818195+250587384
2386+273770326+300476887+328067740+354975598+381691080+409551742+439362493
2372+471140137+503722067+534470543+561527194+583733384+598435945+604363954
2359+601850333+588146678+563396122+534208842+506823030+490532081+493777628
2345+512114938+522011241+513451667+500769450+491655247+488121809+491693791
2332+497521350+497354992+492228406+489323339+489505363+486900058+477909251
2318+464017395+449936511+443947942+448089391+451334489+443000555+423975349
2305+402278827+386032186+376105863+367615337+357979941+346725827+333099260
2291+318480689+305313236+293962330+283869045+275304278+268474103+262897513
2278+258085871+253858086+250013672+246499266+243607191+241313621+239219535
2264+237259250+235558250+233967464+232346468+230859307+229641041+228600831
2251+227675252+226831214+225962434+225104989+224404775+223828596+223302280
2237+222904363+222640834+222433913+222290071+222143193+221931320+221761063
2224+221685183+221694776+221807182+221925126+221958840+221969589+222020314
2210+222122057+222278011+222556447+223010230+223447692+223668467+223791984
2197+224005116+224257241+224442387+224591992+224820566+225181025+225496401
2183+225628993+225652769+225654580+225743970+225908913+225988089+225977323
2170+226048131+226205949+226241422+226118508+225947716+225753235+225558651
2156+225429768+225339860+225152074+224844548+224596909+224491732+224421718
2143+224478878+224740579+225037476+225375782+225782428+226200065+226642720
2129+227075592+227445937+227714349+227925807+228188422+228526141+228849125
2116+229071091+229221576+229433034+229781484+230087768+230267514+230511685
2102+230901785+231295854+231585540+231930419+232443450+233035778+233623810
2089+234146055+234677530+235396982+236330480+237381749+238559073+239814106
2075+241103439+242626608+244468345+246527389+248754705+251176365+253718833
2062+256353607+259319976+262637848+266092989+269652048+273377585+277132695
2048+280739322+284268118+287708145+290982004+293987831+296603109+298885498
2035+300821508+302387396+303558837+304275096+304603084+304682588+304587280
2021+304233067+303605766+302687330+301403156+299864770+298208508+296498277
2008+294786528+293103385+291416618+289691826+288008165+286498316+285182309
1994+283945116+282754835+281656567+280613009+279616709+278733746+277951854
1981+277208472+276554135+276082857+275802057+275609578+275353226+275053534
1967+274907259+274978378+275144908+275337888+275619084+276069917+276609070
1954+277072636+277466411+277866847+278315902+278855780+279564741+280530192
1940+281555582+282402330+283148041+283870322+284533493+285165797+285838337
1927+286475645+287033535+287626053+287985994+288028214+288480219+289352744
1913+289822124+289867776+290053251+290541592+291074275+291499987+291827837
1900+292068902+292218662+292360451+292599204+292721117+292748516+293116049
1886+293650008+294034898+294514820+295165413+295642057+295812521+295838367
1873+295615590+294930007+294365129+294910200+296103932+296885341+296991656
1859+296685097+296281539+295948306+295719249+295569765+295328527+294520410
1846+293221847+292845894+293463602+293356527+292562489+292128427+291809376
1832+290450908+288576511+288086340+288613399+289004534+289236611+289345307
1819+289378123+289133849+288336929+287269493+286628234+286777338+287034898
1805+287009259+286987589+286662120+286100106+285963683+285520856+284497209
1792+284781356+286547264+287869430+288568695+288846752+288697440+288829688
1778+289249395+288751081+286921388+285817581+287944103+291215650+292807522
1765+292630468+292228531+292966565+294166956+294979318+295602788+295797235
1751+295442676+295495541+296792103+298558200+299510004+299509728+299916357
1738+300714744+300564328+301112470+303899696+306522496+308429106+309796234
1724+310718673+310988137+309779223+308094354+309364829+313222114+316320039
1711+317970332+318234931+317916915+318445526+318666509+317677541+318249631
1697+321047864+325255704+329529660+331884514+333082593+332900949+331077881
1684+332609883+338792277+343250568+344722702+345245516+346817477+348366941
1670+350100740+354454751+358931987+361325040+364073411+368524835+372171248
1657+372814526+370831311+372959903+380244275+383905836+386871566+393419560
1643+399811101+403540675+404733337+404291131+406596226+413091943+417959210
1630+420214477+421826501+423359505+424929155+427693916+430124479+430894845
1616+433126268+437616616+440906746+442951935+445339640+448464308+451744051
1603+455159268+459011687+463004756+466981779+471430616+476381010+481256144
1589+485944596+490918662+496726415+503321304+509975338+515332707+519494238
1576+525852341+533578091+538827522+544084268+552186453+560836987+568309490
1562+573121581+575652179+584494537+599793308+612954032+624549316+635130718
1549+645079816+653857059+661032216+666044896+672313143+688229932+704929960
1535+715730481+725561220+736425026+745735677+753934861+761391388+767506907
1522+776021485+788165221+799789974+811139500+822631884+832913973+840324744
1508+844002765+851837556+867316315+879393591+886268194+890366578+894944194
1495+901374140+907579033+912434222+917258977+924460359+933059823+941291306
1481+947765559+950688776+950397745+949065157+948985032+951882163+957116928
1468+961058237+963258604+967138076+970924932+969919953+963057567+957985605
1454+960243115+962600281+961007236+956320992+953338699+954022349+955041131
1441+953445877+948831477+942344939+936409822+931108665+924042481+917187271
1427+913865430+913640721+914456257+913598416+915147914+925799434+937722878
1414+943140116+944819015+946841602+949222992+951386506+954146022+957397193
1400+960470584+962844245+964061096+966463673+971677804+975973360+976606631
1387+974593499+972649794+972658421+974815930+977878900+980538278+983609461
1373+988299569+993058830+995332075+994806880+993083330+991773586+992704789
1360+996363279+1000189473+1000080155+996214624+993169666+991472893+989734711
1346+988161542+985977945+981715998+975870323+972078291+971496159+971581598
1333+971519210+971379664+970702639+969830097+970283863+972314318+973529513
1319+973272436+973864506+975044228+976065356+979472291+985643987+991995051
1306+996497097+998420442+998177031+996051544+993602244+992703892+993870708
1292+997777648+1003512142+1009632217+1016155677+1021681335+1025451283
1281+1029833659+1035736823+1041204027+1045174390+1047702159+1048492919
1269+1048566488+1050818891+1054930733+1056225915+1053316845+1049516738
1258+1048489261+1051401091+1055481463+1057911715+1059538508+1061889532
1246+1063727231+1065009576+1067591866+1069024661+1066724845+1064503015
1234+1066127531+1069378633+1070327987+1068205329+1065173208+1064511849
1223+1066370667+1067710983+1067722233+1067538932+1067078541+1065709721
1211+1063810048+1062868838+1063247171+1062898928+1061034382+1059995310
1200+1060451836+1059140091+1055968562+1055944200+1059093300+1059938857
1188+1057011223+1053761915+1052255206+1051045394+1049367393+1048219072
1177+1048007269+1048146055+1047357987+1046080058+1045462316+1043663678
1165+1040094837+1038450928+1039431822+1040119544+1040865721+1041975325
1153+1040346185+1036821237+1035256970+1034669179+1033872070+1033460886
1142+1031289022+1028123842+1027778221+1030030900+1030297708+1027433221
1130+1026360126+1027467107+1027986988+1027677944+1025888692+1024230084
1119+1024115314+1023021514+1019823070+1017857557+1016417101+1010927330
1107+1007031984+1009961620+1013960693+1016112819+1018656254+1022089414
1096+1024413108+1023595433+1021727367+1021363803+1021643240+1022170160
1084+1024486539+1028066009+1031658246+1035380505+1036970168+1035787686
1072+1036210741+1039436445+1041496231+1041485327+1044048775+1050661953
1061+1057089691+1061066404+1060188963+1053092688+1048462898+1052040573
1049+1055365796+1051435736+1046583169+1049474916+1057780036+1060414707
1038+1057005149+1056678990+1056811428+1050402323+1042621363+1039192551
1026+1036464366+1032292206+1031081497+1033540390+1034950411+1034707206
1015+1035584786+1037029727+1037741743+1036772513+1034756827+1035753386
1003+1038928366+1039124365+1036940424+1036914543+1039429268+1041218106
991+1040734457+1038105790+1036641249+1039604563+1043604741+1045612145
980+1046301731+1046331545+1047693601+1051724490+1055964352+1057817994
968+1058947612+1060849701+1061265716+1058456717+1055407687+1055442125
957+1057058980+1059748103+1063581819+1065056368+1064412814+1065478456
945+1068219822+1069286775+1066594409+1062283532+1061767584+1066406623
934+1070584580+1071516956+1072049950+1072176383+1070056693+1067789590
922+1066555278+1064648220+1064011982+1066335469+1068906095+1070205142
910+1069952759+1067553218+1066147269+1069490987+1073741823+1072620142
899+1067810156+1064695081+1064701223+1066152721+1068025755+1070732131
887+1073585783+1072586325+1065010957+1055869320+1051626352+1052148096
876+1054701331+1057631657+1058526282+1056785686+1052722981+1046261289
864+1041278769+1040125479+1041789540+1046056387+1048972565+1046984415
853+1042403556+1037551058+1034395195+1034200852+1035898453+1038203790
841+1040337835+1041994235+1042951180+1041699270+1036260293+1030468034
829+1030758099+1035800730+1039150383+1037830356+1035383196+1034431910
818+1032102487+1029308188+1029561814+1032098761+1033987944+1033482073
806+1032150866+1029666438+1023851474+1018990280+1018514223+1018348176
795+1016007642+1013361377+1012003531+1012344528+1012590631+1011423332
783+1010693166+1010909938+1008738971+1002761341+996309172+991319061+987549734
770+987091759+990433959+992001400+988237181+983198691+980901221+981232833
756+981759270+979956630+975241952+969018219+964126038+962118289+960738565
743+957597678+955296068+956828519+957187598+950356613+942127132+940186878
729+940248231+936601611+932727867+931566641+931549663+930155239+926083356
716+922404369+921982212+924618056+930095750+935783729+937645100+936677250
702+935839561+936291877+938460981+938911365+934026292+930646549+935309742
689+940909383+941725747+942033963+942742390+942004563+941149827+942688145
675+946978594+950847784+950288358+944094922+940258928+944646480+946371618
662+941039060+936424384+936548470+936269586+936815209+940248714+942190831
648+942941563+940770803+933679084+933114206+945696801+956011672+947580878
635+933573217+929952615+928280687+922963588+920432093+915879184+906710494
621+904719791+910256216+910163944+907346870+912330356+920545413+929024310
608+941280884+949762611+941559286+925401431+926806690
##END=
