##TITLE=Sample description
##JCAMP-DX=4.24
##DATA TYPE=INFRARED SPECTRUM
##DATE=12/9/2023
##SAMPLING PROCEDURE=Instrument type and / or accessory
##ORIGIN=Default
##XUNITS=1/CM
##YUNITS=ABSORBANCE
##RESOLUTION=4
##FIRSTX=4397.6552
##LASTX=599.8556
##DELTAX=-1.9287962
##MAXY=1.7824148
##MINY=0.16451989
##XFACTOR=1
##YFACTOR=1.6600031e-009
##NPOINTS=1970
##FIRSTY=0.17882414
##XYDATA=(X++(Y..Y))
4398+107725183+106652005+105628163+105131309+105157808+106720066+108397718
4384+107973538+106243822+105113804+105217089+105877101+106272376+106506845
4371+107241471+108302324+108815452+108564287+107985953+107674582+107868548
4357+107923925+107459988+107286273+107769770+108350950+108450213+107748253
4344+107166741+107694654+108566603+108809941+108733990+108842373+108720830
4330+108117936+107556064+107663469+108385851+108706889+108341587+108059265
4317+108145027+108235574+107943996+107638550+108177917+109230512+109596469
4303+109311561+109126482+109209444+109100782+108341300+107801035+108193877
4290+108737796+109015468+109413697+110081689+110371068+109793622+109357889
4276+109969886+110512539+109959940+109381740+109742904+110254893+109706109
4263+108561900+108352718+109048143+109533929+109310780+108835308+108716997
4249+108813630+109142128+109625652+109703524+109620293+109676235+109455258
4236+109104597+109144803+109308482+109323123+109578498+110275952+110974842
4222+110983827+110384461+109981708+110141141+110577493+110732905+110754099
4209+111306993+111856639+111487315+110699961+110542206+111097633+111610923
4195+111570097+111358187+111579155+112054016+112115461+111397881+110510995
4182+110697771+111772860+112205666+111775850+111684109+112146215+112159168
4168+111733588+111885454+112472334+112582979+112066125+111162928+110262352
4155+110063063+110544352+110974079+111325153+111875624+112153351+111885929
4141+111736837+112059932+112296366+112192381+112048612+111891791+111594487
4128+111199777+111075003+111596443+112299570+112434919+112128288+111904107
4114+111847958+111951019+112048684+111516265+110698076+110912553+111822034
4101+112112274+112180810+112586337+112578832+112131017+112087858+112552172
4087+113073155+113517191+113898157+113841506+113125506+112191878+111623634
4074+111590788+111719414+111877563+112467038+113136108+112980310+112441849
4060+112673759+113292372+113379068+113187202+112980965+112519057+111838874
4047+111384300+111541175+112122355+112854207+113333368+112943165+112343556
4033+112753893+113532693+113390450+112797906+112724666+112922465+112675034
4020+111989654+111593409+111714198+111903631+112068495+112456131+113081943
4006+113614021+113651750+113216259+112862061+112894090+112889907+112543276
3993+112278781+112521238+113217821+114161467+114727935+114430819+113976451
3979+113916236+113753526+113173881+112573967+112553626+113039493+113295693
3966+112943452+112408035+112489237+112978515+113118872+113114770+112938264
3952+112241321+111831477+112566364+113298171+112963721+112896962+113516930
3939+113428502+112444489+111222515+110773748+111814269+112875338+112492809
3925+111804628+111738345+111135164+110495241+111666497+113890473+114930303
3912+114604848+113611956+110887221+106659133+104867989+106722103+109638264
3898+112436814+113091988+110615428+108764995+110104230+110285368+109101330
3885+109746674+109558776+109349245+111563912+111590142+108982147+106545345
3871+105328183+107289145+109027820+108450231+109911826+112865401+112640851
3858+107835532+100186466+99108181+108589933+114874585+115257365+112690411
3844+109445680+106485436+104325965+105262537+108702751+110515438+111101044
3831+112093944+112400746+111764368+109571505+105619078+105745217+109220377
3817+110565357+113397640+116665755+116012906+112283260+109653156+109052569
3804+106727920+106540821+110814358+113229500+114758805+116902539+117514797
3790+116954783+116370102+116244789+116821149+116497722+115352157+116207931
3777+117875332+117367069+114921497+113589425+115447929+117702192+118941616
3763+118851653+116764713+116125661+118027817+117681896+113979996+113405917
3750+120041544+124365853+126054932+133991724+142499930+144797398+144335831
3736+145638028+150275997+157420794+163465842+164998199+163530797+162445133
3723+162377790+162868756+163008737+161897058+160430625+162704736+173390859
3709+187885640+200130906+209872513+219192238+229652241+238279871+242379568
3696+242684323+239213741+231528222+224149217+222642981+222269771+217837402
3682+210260607+201917875+193397982+186963295+185787740+183868366+180500010
3669+182349187+186135995+187180044+186553586+185356540+183244511+181964755
3655+182642308+180549201+175139659+174802535+182139440+188912579+192322676
3642+194162571+196045949+197868286+199310626+199903457+198178642+196017583
3628+199213104+203403015+202615374+197378056+191212632+188834070+188210448
3615+186163912+185523648+187692571+191426939+196017547+199404180+200419862
3601+200471729+200554206+200071499+199377968+199225312+198260221+195593188
3588+194178657+195350766+195735952+194694775+193664137+193042383+192923569
3574+193258845+192709244+189952301+186876959+187429432+190268977+191988299
3561+192587127+192531975+191786702+190820732+190454739+190665096+190229408
3547+189319990+189611747+191079653+191952985+191445664+190561811+190180540
3534+189980649+189527583+188918145+188600750+188729546+188918934+188978647
3520+189115396+189273779+189313294+189196078+188658560+188017865+187948171
3507+187915568+187473040+187523991+188161795+188324218+188017272+187923180
3493+187990271+187866376+187534242+187199595+186920280+186626763+186602778
3480+186840837+186778306+186517949+186569546+186905594+187148824+186955988
3466+186383336+185979031+186172350+186619833+186842560+186960979+186999058
3453+186818467+186535400+186359099+186532419+186827246+187006132+187417762
3439+187736628+187537330+187510329+187983592+188487663+188787661+188739367
3426+188259640+187907686+188324882+189140333+189685266+190017345+190279839
3412+190414793+190532189+190694683+190782869+190897446+191351105+192005013
3399+192393681+192579838+192956226+193462739+193654945+193466635+193446186
3385+193795806+194116575+194442192+195104736+195878949+196396880+196777307
3372+197196604+197545919+197789848+198093311+198706825+199682759+200697131
3358+201517537+202149256+202556039+202740184+202815031+202981044+203580949
3345+204698803+205741955+206163926+206179222+206523402+207537721+208481932
3331+208860492+209109090+209295749+209268191+209273469+209519697+209936695
3318+210366584+210878680+211523540+212085331+212498829+212956886+213491406
3304+213543111+212726870+212186066+213134802+214790084+215871458+216520626
3291+217476094+218552441+219093101+219322560+220044260+221473817+222987251
3277+223920673+224091425+223944568+224359987+225202691+225476261+225282008
3264+225437213+226057046+226533577+226096310+224877649+223900960+223750243
3250+224289556+224752569+224517652+224024460+223615289+223294448+223337266
3237+223642686+223926023+224070097+223956274+223722003+223476080+222967880
3223+222237976+221660368+221182060+220684847+220395226+220160991+219620637
3210+219152651+219147678+219016800+218302604+217402055+216566981+215690669
3196+214973368+214574520+214094489+213290671+212496333+211828996+211072664
3183+210442957+210136604+209779713+209121568+208100624+206864674+206048379
3169+205966513+206105830+205855437+205327542+204901495+204617924+204561318
3156+204740060+204786505+204372882+203671595+203144867+203002247+203149894
3142+203162407+202744295+202258734+201949419+201607554+200976123+199864553
3129+198574061+197723565+197485524+197500533+197162672+196228281+195044718
3115+193929737+193041252+192370360+191589648+190575222+189428446+188119587
3102+186754033+185509196+184507194+183756931+182940438+181947628+181202410
3088+180971065+180710906+179861038+178866612+178288700+178130927+178011359
3075+177553086+177120307+176992552+176862284+176745247+176815193+176913361
3061+176732016+176320978+176046474+176000370+176125809+176318913+176311319
3047+176132829+176062165+175978521+175674215+175368293+175172083+174730435
3034+173870101+173039784+172582715+172331370+172122700+171842290+171519725
3020+171482329+171843744+172235446+172121121+171441970+170697685+170062359
3007+169329743+168654022+168187006+167744101+167343153+166971145+166498205
2993+166309733+166761740+167513636+168131190+168513323+168672191+168654830
2980+168550899+168486303+168578690+168702442+168702872+168638762+168350416
2966+167639488+166958093+166902834+167099977+166743374+166049322+165697906
2953+165607979+165468842+165454425+165770742+166187328+166293395+165912285
2939+165368681+165075470+164802402+164246285+163767025+163630240+163538984
2926+163408931+163352432+163050226+162352871+161672859+161265196+161041895
2912+160850532+160674393+160757301+161129039+161457331+161602626+161623165
2899+161622411+161641154+161548049+161481855+161679268+161983036+162162298
2885+162137433+162031186+162084382+162238366+162287504+162306175+162413643
2872+162524522+162503283+162235063+161805677+161514458+161345734+161100332
2858+160936546+160881250+160578182+159959660+159223005+158525075+158147359
2845+158215635+158446171+158609312+158771860+158983707+159166488+159345428
2831+159609321+159962676+160274038+160262925+159972909+159738512+159604187
2818+159517976+159392321+159156812+159095609+159408372+159837309+160072208
2804+160236695+160528075+160730030+160713226+160675919+160727768+160861447
2791+161150117+161443238+161410491+161206849+161139434+161147190+161162235
2777+161251265+161378876+161398983+161312988+161179093+160961195+160818647
2764+160938018+161115754+161130188+161094857+161174587+161351138+161457798
2750+161446577+161367601+161214479+161139865+161245951+161397386+161430042
2737+161254047+161075952+161230475+161654942+161972067+162093987+162263500
2723+162505832+162580194+162414343+162254165+162272639+162432853+162738164
2710+163057300+163122326+162947121+162770372+162781037+163028916+163272146
2696+163264264+163157066+163156222+163254946+163383132+163471264+163459774
2683+163369919+163343671+163437530+163530097+163503382+163336310+163099095
2669+162950173+162948755+162895291+162716405+162589225+162518543+162418813
2656+162369837+162368921+162266606+162136033+162164812+162206733+162028888
2642+161754187+161561639+161396901+161230619+161087586+160954750+160805649
2629+160556998+160261632+160089048+160027092+159969462+159854113+159627580
2615+159289234+158927137+158688395+158682327+158811393+158812111+158602938
2602+158383874+158246658+158113266+158057665+158132116+158160698+158035510
2588+157824812+157590954+157395121+157312482+157286540+157171837+156937746
2575+156732272+156662326+156629813+156554122+156421897+156182528+155854828
2561+155554167+155350883+155150489+154913364+154769846+154716328+154666741
2548+154609937+154474714+154261430+154120642+154085184+154058254+153994808
2534+153904719+153824737+153757575+153630987+153428978+153225802+153125354
2521+153185012+153258369+153203809+153094941+152988604+152944063+152985211
2507+152936899+152780617+152686165+152682359+152715842+152743526+152800904
2494+152938300+153066216+153177400+153431132+153828077+154168936+154442345
2480+154769936+154985051+154918014+154710655+154570099+154562810+154564229
2467+154552505+154654892+154821839+154949450+155014763+155073740+155222410
2453+155387238+155485370+155612299+155790556+155947754+156095167+156244664
2440+156421951+156684839+156950780+157129378+157224009+157199700+157101963
2426+157079001+157203255+157468316+157816679+158146030+158373281+158478649
2413+158525022+158623926+158817748+159057315+159295482+159505911+159727399
2399+160081023+160648523+161709663+164334327+170476772+182478072+202340008
2386+230674638+266011921+305611682+347409791+391267309+438352376+489040608
2372+541784408+594958760+646680808+692176014+724519156+741853519+747693183
2359+739466896+712186045+669740437+618893821+571103015+545399638+552723706
2345+586477861+613109812+610619850+596478424+584999632+579526213+580957547
2332+585043941+583956589+576710617+567007071+555725836+541916722+524864081
2318+503506916+481007390+467113681+464720236+461712541+445767467+417901594
2305+388298931+366354302+351996324+339234168+325288180+309872724+292609061
2291+274870573+258785069+244689567+232316222+222439213+215545213+210818932
2278+207144277+203964429+201103537+198559734+196392391+194567810+193023766
2264+191608589+190097381+188467412+186937946+185632247+184404717+183106541
2251+181816552+180737530+179866209+179024169+178172632+177416373+176840399
2237+176382827+175938306+175553480+175317719+175151490+174969625+174833719
2224+174720758+174608389+174572106+174589161+174603739+174572985+174488695
2210+174439881+174473327+174578874+174783325+175018080+175144812+175190018
2197+175258832+175368778+175479064+175570841+175676531+175821934+175972004
2183+176077784+176178214+176297513+176395861+176458428+176458302+176469720
2170+176635913+176904654+177098907+177171258+177212874+177298169+177458653
2156+177622673+177677215+177723390+177871127+177990874+178016063+178086726
2143+178262650+178449363+178620079+178836684+179073971+179255209+179416769
2129+179630232+179854055+180006118+180108667+180258701+180476168+180753185
2116+181087563+181359985+181515351+181713411+182065490+182490298+182877728
2102+183227958+183609894+184105635+184783206+185575874+186350141+187132432
2089+187995926+188973386+190188834+191704244+193471446+195428378+197352383
2075+199103590+200911779+202925892+204914960+206751497+208757154+211141443
2062+213647149+216125028+218626103+221102366+223549132+225948681+228205359
2048+230342056+232391949+234257337+235952045+237557400+238912864+239927667
2035+240752364+241450958+241975639+242230682+242165476+241829106+241250888
2021+240393642+239196040+237899372+236907243+236049028+234892826+233517415
2008+232233781+231054653+229862437+228667779+227562115+226626593+225730496
1994+224666896+223762272+223482238+223558916+223571555+223513818+223514967
1981+223598288+223721931+223946812+224283057+224666483+225003231+225208292
1967+225617535+226578335+227729725+228688533+229624144+230757313+232027805
1954+233267471+234438862+235607937+236696545+237483522+238120393+239421011
1940+241480760+243319057+244626802+245632413+246419175+247137482+247842934
1927+248257149+248200040+248139502+248231333+248189394+248583179+249457660
1913+249772612+249360354+248990357+249101864+249367427+249440640+249366835
1900+249255382+249018795+248734829+248695476+248616285+248577649+249442041
1886+250850323+251956382+252804419+253571432+254331731+255169749+255931682
1873+255934105+254848890+254318984+256063709+258510457+259859010+260245578
1859+260341825+260461231+260545198+260483260+260153639+259282067+257519065
1846+255159570+254167998+255093789+255515581+254788226+253890998+252745299
1832+250435462+247854047+246976855+246958219+246894450+247160480+247087662
1819+246461653+245780940+244842330+243301517+241973665+241819752+242110899
1805+241746988+240551127+239310760+239181551+239650183+238959614+237206056
1792+237292034+239930612+241904760+242320071+242300323+242239210+242461039
1778+243065738+242692097+240671611+239256614+241041123+244308977+246820860
1765+247552936+247052007+247446348+248595046+249520909+250300059+249783528
1751+248070167+247824119+249767065+251909399+253060449+253427860+254265986
1738+255054885+253959831+253639277+257092175+260903256+263883806+265851348
1724+266722723+266655650+264564752+261330111+261855941+266757032+271355234
1711+273833005+274012824+273058793+272883695+272337165+270671936+271370746
1697+274658295+279754482+285308799+287960195+288455685+287413503+284594316
1684+285482352+292238921+297600923+299597782+300290362+302114404+303746419
1670+305306263+310253403+315744129+318417393+321064085+325864548+329858662
1657+330016112+326869962+329444267+338847923+343359807+347321964+356697434
1643+365969458+371606538+373978152+374485329+379081054+389256158+397099217
1630+401687653+405691282+409456027+412840774+417180523+420425559+420871444
1616+422446511+426670605+429412593+430251150+431147265+432967501+435261845
1603+437935467+441272495+445029627+448890744+453169524+458095048+463385238
1589+468884366+474554158+480756979+488062484+495795813+501749623+505974651
1576+513008237+521999545+527953894+533882031+543520587+553739066+562005101
1562+566402946+567193855+576105020+594756176+610254755+622707075+634232940
1549+645963040+655414236+661154655+665364962+672949387+689940485+706799016
1535+717517419+727513458+739279106+748845418+756008015+762890759+769119432
1522+776488563+787685167+800184166+812588228+824256354+832908634+836854597
1508+837748234+846768052+865403445+878877516+886216270+891241219+896951764
1495+902800693+906607627+909464336+914342643+922221573+929972532+935688319
1481+939938194+942989013+944290474+943973852+944798261+949042463+953603215
1468+955273578+955135985+956359602+958369208+957442824+952607101+952225202
1454+957463937+958616603+955279539+951965168+950945643+950013083+948532665
1441+946962121+943064559+936179015+930200393+925893858+920245144+915629670
1427+914522678+913997943+913482902+913291234+913600459+918687383+928824031
1414+937997528+942791599+944974562+946728012+948588032+950123747+950506149
1400+951985922+958112621+966290435+971883063+975436068+976060120+973601038
1387+972601047+974364623+976107445+976648123+977097814+978600351+980671141
1373+983887991+987972122+990820860+991218486+988390431+984184936+982967424
1360+984893799+986860533+987800705+987599845+986725956+986597053+986947211
1346+985184066+980901588+975837645+970584259+966545442+965196656+965615467
1333+966533521+966828958+965514212+963279616+962519263+963511571+964336196
1319+966190113+970860092+975949242+978282005+977916766+977917268+980039621
1306+982885342+985296166+987541749+989530457+991391842+993934658+997409817
1292+1000957436+1003026432+1004616939+1008850656+1015822088+1022959408
1281+1028365108+1032019871+1034841895+1038112675+1042428187+1045643313
1269+1045782271+1044050220+1043327641+1045607838+1049259369+1051915649
1258+1054443886+1056811766+1058110714+1060415686+1064458812+1067479110
1246+1067704315+1066436390+1066661882+1069690510+1073165526+1073741823
1234+1071297894+1067708552+1064889760+1065084803+1067161052+1067919322
1223+1067211321+1065636325+1063137315+1060702506+1059269843+1058510495
1211+1057624255+1057358620+1058808302+1060634140+1061664724+1061687489
1200+1059793501+1057762351+1057453197+1056911370+1055151457+1052577905
1188+1048983537+1046015087+1045236135+1044997717+1043596795+1041549990
1177+1039310296+1037523811+1037359935+1037618460+1036518649+1034374394
1165+1031099951+1027828308+1027586443+1029979745+1031403359+1029676480
1153+1026249578+1024291605+1024122630+1023308633+1021189943+1019543925
1142+1018733447+1017114142+1014677179+1013674961+1014137147+1012509441
1130+1008246424+1005211404+1004476976+1004083586+1003329337+1002091861
1119+999950550+997608092+996218301+995449618+995176586+996039847+997402708
1105+998360115+997446729+995768538+998364424+1002888551+1001936961+998588192
1092+999377844+1002493007+1005167168+1009183364+1014326302+1017324553
1080+1018288782+1020060258+1022582750+1025296336+1028873973+1031407381
1069+1031135642+1028549595+1025745094+1025696979+1027784790+1029930481
1057+1033135984+1037587006+1039518983+1038076194+1037030817+1035989749
1045+1034526134+1036371289+1039129471+1038139174+1037054156+1037549879
1034+1036391684+1035941203+1036646691+1032887512+1025489656+1022240922
1022+1024417349+1024131391+1020456879+1019124682+1019949164+1021221469
1011+1021443657+1019251001+1016389480+1015751281+1019268810+1025575257
999+1030756542+1032196961+1031324006+1031708348+1033152142+1032062528
988+1031093703+1037067585+1045784209+1047308362+1041914439+1037295519
976+1038401075+1042395728+1046313684+1050292179+1050665390+1047293999
964+1045529993+1046778384+1049779078+1052855030+1053494020+1052974383
953+1054926898+1058045149+1059240758+1059896408+1060332096+1057363862
941+1053264722+1052628677+1053654162+1054552036+1055746784+1054700617
930+1051227396+1049283642+1050567437+1054031897+1056190586+1054146151
918+1051828181+1052988889+1054654872+1053061851+1049153015+1047360929
907+1048796034+1050532105+1051243769+1051622509+1052258770+1052738048
895+1052291660+1049312367+1045181055+1045725108+1049116821+1048768099
883+1047412849+1048654778+1048847595+1046280579+1044308961+1042935831
872+1039007318+1033792208+1030887385+1030483942+1028831819+1024103959
860+1019680369+1017447999+1015079976+1012614216+1013347567+1016737700
849+1019989522+1021781967+1020192752+1015954152+1012677123+1011483740
837+1010223140+1008372671+1008840028+1011828082+1012992884+1009326128
826+1004371196+1003203306+1005067492+1006347984+1005806229+1004679057
814+1002757852+1000139490+1000478230+1005205157+1010133518+1010770497
802+1006361126+999843334+995927963+995656511+1001227955+1014812330+1021920350
789+1011107513+996471082+989515664+988311940+988043217+986064633+982733027
775+979147492+975227668+971170753+968632821+967525829+965344518+960758129
762+955974327+954790207+957885837+962443788+963301160+956857695+948298627
748+943341326+940224080+937965643+936624757+933941404+929846213+924631391
735+919687016+917744626+916410490+913665665+911994799+909972913+906181060
721+904630911+904253751+900232025+895354291+895166501+900053139+904976473
708+905522824+903163490+901578728+901429357+902858933+907586577+913710189
694+916768979+917683513+920003494+921121402+918899159+919399478+922492594
681+921062588+917443946+917179819+920101590+925839352+931882893+930239603
667+920150567+914660845+913601608+913455110+912758240+910776784+909156546
654+907995551+909187067+915486332+923340558+926349222+921160756+910997393
640+904199245+902171326+899822190+897895742+899057815+904028331+911025687
627+911092042+904797157+904475795+907501838+899826498+881609199+868727223
613+869599101+877782803+886448369+891761431+890482949+888704723+892931547
600+893804358
##END=
