##TITLE=Sample description
##JCAMP-DX=4.24
##DATA TYPE=INFRARED SPECTRUM
##DATE=12/9/2023
##SAMPLING PROCEDURE=Instrument type and / or accessory
##ORIGIN=Default
##XUNITS=1/CM
##YUNITS=ABSORBANCE
##RESOLUTION=4
##FIRSTX=4397.6552
##LASTX=599.8556
##DELTAX=-1.9287962
##MAXY=1.7551553
##MINY=0.13072291
##XFACTOR=1
##YFACTOR=1.6346158e-009
##NPOINTS=1970
##FIRSTY=0.14660035
##XYDATA=(X++(Y..Y))
4398+89684899+89624688+89046569+87862273+87429791+88806554+90119048+89510838
4382+88086353+87687072+88577095+89603475+89722338+89398611+89778128+90969316
4367+92076519+92797148+93239319+92837960+91898109+91380247+91038087+90484710
4351+90187282+90736430+91958858+92902383+92882993+92342669+91894982+91151253
4336+90405555+90756868+91558793+91278677+90353421+90302982+90661615+90221312
4321+89705319+90249334+91277692+91463039+90881912+90311879+90236034+91198265
4305+92629769+93299202+92961336+92208263+91611776+91222723+90904319+90656783
4290+90966691+91909997+92506684+92759763+93317097+93781430+93784292+93365065
4274+92701074+92280462+92156840+92144907+92186530+92036435+92126356+92924845
4259+93763335+94036158+93708866+93260177+93445469+94199307+94770543+94544293
4243+93887248+93614871+93264990+92421031+91915256+91977911+91991475+91908164
4228+92246022+92951290+93392906+93479909+93684645+94132943+94312027+93977187
4212+93505552+93477138+94221386+94887292+94643138+94067435+93775003+93883866
4197+94271916+94556408+94638753+94509625+94167994+94038073+94138267+93971052
4182+93832379+94096944+94270941+94205944+94311434+94482660+94351435+94436761
4166+95288615+95934001+95376083+94220320+93504230+93250723+92796592+92237680
4151+92265110+92808515+93390681+93888898+94217685+94489415+94844830+94605134
4135+93688383+93389597+94034982+94565297+94301297+93924779+94427134+95007496
4120+94391445+93180147+92649605+93064155+93768895+93983258+93576785+93296349
4104+93888178+94750051+94647122+94076387+94341517+94936409+94910966+94553245
4089+94309219+94154365+94031336+94119360+94349603+94315482+93938781+93813217
4074+94409158+94832769+94574905+94820326+95594530+95470406+94538104+94162214
4058+94371582+94434145+94669666+95055555+95018909+94872305+94773196+94555871
4043+94863025+95855822+96288531+95557519+94579855+94018063+93598335+93245144
4027+93374592+93906757+94501621+95002564+95068664+94820891+94786022+94973602
4012+95001971+94845987+94976684+95345882+95295525+94815613+94539635+94504201
3996+94360834+94308526+94413971+94412275+94539863+95053768+95492813+95414470
3981+95031097+94460718+93779898+93615929+94192580+94909717+95194018+95004032
3966+94778146+94938241+95525093+96026200+96007475+95700148+95267393+94651798
3950+94367069+94910036+95044206+94319411+94745146+96013793+96131417+95067962
3935+93359669+92486474+93705056+94901367+94261442+93580048+94133034+93924460
3919+92723035+93114786+95229571+96268713+95539278+94195150+91587855+87519073
3904+85180710+86425089+89898405+93778431+94755611+91806275+89718300+91585020
3888+92100822+90866707+91459775+90878630+90437142+92869675+92505536+89401072
3873+87327327+86563908+88608153+90220619+89601150+91426621+94553473+94079642
3858+88734711+80502496+79971643+90554757+97032196+96881664+93307616+89461447
3842+86662479+84611123+85527920+89122195+91090559+91958521+93389980+94116853
3827+93903128+91562868+86525283+85666547+88805624+90364707+94239245+98410946
3811+97943678+93930732+91207098+91005561+88771630+88440811+92663680+94772494
3796+96074442+98337425+99183509+98934651+98417874+97711776+97451104+96747859
3780+96062326+98080281+100812730+100663793+97745861+95528111+96826047+99262080
3765+101205329+101358304+98731920+97614408+99506936+98951935+94077581+91834826
3750+97919685+102302276+104325290+113895214+124102703+127201086+127116107
3736+128921486+135038824+144314029+151855661+154116812+152975635+151665273
3723+150955838+150892090+150669240+149101935+146674435+147826342+158804170
3709+175211843+189225327+199414374+207991256+217500613+224803115+226510961
3696+224376103+219621032+211520060+203932538+202142428+201176351+196204100
3682+188627554+180316148+170946666+163683182+163519403+163343136+161653759
3669+164594217+168132757+168616215+168014012+166967477+164385916+162149068
3655+162130781+159472391+153241640+152701535+161080217+169015332+173283626
3642+175875434+178020575+179370892+180545452+181941987+181353239+179789189
3628+183514315+188168034+187160807+181051682+174016225+171326257+170347344
3615+167644121+166788256+169383436+173803858+179044284+182775117+183751295
3601+183615722+183700537+183474314+183235530+183380474+181775875+177564519
3588+175213903+176926837+178091424+177281139+176246728+175636138+175205298
3574+174855572+173850004+171223756+168659443+169669514+172523297+173751624
3561+173848053+173879612+173589432+172890909+172692198+173191919+172929579
3547+172096559+172459339+173651275+174054275+173416811+172775792+172750176
3534+172855357+172533945+171857647+171272199+170944934+171126634+171886927
3520+172298697+171976611+171576254+171122313+170479070+170417647+170982018
3507+170770089+169727784+169719233+170786899+171016076+170272027+169930013
3493+170252246+170327726+169846128+169367319+169235830+169437457+169829318
3480+170099334+170008210+169602876+169409581+169915610+170652694+170769251
3466+170122470+169285457+168983845+169399097+169919457+169958875+169787457
3453+169852436+169773309+169379899+169415451+169992057+170553019+171102112
3439+171569964+171571659+171311726+171349156+171757243+172178074+172334796
3426+172184528+171958196+172111691+172887573+173833376+174168918+173997391
3412+174066162+174324218+174329287+174314993+174859054+175836435+176297851
3399+176020925+175868761+176273074+176992490+177667093+177977675+178056528
3385+178316480+178792007+179245930+179673561+180105167+180349932+180532106
3372+180896874+181215168+181458292+182035937+182919241+183626442+184178890
3358+184911853+185621880+186211467+187006619+187915375+188477523+188681630
3345+189143374+190060936+190840792+191121218+191359675+192119238+193011312
3331+193504123+193908855+194483163+195109305+195699202+195977458+195749959
3318+195724070+196695799+197927080+198209402+197893514+197979241+198533914
3304+199100054+199308591+199238161+199545845+200389695+201151555+201780468
3291+202734513+203840940+204822023+205788009+206841418+207892146+208487567
3277+208746042+209208315+209491458+209516235+209830628+210257585+210587147
3264+210875613+210985826+210874775+210439303+210039548+210235962+210411335
3250+210129724+209886126+209566792+208876000+208250515+208042633+207998949
3237+208028504+208258446+208234398+207695514+207317565+207315340+207027384
3223+206543890+206451107+206427041+205906572+205094463+204553556+204301827
3210+204140237+204092815+203685148+202595311+201536798+201025408+200549115
3196+199688966+198907579+198487878+198021758+197287428+196287512+195018491
3183+193944043+193507788+193446546+193283698+192742207+191991650+191418673
3169+190893592+190208433+189642767+189364911+189049515+188727848+188876038
3156+189151833+188956550+188404248+187754952+187310966+187232040+187290966
3142+187157088+186680358+186109586+185486143+184675603+184005504+183464834
3129+182782464+182147006+181552424+180974214+180631635+180344207+179703936
3115+178468954+177056594+176185615+175522900+174420830+172970000+171460663
3102+170307434+169520705+168432418+167027423+165844422+164996834+164386919
3088+163893652+163505091+163206086+162791855+162374051+162148594+161837118
3075+161306676+160903785+160694336+160475315+160388458+160430264+160282220
3061+160011456+159956651+160117330+160091568+159829045+159754841+159830030
3047+159781843+159694548+159538117+159313444+159239677+159145254+158651914
3034+157857072+157198896+156840200+156599683+156284616+155788158+155331866
3020+155187268+155050437+154683664+154280299+153888183+153525056+153193580
3007+152817399+152400460+151827310+151230495+150900532+150568044+150125672
2993+150105188+150664974+151329193+151770052+152058182+152295453+152448547
2980+152458867+152373851+152266382+152123133+151982884+151911059+151866828
2966+151723570+151369559+150838889+150256185+149784049+149588712+149655596
2953+149731486+149617691+149517507+149620691+149631785+149335861+149038679
2939+149029773+149070567+148854846+148507463+148261340+148152403+147969035
2926+147659766+147457928+147053633+146115770+145306041+145108443+145002205
2912+144669480+144607737+145101906+145675586+145955392+146034273+145944398
2899+145799746+145890477+146214104+146539008+146680543+146584287+146374446
2885+146222400+146237305+146427200+146631344+146627378+146383708+146084921
2872+145848079+145567433+145206759+144978348+144919924+144785800+144543287
2858+144366181+144203698+143795647+143074626+142252098+141530403+141126910
2845+141174806+141469225+141820456+142131375+142258698+142273393+142389768
2831+142657332+142903273+142985070+142983521+143036129+143149204+143213508
2818+143211886+143106860+142803525+142528295+142535551+142730406+142993667
2804+143361297+143819887+144186833+144368369+144505337+144666098+144769628
2791+144769710+144676636+144589405+144565038+144498163+144392308+144362508
2777+144377421+144348405+144339900+144397595+144346855+144168929+144095454
2764+144190808+144348761+144412627+144279707+144164681+144319070+144615303
2750+144851235+144922321+144788280+144679991+144786885+144977746+145068360
2737+144975230+144842802+144900716+145110785+145281109+145305002+145293643
2723+145427749+145561791+145552830+145568801+145646815+145748842+145927415
2710+146110446+146214432+146210813+146091868+145999641+146105396+146360024
2696+146560230+146596165+146575709+146624188+146672730+146718693+146828751
2683+146862990+146805140+146819808+146816399+146682740+146531259+146385303
2669+146238408+146164030+146088167+145910441+145681238+145505426+145453894
2656+145457020+145334693+145086756+144914946+144851727+144752399+144619971
2642+144551364+144474078+144257391+143970027+143760742+143637968+143488155
2629+143247857+142970184+142672227+142351991+142153819+142193273+142249746
2615+142051838+141763262+141659895+141625081+141471431+141308519+141178151
2602+140966313+140770484+140716535+140726025+140696954+140604162+140486711
2588+140375779+140229567+140015186+139806658+139686928+139613079+139512603
2575+139422154+139377221+139289252+139125592+138970255+138792931+138497226
2561+138156698+137892753+137683860+137519827+137444373+137368009+137186682
2548+136987680+136874596+136794448+136704947+136643223+136547149+136341993
2534+136206019+136348949+136586156+136579028+136286915+135918327+135715177
2521+135701640+135685359+135630207+135602139+135520131+135338951+135227225
2507+135309752+135398569+135355286+135374685+135569057+135773966+135868253
2494+135929713+136049160+136209903+136387282+136630670+136967789+137301352
2480+137527165+137592381+137491959+137321034+137178560+137147802+137257523
2467+137409897+137536810+137654561+137780289+137903045+137993011+138039010
2453+138071819+138165677+138348763+138544675+138698343+138864364+139090732
2440+139384605+139751287+140029909+140089600+140118744+140237535+140336188
2426+140357246+140392033+140585265+140882984+141088988+141190731+141319385
2413+141498378+141657306+141840192+142132970+142481885+142775120+142960257
2399+143132458+143518894+144335159+146132872+150423282+159709152+176847363
2386+203657709+239686173+282657167+330177191+381272348+436592771+496631747
2372+559884587+623331161+682618067+732580323+769040759+789965193+795780911
2359+786489516+756096546+705242818+642995180+584808394+553843413+562127963
2345+602565528+638424636+641453993+628579353+617408239+611090266+609567274
2332+611267992+609555642+600605806+587017420+570212471+549281437+525318895
2318+499492567+473947560+455443789+446179779+436553937+416359476+386618992
2305+356700601+334198041+318050757+303473248+288803084+273494254+256863858
2291+240094953+224925980+211607574+200104181+191422848+186198942+183531508
2278+181899488+180370224+178790166+177340284+176141092+175105824+174082699
2264+173035872+171956701+170771748+169522419+168300674+167039183+165697599
2251+164390510+163244228+162229653+161270759+160428003+159765197+159293170
2237+158933489+158526897+158060559+157663885+157408218+157260028+157216745
2224+157257786+157240009+157104072+156938580+156866636+156924778+156992656
2210+157038108+157161557+157370295+157595606+157727898+157741262+157788009
2197+157948396+158144554+158273035+158312325+158357412+158457050+158566989
2183+158708998+158939506+159155719+159216979+159192694+159191490+159226642
2170+159350564+159564225+159752070+159879402+160004218+160126810+160207815
2156+160259266+160331009+160439070+160554952+160649340+160742068+160873174
2143+161032011+161188077+161351363+161553793+161753123+161880656+161989647
2129+162142267+162285607+162360905+162420251+162543700+162708280+162906553
2116+163168292+163430067+163656198+163894144+164167624+164472135+164781058
2102+165088286+165434183+165837658+166321845+166969446+167855904+168968312
2089+170276111+171868203+173873687+176308553+179118451+182156943+185061994
2075+187559961+189757628+191738846+193316971+194345676+194982501+195556208
2062+196177719+196761271+197263106+197766055+198437959+199285218+200189799
2048+201076804+201890535+202620782+203305831+203997371+204687963+205313266
2035+205787097+206033776+206098609+206033302+205794317+205402256+204930230
2021+204260878+203221417+202021951+201024788+200152587+199130410+198034229
2008+197065143+196144099+195175505+194290597+193607334+193101250+192588329
1994+191862203+191247803+191276063+191783168+192340684+192748534+193031513
1981+193399891+193935018+194573229+195275709+196038645+196741945+197265404
1967+197944673+199155643+200606874+201968842+203342423+204754291+206169532
1954+207668987+209227750+210712674+212001330+212958693+213743581+215262197
1940+217796665+220240483+221943406+223132498+224213601+225375180+226471781
1927+227059562+226930188+226853741+227075825+227094768+227604900+228671162
1913+229010113+228445322+227836574+227664555+227532026+227001986+226161782
1900+225038617+223450245+221711349+220297385+218662411+216726792+215706602
1886+215415255+214863554+214149571+213481988+212883486+212487651+212227553
1873+211343082+209311945+207984692+209603293+212482327+214416414+215522277
1859+216532567+217708057+218911698+220010212+220926352+221411488+221074888
1846+220286792+221426000+224851539+227373590+228171295+228367125+227918527
1832+225809394+223175361+222447740+222716516+223041648+223885170+224259637
1819+223692147+222886840+221920325+220394506+219097555+219077408+219542616
1805+219265781+217933222+216469356+216422974+217234700+216757331+214961788
1792+215086605+218154996+220613400+221254510+221243498+221108454+221338359
1778+222067931+221589870+219018519+217150705+219244632+223191314+226219741
1765+227059817+226399709+226848417+228172334+229162806+229979035+229258816
1751+227060893+226594482+228832461+231334584+232572592+232849682+233721792
1738+234562761+233068867+232287134+236131935+240683573+244181949+246292012
1724+247048968+246825608+244330412+240366373+240633107+246126191+251431760
1711+254294002+254354295+252966493+252644407+252064228+249837662+249991231
1697+253603045+259656053+266055523+268892022+269196277+267785248+264312215
1684+265109355+272918323+279292213+281719659+282428155+284281329+285909045
1670+287496871+293158291+299565473+302708707+305956083+311757689+316326082
1657+316234594+312546661+315775913+326627894+331656901+336153715+346886313
1643+357330371+363602472+366240096+366664063+371853548+383975753+393516889
1630+398919543+403213909+407135613+410899538+415856674+419125308+418425308
1616+418241675+421337834+423398160+423353674+423245923+424166603+425580130
1603+427429694+430231370+433698513+437243399+441213053+446093141+451416667
1589+456717586+462304638+468767847+476341823+484416887+490639434+494432493
1576+501036891+510608292+517133782+523132112+532904612+543499923+552168183
1562+556822048+557689162+567055964+586477607+602866028+616405771+628410817
1549+639869850+648947565+654757595+659336599+666587176+683625859+701355754
1535+711674194+720605324+732862190+743832606+751867450+759156460+766297498
1522+775526904+787131502+797754051+809143876+821524647+830918140+835134182
1508+836165895+845938322+866033419+880464853+887622956+890897935+895345231
1495+902915087+908732555+911283796+913744241+919300919+927398846+936130517
1481+943302259+946847946+946835257+945032695+944510676+948328166+955154229
1468+960428164+962424787+962435727+960623903+956348206+951135311+951855403
1454+957646179+960255106+958782033+955787535+953998465+953139446+950790289
1441+945957933+939141715+932181101+927465721+922898968+916763315+913298286
1427+913686263+913583654+913428244+915083418+918111608+924263889+932000020
1414+936563783+939357655+945128376+951246527+953166721+954800528+959286111
1400+962728241+962884963+961776384+963305831+968604708+973316587+975590774
1387+976194545+975228468+974968917+977141807+980407816+983554587+986145719
1373+988045275+989847691+991080175+991224354+990441763+989142988+988580786
1360+988889344+989853744+990735225+989560136+987099326+985611084+985453049
1346+984892305+981552348+975485102+969742385+967193623+967498390+968326560
1333+967781569+966081617+964875169+964790937+965779112+967602312+970131602
1319+972931381+974434209+974055567+973397902+974012029+975563207+977336671
1306+979751974+982803064+986191226+990937236+996549630+999731334+999514154
1292+998762704+1000476877+1005131945+1010553998+1015479994+1021361493
1281+1027897812+1031878005+1034101361+1038358607+1043495948+1046767645
1269+1048510844+1049796565+1050725084+1049713062+1047752976+1049749963
1258+1055489763+1059130476+1059510649+1059825699+1060560959+1061561531
1246+1062664276+1062787962+1063627947+1066681589+1070696495+1073740219
1234+1073741823+1071591322+1070118467+1070130573+1070504402+1069381676
1223+1067477452+1066739129+1066109395+1064970187+1064450356+1063976397
1211+1063319826+1063367302+1063021113+1062487061+1063576022+1063837469
1200+1060469361+1056018200+1054181362+1053815555+1051768976+1049975165
1188+1049932575+1048530607+1045050044+1041851349+1040256705+1040200623
1177+1041561241+1043255359+1043507617+1041509316+1037212543+1033362308
1165+1031727189+1029507260+1026222145+1024351906+1023598851+1022620522
1153+1021899701+1020691649+1017903319+1015551974+1014045573+1012237906
1142+1012018101+1012911396+1011378449+1008335527+1006086500+1003708901
1130+1001050164+999590583+999033705+997302977+994909625+994359019+994610693
1117+993714700+992350800+991749654+991783420+990632616+989262079+990297220
1103+993274141+996164643+996289059+994566280+994520554+997228371+1002939073
1090+1007686322+1008255598+1009676893+1012745193+1011504104+1008885332
1078+1014073285+1023585943+1026126026+1023890199+1025071778+1028079257
1067+1028884091+1029342006+1031125971+1033221120+1035816263+1039221418
1055+1042525203+1043409675+1041072696+1039168181+1040516255+1044935766
1043+1050063408+1050851395+1046314762+1041614478+1039539385+1038392300
1032+1037597311+1039207781+1041342238+1038801791+1034323791+1032974696
1020+1030226331+1023807717+1020343636+1020558190+1020048351+1020338750
1009+1024308587+1028851711+1029007631+1026829417+1027346841+1029757622
997+1031763726+1033608149+1036196729+1039818991+1041759897+1041181869
986+1042726193+1046674881+1048345735+1048248157+1050116208+1053198729
974+1053572340+1052198011+1053663719+1057623491+1060804611+1061834865
962+1062064078+1062601922+1062214602+1062454024+1064184096+1064609193
951+1064093665+1063193806+1061410206+1060978399+1061649337+1059540915
939+1055309777+1054336188+1056736978+1056299483+1050887422+1046020279
928+1045588691+1047154747+1048789866+1050533429+1051935033+1053832620
916+1055122133+1054019024+1053278002+1054103110+1053911382+1052960328
905+1052705736+1052660302+1051914175+1049198482+1046886955+1048443823
893+1050664408+1049315896+1046911022+1048343911+1052745409+1053765234
881+1047454481+1038015627+1033425391+1033892422+1033384406+1030159529
870+1026644398+1024436211+1022473061+1020468562+1020895191+1022982026
858+1022669165+1019974620+1016814941+1013668608+1013116470+1015094788
847+1015365424+1014165247+1014321897+1014839686+1014850552+1015947244
835+1016753609+1016104330+1015433393+1012855825+1010414851+1012482360
824+1012856992+1007291052+1002409324+1001234818+1001220524+1001417721
812+1002513173+1005073311+1008362219+1009890572+1007997433+1004700357
800+1002347627+1000557827+999095912+997594397+995964091+994897957+993554404
787+991330464+987378057+981904007+978164769+976700301+975460817+973304991
773+969337634+965011617+963155307+962469638+960808848+959512042+957844397
760+954330580+950330478+945739440+941547611+940765676+942489184+943217443
746+940738620+935034920+929116884+925996002+925882235+926160455+922708553
733+916745958+912886097+910217661+906578699+903191338+901778358+901925818
719+900037712+894745034+890195857+889694841+891846291+894185603+896721529
706+900573952+905693061+909179239+908896059+907783178+909722553+914476147
692+917903253+917352720+915934853+916053799+915680261+915065697+915191935
679+914694493+914982996+918581411+927473743+940736141+946036622+933050403
665+922967594+919851525+916559627+917011781+920840210+922932369+925361602
652+929187770+929865417+923940453+915697399+914512830+920440711+922722628
638+918713483+915869801+913727030+911263813+918215968+928714248+922210236
625+908914364+906293404+903406767+894064397+892476900+901346770+905470193
611+901786453+901907732+905098770+900292887+888353039+879907974+875810732
##END=
