##TITLE=Sample description
##JCAMP-DX=4.24
##DATA TYPE=INFRARED SPECTRUM
##DATE=12/9/2023
##SAMPLING PROCEDURE=Instrument type and / or accessory
##ORIGIN=Default
##XUNITS=1/CM
##YUNITS=ABSORBANCE
##RESOLUTION=4
##FIRSTX=4397.6552
##LASTX=599.8556
##DELTAX=-1.9287962
##MAXY=1.789624
##MINY=0.16740358
##XFACTOR=1
##YFACTOR=1.6667172e-009
##NPOINTS=1970
##FIRSTY=0.19611676
##XYDATA=(X++(Y..Y))
4398+117666488+116861715+116276869+115710698+115178716+115713872+116724194
4384+116614611+115879762+115761846+116392790+117555099+118677668+118851291
4371+118150809+117557441+117308504+117295442+117814863+118518135+118809217
4357+118616962+118223557+117974915+117549735+117099093+117665656+118932694
4344+119709026+119853182+119497684+118436616+117223472+117009402+117893378
4330+118548014+118414694+118696720+119339563+119166521+118742549+118719107
4317+118752937+118548926+117929077+117437389+117745396+118610078+119499400
4303+120073313+120233525+120253758+120222144+119535278+118249502+117649948
4290+118147018+118937620+119818743+121095150+122087832+121614025+120096773
4276+119177438+119190741+119149445+118790496+118733653+119144117+119776580
4263+120371655+120657266+120927356+121354726+121384748+120944656+120432825
4249+120100492+120247598+120490652+120175511+119832074+119804501+119551076
4236+119238617+119497147+120323842+120980847+121076509+121252779+121962184
4222+122660261+122555613+121900235+121640874+121717654+121389004+121043787
4209+121683904+122687422+122716863+121903704+121121497+120925139+121471917
4195+122160026+122216869+121960521+121982863+122001298+121821515+121698942
4182+121714409+121737055+121645782+121718691+122167465+122266945+121646327
4168+121470156+122387649+123154112+122803370+122114654+121826352+121850151
4155+122175565+122406058+122241170+122287758+122552207+122426210+122213365
4141+122375133+122597025+122514452+122032107+121484738+121503280+121771377
4128+121374002+120547406+120507916+121541465+122437466+122439629+122107653
4114+122067609+122445789+122561630+121799361+120946551+120820017+121141005
4101+121402486+121631513+121959823+122065669+122060063+122341427+122715602
4087+122741914+122386282+122255921+122520692+122935948+123500294+123760756
4074+123356103+122574907+122136093+122738829+123670440+123491506+122379505
4060+121603941+121509968+121833191+122389688+122828055+122942617+122691794
4047+122260561+122179257+122630543+123169955+123133710+122425566+121995245
4033+122494175+122966140+122654861+122400193+122716469+123019183+122944879
4020+122750327+122625697+122457394+122299622+122327543+122704382+123490263
4006+124113196+123855676+123056608+122546145+122203414+121693193+121503951
3993+121928183+122476902+122803263+123146933+123639068+123854246+123578040
3979+123246610+123066603+122889672+122795655+122843701+122848081+122739133
3966+122553923+122427354+122810138+123414010+123489414+123110635+122364673
3952+121448771+121202873+121863365+121761391+120366183+120391753+122190799
3939+123175292+122358638+120112168+118609122+119888657+121674293+121077224
3925+119686953+119935756+120077944+119046782+119471444+122415651+124976296
3912+125117993+122839400+117893029+111874111+109013649+110429339+114357028
3898+119351150+121739880+119440250+117009823+118564858+118675218+116374730
3885+116454560+116256100+116233391+119347422+119319796+115066782+111005182
3871+109328870+112367015+114842395+113426956+114678267+118984029+119802186
3858+114217111+103671208+100439101+112161492+121744046+123617700+120351745
3844+115425454+110689192+106573512+107025727+112361248+115988307+117478247
3831+119339438+120209976+119437524+116285898+110158837+108891478+113261996
3817+115875765+120492941+125602188+125041811+119650198+115642089+115132905
3804+112484510+111941611+117225153+120347131+122419156+125599068+126900419
3790+126711642+126145650+125364427+125179476+123981468+122050613+123643958
3777+127119477+127679496+124686287+121573758+122135672+124520558+126835538
3763+127391659+124497635+122925613+125011343+124343385+118188189+114390698
3750+120666224+126129977+127912689+136735897+147344552+150156272+147596029
3736+146178202+151116902+160742594+168365773+170161886+168516848+167342505
3723+167597021+169076948+170632940+170829718+169290231+169124833+178008952
3709+194598591+210078526+221078075+229854033+240551574+250770909+256017920
3696+256452836+252103712+243177055+236262512+237424588+239378536+235512160
3682+226795728+215994209+203799844+194212257+193929364+194118186+191463827
3669+194497707+199705076+201463675+201451445+200498145+197490711+194856951
3655+194718303+191010494+182138981+179722867+189545248+200008389+205438785
3642+207537336+208977728+210571609+211738513+211267746+207396578+202978595
3628+206952650+214065760+214648461+208659949+201212807+198952489+198957352
3615+196761137+196124972+198549132+202437753+207942945+212485146+213601000
3601+212990584+212748012+212384083+212092590+212670499+211476952+206975054
3588+204738374+207650432+209840210+209473939+208678438+208263638+208127100
3574+208234474+207268819+203343293+198647531+198971746+203035509+205634008
3561+206547809+207326020+207711996+206697669+205342729+205228828+205013382
3547+204075138+204267339+205843465+207212119+207338071+206653610+206158454
3534+205806219+205013972+203959914+203404356+203425527+203579391+203904036
3520+204426461+204828995+204887125+204425620+203445196+202629775+202470099
3507+202125893+201499866+201954433+202968045+203040713+202856325+203327897
3493+203664844+203136751+202514086+202513031+202539459+202211900+202081995
3480+202449661+202834743+202761718+202456510+202329502+202374866+202541015
3466+202682041+202483545+202221573+202381195+202860742+203153326+202827895
3453+202261751+201811422+201227165+200995626+201494323+202120010+202647620
3439+203121481+203407664+203445446+203336623+203337356+203370686+203252726
3426+202989931+202519915+202425969+203342452+204561068+205223875+205360324
3412+205333360+205287174+205210679+205411302+206124355+206974321+207249686
3399+206876352+206747610+207167399+207548314+207731683+208025948+208656015
3385+209514064+210203013+210451539+210486764+210682166+210962287+211108928
3372+211164842+211473716+212248189+212951890+213136170+213373949+214261483
3358+215232843+215399492+215226870+215746577+216652296+217201113+217832593
3345+218904872+219678112+219865682+219969766+220289208+220744114+221131628
3331+221647813+222335421+222709327+222876013+223399904+224301063+225070798
3318+225239539+224772295+224264085+224296360+224497609+224574568+225025523
3304+225658344+225564273+225043494+225350544+226570411+227782804+228769523
3291+230053976+231481083+232503403+233351009+234324514+235279083+235855919
3277+235998286+236127583+236560550+237568046+238566996+238486353+237990124
3264+238135567+238438486+238423109+238290844+238182415+238266580+238352408
3250+238015050+237355783+236676597+236175504+235957482+236016078+236111276
3237+236087118+236041344+235694097+235265940+235358384+235306458+234421982
3223+233192852+232298416+231962972+231930643+231918019+231857886+231756448
3210+231646320+231418929+230900635+230066225+229124780+228506246+228298577
3196+228067861+227559580+226789058+225900809+225200040+224667924+224070614
3183+223238457+222021147+220874931+220291014+219782053+219070288+218732161
3169+218942190+219119049+218747324+218072054+217693176+217425607+216840313
3156+216351648+216380632+216505655+216282717+215914264+215492365+215049403
3142+214857738+214747717+214502750+213956525+212993034+211975130+210937791
3129+209946262+209584228+209786568+209775643+209037503+207712139+206457135
3115+205651925+204817086+203745040+202820135+202074396+201223607+199849982
3102+198147975+196838257+195952243+195207541+194380283+193306610+192329099
3088+192051410+192247241+191826272+190776648+190177336+190148476+189895265
3075+189160917+188511538+188396546+188596257+188598635+188184014+187548976
3061+187008992+186928707+187381361+187914997+188164435+188051875+187505686
3047+186669095+186085893+186110211+186337065+186187796+185667696+184980982
3034+184243647+183784431+183695760+183623432+183411418+183051441+182816075
3020+183553571+185145128+185935891+185181891+183818547+182569516+181415290
3007+180318746+179516164+179179218+179022653+178593709+177861005+177323722
2993+177432294+178020091+178662085+179284214+179894416+180243486+180227286
2980+180001683+179771324+179733202+179799308+179767855+179631156+179256731
2966+178544465+177855713+177687508+177923964+177848650+177305501+176770846
2953+176315152+175931948+175866683+175997463+176046779+176033600+176101029
2939+176307213+176386336+175994227+175299663+174821475+174849852+175122803
2926+175145458+174695487+173770761+172734118+172158909+171973163+171732397
2912+171436469+171342559+171561599+171857975+171934576+171879181+171768731
2899+171591425+171524139+171595537+171761811+172063586+172367489+172465351
2885+172349859+172336466+172582185+172747690+172776836+172906347+172956216
2872+172834323+172725393+172625224+172555024+172468963+172190844+171869096
2858+171701714+171571827+171357400+170912489+170054834+169235140+169127765
2845+169374467+169363489+169429809+169814497+170009291+169908926+169981415
2831+170344039+170754780+171009796+170995474+170737757+170424431+170248162
2818+170280883+170465789+170645581+170671312+170617026+170741119+171014320
2804+171196651+171321245+171521886+171771431+171944554+172077390+172371441
2791+172679314+172633878+172315259+172178507+172370887+172509195+172307034
2777+171976954+171760685+171666560+171694204+171715518+171575636+171435861
2764+171458409+171579927+171682635+171703091+171732755+171849803+171997856
2750+172200679+172431628+172436724+172167921+171964473+172031186+172155959
2737+172129460+172082326+172151292+172259078+172337289+172418271+172534157
2723+172644786+172731347+172860768+173037843+173142839+173167675+173258796
2710+173442987+173665693+173826781+173799477+173734516+173821381+173899145
2696+173828748+173785548+173886074+174014816+174160975+174394838+174538404
2683+174422321+174243691+174184005+174149155+174115289+174133957+174093814
2669+173968809+173944527+173952484+173726291+173362058+173133648+173053631
2656+173011236+173057064+173204117+173200075+172949475+172676095+172506209
2642+172395598+172326363+172274813+172154564+171970552+171823232+171701124
2629+171494457+171222972+170998531+170812267+170659814+170580531+170479862
2615+170224881+169876365+169665139+169586767+169443738+169269167+169116268
2602+168973972+168925318+168953731+168982340+168964245+168839294+168667834
2588+168574049+168498163+168246221+167871564+167683618+167729679+167772576
2575+167715196+167582967+167384329+167145083+166892230+166670203+166489535
2561+166312318+166140429+165941219+165682876+165505266+165521448+165537040
2548+165380100+165205422+165108096+164941339+164683819+164575032+164652725
2534+164638831+164526379+164496214+164483393+164376841+164239766+164171426
2521+164100993+163981030+163891143+163803188+163688607+163655223+163792370
2507+163995460+164081521+164006296+163796947+163606999+163677467+163956105
2494+164157479+164196209+164236727+164431252+164770273+165130859+165406385
2480+165591022+165725325+165739845+165570960+165379760+165326225+165345357
2467+165379367+165538399+165810706+165990141+166020592+166003140+166002622
2453+166046358+166216280+166546700+166786840+166775450+166789504+167009314
2440+167302703+167607893+167840863+167840541+167726193+167765709+167962417
2426+168101673+168160250+168342921+168652063+168909065+169038915+169072549
2413+169126603+169308255+169601143+169881854+170089237+170342966+170637589
2399+170857630+171273092+172529454+175676269+182564331+195563549+216355134
2386+244740199+278660853+315513162+353842662+393796959+436108846+481612966
2372+530248130+579272060+624083047+661550511+689318185+705425256+711900842
2359+708565062+687931847+650314899+605383753+563469750+540163134+546350802
2345+575689667+596328926+591251908+577834833+567082326+561577921+563020047
2332+567790730+567889861+561523992+553462124+545649694+535101816+520180818
2318+501223253+481225381+469450232+469333685+469004463+455522480+429316555
2305+400707014+379589836+366121657+354184186+341019195+326275861+309248892
2291+291439904+275322766+261347951+249189223+239226066+231700928+226167913
2278+221792308+217940111+214450162+211340789+208643481+206346042+204340061
2264+202542856+200946293+199454923+197980074+196595435+195337714+194128754
2251+192897925+191654097+190483796+189518194+188808664+188250048+187766872
2237+187368290+187004128+186584715+186145633+185810653+185627088+185551291
2224+185475655+185376434+185312940+185246405+185189311+185260334+185395138
2210+185436389+185446814+185531211+185684182+185879763+186036166+186119813
2197+186244925+186501229+186763398+186895323+186983136+187097395+187205967
2183+187293315+187376014+187503094+187672318+187809160+187833550+187793943
2170+187867201+188081754+188281036+188354669+188325505+188294160+188381866
2156+188614496+188833679+188953695+189048643+189064467+189034374+189179012
2143+189425947+189572373+189687222+189883500+190152857+190434284+190642488
2129+190779473+190917424+191076492+191282819+191548243+191793461+191976435
2116+192189307+192478583+192740645+192977316+193294987+193673507+194066260
2102+194477251+194896933+195328720+195846942+196498682+197208390+197976176
2089+198871792+199878913+201010753+202288930+203739192+205407422+207125808
2075+208754002+210496009+212502204+214645725+216794950+219088044+221750449
2062+224643356+227557666+230524958+233528977+236484145+239381719+242296548
2048+245230080+247976919+250338944+252418558+254464378+256408438+258012654
2035+259227568+260079108+260635918+260954841+261000741+260795719+260368939
2021+259571238+258258265+256740431+255502075+254439792+253190421+251702251
2008+250109193+248584653+247176304+245813533+244518011+243345510+242087378
1994+240421115+238868503+238311639+238420677+238434910+238188208+237863563
1981+237714097+237734124+237785764+237867962+238018554+238044964+237779863
1967+237838441+238798267+240006136+240846572+241573607+242348546+243143206
1954+244070078+245128231+246174636+247048974+247498070+247584828+248491119
1940+250769801+253018604+254411898+255330473+256162665+257017281+257795723
1927+258052475+257494574+257110422+257340531+257388380+258004661+259500377
1913+260256576+259933558+259705434+260261010+261159612+261840712+262244873
1900+262401884+262213724+262025439+262318023+262349851+262120297+263204931
1886+265058121+266266455+267116224+267962722+268734155+269349900+269596638
1873+268676186+265975426+263820623+265309060+268429877+270159742+270469492
1859+270306436+270082372+269768616+269339136+268674594+267284555+264554042
1846+260909727+259627205+261881266+263492956+262997996+262138982+261038702
1832+258058071+254448392+253537667+254191641+254911149+256311219+257249088
1819+256994608+256384585+255501378+253675582+251906200+251899709+252801655
1805+252662381+250814968+248596258+248271685+249272029+248575409+245731191
1792+245249875+249159254+252459559+253097673+252822665+252484878+252667978
1778+253506447+252577412+248598708+245397338+247684567+252767914+256778124
1765+257928972+256736122+256646682+257969382+259119550+260143104+259016396
1751+255451365+254087396+256748674+259915051+261388594+261585731+262396037
1738+263094034+260562410+258656329+263340468+269388255+273870555+276516277
1724+277293540+276564842+272630429+266293759+265523488+272530028+279654367
1711+283327380+283082859+280582454+279286003+277856697+273974961+273008126
1697+277254917+284928359+293308077+297176045+297296044+294747915+288855942
1684+287881865+297044013+305143341+307740892+307353128+308225857+309174651
1670+309830341+315639401+322949021+325660938+327554842+332862451+337331091
1657+335735260+327907632+326727567+337540690+342462430+344993000+355207472
1643+366514928+372346303+372695230+369235858+370751689+382271964+392048033
1630+395989580+397841608+399639849+401779364+406503056+410626774+410490021
1616+411987793+418747434+424246403+426807192+428998955+432080326+435393755
1603+438968030+443503615+448593650+453257155+457753152+463019563+468974459
1589+475166311+481494809+488177813+495566968+502990239+507914232+510153630
1576+516251000+526515073+532794685+537550348+547059456+557931944+566039980
1562+568876526+565530089+570953781+591945685+610871601+625642042+638073811
1549+649600023+658419430+662510855+663187824+666999521+685374885+706281677
1535+718165005+728460584+741962272+752276376+758568147+764482346+768903636
1522+774113830+785131868+798314203+811951857+825476361+834675057+837071878
1508+835471542+844427989+866489669+882489097+889247987+891080202+895349434
1495+903848203+909613132+911255596+914952712+924479487+934555489+941173550
1481+945712926+949139398+949468191+946623920+945680526+951886826+960655381
1468+964876335+965084110+965672319+966200305+962126689+952556786+949213138
1454+957359511+964837855+965297536+960138338+956636696+956380785+953587152
1441+946642516+938286436+930305283+926394597+926728111+926625260+925435755
1427+922616803+917186889+915392224+918765839+919947692+921039640+927818414
1414+935653588+941305225+945625596+947472402+947967201+952368822+958079680
1400+959366529+959639177+962880975+968588185+975585034+979816644+979470113
1387+978907939+981608019+984490055+985401192+986598422+989040517+991038452
1373+992094996+992792420+993999664+995933800+995625391+993486412+994620201
1360+997247256+997855419+998487686+999868088+999886755+997527770+994164168
1346+991316034+988710794+984366391+977728375+972186885+970314760+970461311
1333+969980460+968111052+966617429+967447816+969611399+971095939+972209129
1319+973090440+973502844+974983879+978245347+982041737+985316579+987980111
1306+989770628+990667675+991566438+992893984+994847502+997805853+1001002950
1292+1003441898+1006084258+1010962155+1017894632+1024043142+1028035650
1281+1031309347+1034905115+1038457468+1041174642+1042790999+1044978686
1269+1048576027+1051236626+1052239098+1053898084+1056453686+1057147678
1258+1055783798+1056051796+1058085064+1059405529+1062142586+1067564203
1246+1071295436+1071392780+1071172488+1071687814+1071399288+1071203887
1234+1072009955+1073076441+1073741823+1072907502+1070583492+1068925580
1223+1069341131+1070516046+1071458009+1072023473+1070784330+1068723812
1211+1067527727+1066766145+1066268843+1065181258+1063973228+1063913434
1200+1063483006+1061739552+1060084357+1059198039+1058707317+1059008574
1188+1059356535+1058465425+1057525393+1056659745+1054536859+1051576076
1177+1048112913+1044656401+1043031890+1042853940+1042552183+1042539881
1165+1042199215+1040780333+1039151602+1036672244+1034003705+1034300456
1153+1036080173+1034922066+1032127003+1030644609+1028954153+1025727589
1142+1022294966+1019249214+1017291404+1018092037+1020392802+1021816189
1130+1022189255+1021564999+1020156131+1018302888+1016310532+1014819483
1119+1013693562+1011987729+1009352520+1007014349+1006349539+1007274193
1107+1007774142+1005360155+1001007026+998241073+998745528+1002265767+1005799953
1094+1006072028+1005874552+1007745175+1010209442+1013264207+1016527891
1082+1019573644+1024425792+1029979799+1030819126+1027361255+1024742640
1070+1025190019+1030372462+1036431067+1036356539+1032326911+1031037415
1059+1034784741+1038735265+1039055690+1038156211+1038303836+1040071393
1047+1041523033+1041656281+1041861910+1042225965+1043329642+1043060214
1036+1040614399+1040981743+1041331922+1036149050+1030362091+1027031461
1024+1024834691+1025409167+1028484030+1030457861+1030242647+1029791621
1013+1029525768+1029526769+1030655409+1030913680+1029670961+1031235464
1001+1036334653+1039615861+1040018252+1040410915+1038862433+1034242164
989+1031540153+1034841817+1041509085+1045435363+1045730754+1045037049
978+1043691908+1043218852+1044637090+1045848840+1047087983+1049769896
966+1053106820+1056352481+1059881088+1062226269+1061059078+1059422980
955+1059860990+1061878164+1067338762+1071036808+1065214874+1056205643
943+1052984873+1055205031+1058882120+1060861388+1059954900+1059404957
932+1061276223+1062159108+1060888495+1058776766+1055381550+1053400066
920+1055794598+1058099011+1056837266+1055668359+1055591186+1054093700
908+1051612768+1050684251+1052457745+1056230319+1059898182+1060437826
897+1057378484+1052227940+1047665749+1047573483+1050189380+1049686857
885+1046890578+1046398211+1047274301+1046796310+1046452926+1047501316
874+1048223774+1047273586+1044075774+1039369105+1036359472+1035576147
862+1034928503+1034242021+1032825357+1029670388+1026068112+1024677053
851+1026518209+1028343486+1027899684+1028138572+1029986880+1029149340
839+1024999910+1021974828+1021984269+1023557569+1023608208+1020565459
827+1017197207+1015931672+1015504534+1015075108+1014994716+1014031224
816+1012413436+1012783212+1014619432+1014386266+1012723490+1012438112
804+1011844968+1008891337+1005981551+1005315382+1004618100+1004486354
793+1007508003+1008126752+1003470865+997538356+991885718+989240497+989599830
779+987650388+982722569+978567631+977247309+977892665+977424615+975083082
766+973147158+971532660+968516304+964764472+962238552+960652234+958609883
752+957200157+955575002+950487900+945259825+945241086+947894390+948432031
739+946119536+941664916+936648193+931880872+926500380+920546987+915438714
725+912983959+913143957+913081517+909531453+903604308+899361111+898531654
712+902554202+910491654+916734360+918152955+916561560+915063001+915606794
698+918013556+920403153+921755661+923118253+925070914+927073211+927587751
685+926161073+925804458+927293432+928690928+931073229+933817868+936025581
671+939964447+938404235+925380968+918982198+918273043+915921640+916712903
658+921014321+922238444+921186120+922450296+923076770+919516406+913231859
644+904050400+896233821+897775794+906507515+912742567+913575601+914919168
631+924199330+933358831+921110663+896556606+884816826+887838333+895906816
617+899434851+895188435+889886763+886514577+883118145+883470613+890838382
604+895196374+888365317+878956127
##END=
