##TITLE=Sample description
##JCAMP-DX=4.24
##DATA TYPE=INFRARED SPECTRUM
##DATE=12/9/2023
##SAMPLING PROCEDURE=Instrument type and / or accessory
##ORIGIN=Default
##XUNITS=1/CM
##YUNITS=ABSORBANCE
##RESOLUTION=4
##FIRSTX=4397.6552
##LASTX=599.8556
##DELTAX=-1.9287962
##MAXY=1.7230572
##MINY=0.14997365
##XFACTOR=1
##YFACTOR=1.604722e-009
##NPOINTS=1970
##FIRSTY=0.15242176
##XYDATA=(X++(Y..Y))
4398+94983278+94758449+94298170+93457710+93572232+94633044+95046802+94882638
4382+95361081+96103826+96355536+96535393+97178093+97967341+98157663+97857481
4367+98140503+99385852+100215188+99402883+98101726+97624128+97611685+98013910
4351+98605704+98486437+98273625+98880936+99698385+99767035+98995096+98305986
4336+98427324+99026352+99335904+98857174+97918860+97354198+97508696+98156224
4321+98786806+99228309+99637192+99744675+99530080+99463213+99810140+100631471
4305+101806620+102697334+102341223+101203738+100770526+101221065+101823984
4292+101790360+101013945+100416374+100604914+101667759+103061988+103609759
4278+103073484+101914214+100605666+100234623+101021652+101923788+102760784
4265+103342801+102758258+101696369+101718869+102519891+102913768+102677221
4251+101902421+101331901+102044197+103069333+103250583+103310096+103306883
4238+102774527+102414237+102720883+103309836+103739779+104048337+104559680
4224+104894053+104574843+104255996+104352448+104620530+104973948+104951031
4211+104791751+105254584+105715458+105752768+105868024+105951169+105813553
4197+105567423+105118491+104954262+105808353+107175635+107702029+106928075
4184+106124786+106159320+106257313+106105091+106058179+106137183+106244982
4170+106333838+106570181+106970752+106989417+106364973+105850492+105975173
4157+106244601+106288700+106229651+106079861+106084922+106863882+107937202
4143+108150367+107863844+107880001+107664403+106890411+106537680+106955189
4130+107215740+106904851+106848272+107720740+108591184+108527725+108073592
4116+107766037+107699216+107861225+107772620+107165810+106653688+106942226
4103+107850268+108541960+108965783+109739134+110400452+110509653+110611026
4089+110425291+109596207+109007402+109097911+109489912+109970918+109901636
4076+109019084+108459613+108672230+109169718+109852997+110286106+110103036
4062+109846367+110113455+110729151+111068882+111085439+111149455+111252509
4049+111040848+110638874+110884308+111668236+111972504+111618826+110862319
4035+110150264+110334114+111328607+112029185+112009322+111780900+111575944
4022+111294704+111321549+111706744+111787289+111675432+111769349+111718008
4008+111535894+111740776+112155797+112174666+111777121+111254970+110849180
3995+110785135+110952550+111206257+111550872+111936735+112256622+112350929
3981+112223212+111867593+111288594+110862904+110952067+111551968+112416051
3968+113131579+113121485+112490987+112275110+112482138+112451829+112554799
3954+112873452+112527490+111481600+111142695+111295122+111028257+111843078
3941+113496474+113882542+112837098+111102729+110553770+112237986+113342283
3927+112004178+110519087+110483318+109889602+108768822+110238488+113867044
3914+115604755+114757015+112771707+108663381+102975482+100656171+103578206
3900+108804656+113438234+114001465+110158844+107967725+110499968+110733256
3887+108746201+109403387+108874661+108994690+112631361+112134672+107916671
3873+105064782+104454063+107342705+108856545+107635246+109976294+114153521
3860+113619474+106368623+95631994+96103714+110782294+118953046+118447033
3846+114104036+109404037+105331666+102098250+103465383+108707591+111716717
3833+113293589+115244892+115705237+114822174+111625837+106057065+106312898
3819+110521390+112291351+117129431+121851234+120460422+115120927+112184016
3806+112252054+109635319+109995302+115361550+117485013+119319780+122593347
3792+123847815+123555043+122634363+121616535+121608010+121056470+120331934
3779+122796168+125985337+125947358+123112165+121149031+122620787+124701489
3765+126287693+126223472+123343716+122517844+124476512+122476680+115286604
3752+111827255+117727224+120263024+119279628+126822203+134403946+132336328
3738+125735186+123221793+129544889+139698758+145409510+145500845+145398878
3725+148677357+153788979+159575995+164924294+167600114+166117169+163952997
3711+169778958+181872588+191405932+196063885+199483315+207518484+218285672
3698+227163474+233522162+236119796+236085309+241601346+255684705+267602555
3684+273539500+276478202+277135341+275423909+278743497+291355350+299683301
3670+305225841+317607647+329651728+336762661+342276173+347345117+350853709
3657+355762045+362858121+364809146+363032843+369848115+385955634+399331005
3643+407731181+413950564+419292251+423979585+428205748+431450473+432762820
3630+436272154+449335299+462800593+468876751+469578722+469497638+474928692
3616+483297965+489289437+493414793+497013643+503180728+512758718+519410597
3603+521081153+522813219+526595928+530049770+534457081+541054991+544932824
3589+544032248+544157792+548671110+553913327+558289883+562543978+567219611
3576+571639513+573969363+573470900+570943597+568647585+571093953+578147239
3562+584961732+588721226+589115242+587679506+586281878+586053522+586704755
3549+587348225+588492758+591391011+595580699+598177572+597896323+597585805
3535+598840691+599916918+600695032+601758036+601816128+601442467+602940121
3522+604821428+604827148+605273722+607419007+608436807+607148789+605661684
3508+605532239+605093317+603172489+602486527+604242625+606329074+608179627
3495+608977093+607193510+604828523+604251873+604705653+604956147+604787368
3481+604121426+603615757+604554851+605796811+605177447+603977644+604074068
3468+604716016+605002836+604961496+604759882+604728422+604388523+602732973
3454+600311528+598678152+597938629+597285650+597123446+597848743+599084908
3441+600381543+600534313+598811534+596427641+595168558+594929169+594507444
3427+593677366+592150554+590273259+589456775+589689143+589975147+589983207
3414+590067188+590242021+589946138+589858591+590158189+589184700+587270670
3400+586259147+586461763+587135283+587140594+586096831+585159223+585140242
3387+585158628+584178751+582475472+581304753+581608548+582579510+582757984
3373+582501695+582907040+583099182+582520564+582874725+584267301+585234475
3360+585092476+583494126+581420788+580557913+581228535+582160757+582166960
3346+581715483+581054221+579438303+577097942+575587696+576200894+578061736
3333+578738635+577166137+574897536+574092790+574601839+574151959+572139908
3319+571047747+571276438+570247420+568309692+567635616+568769378+570499103
3306+569858493+566876927+564767634+564043526+564011769+564913682+565865441
3292+566148807+566189071+566663205+568324587+570433397+571646793+571468023
3279+569585044+566992814+564932736+563713508+563907545+565454339+566320372
3265+565111841+563728180+563235400+562286055+561020434+560537237+560425956
3252+559317452+557686342+557013714+556464179+555404407+554909658+555063877
3238+555614861+555942799+555111978+553991439+552959525+551996214+551699550
3225+550791434+549471176+549392618+548932710+546700213+544502148+543804894
3211+544376826+545598952+546509668+546548928+545663061+543497533+540459064
3198+537662323+536354508+537183844+538686549+538233773+535462772+532944346
3184+532231344+532343480+532386826+532554639+532269267+530670583+528775941
3171+527612057+526971112+526232741+524774570+523135622+522278318+521894703
3157+521291978+521218138+521857225+521518738+520216606+519221760+518440786
3144+517571373+516786572+516401768+516233880+515145954+512918137+511070964
3130+510005138+508559372+506557535+504855221+503846298+502693148+500655802
3117+498735197+497939625+497580895+496681693+495004748+493014834+491810649
3103+491232291+489811077+487282140+484310083+481721530+480339317+479844940
3090+479521496+479179778+478567323+477789208+477039471+475783768+474172938
3076+472980267+471986387+470856711+469758830+468774756+468024796+467344925
3063+466403194+465199195+463820808+462520087+460951600+458501072+456285290
3049+455596728+455695863+455465835+454908351+454375791+454034407+453567701
3036+452514392+451358307+450323236+448585413+446481803+445256817+444673742
3022+443807227+442675842+441715280+441271455+441243486+441413491+441919605
3009+442405365+442636879+442974140+443400916+443679342+444010660+445137179
2995+447510672+451216012+456336882+462114334+467258047+471099888+473455775
2982+474186161+473672098+472980973+472481804+471118311+468236921+464669977
2968+461048582+457231886+453374891+449798958+446546841+443818964+442046746
2955+441166116+440670588+440293138+440053452+439923079+439863984+439856593
2941+439441739+438510409+438013171+438329261+438451017+437293186+434958285
2928+432531083+430537454+428359298+425278857+421444036+417889683+415157126
2914+412510630+409378857+406094091+403518947+402250355+401365157+399638960
2901+397523130+396162386+395797787+395760607+395358642+394716249+394463192
2887+394451715+393973272+393243146+392835759+392343350+391126722+389253029
2874+387147785+385158614+383293798+381402202+379551984+377826678+376216702
2860+374548746+372544049+370333541+368079538+365361206+361995319+358858420
2847+356715104+355075711+353366786+351593417+349819231+348285362+347078911
2833+345995701+344907515+343532396+341852665+340428778+339505061+338680443
2820+337599982+336411806+335417666+334599028+333631705+332489326+331652451
2806+331106519+330358119+329342659+328116596+326886225+325952517+324979140
2793+323776961+322646133+321407368+319887985+318492400+317481843+316569827
2779+315332584+313918836+312771332+311803452+310733205+309488255+308103442
2766+306853459+306103518+305726495+305171853+304333733+303534911+302958095
2752+302621837+302296090+301883187+301474685+300699746+299460776+298472338
2739+297939480+297292667+296513196+295992281+295566674+295046705+294540498
2725+294007473+293563388+293408612+293239815+292715147+292000882+291453724
2712+291246056+291217697+291050274+290587097+289861819+289060100+288393953
2698+287755535+286948615+286222000+285711521+285026172+284056286+283188712
2685+282597484+282027595+281309448+280488711+279613188+278902934+278408743
2671+277828305+277130550+276458981+275823106+275299052+274856712+274235714
2658+273404558+272629304+272085173+271832859+271801287+271798316+271730325
2644+271534320+271244565+271115659+271202760+271227256+271119132+271077643
2631+271036674+270808912+270680359+270981999+271317292+271213476+270943612
2617+270873392+270887767+270800034+270656086+270562280+270462699+270245838
2604+269978778+269798039+269692180+269594400+269491829+269328696+269055693
2590+268780331+268505787+267994379+267275620+266635065+266132479+265696603
2577+265234076+264678505+264174007+263842336+263526507+263005238+262315561
2563+261769351+261524149+261326603+261017905+260761282+260622979+260577107
2550+260623945+260708130+260796327+260803012+260654941+260561860+260690450
2536+260855719+260955616+261101942+261351749+261693003+261964576+262048241
2523+262113687+262224783+262323306+262444448+262402607+262081410+261775628
2509+261658534+261619589+261531671+261387833+261260785+261133105+261006001
2496+260896112+260741837+260518458+260237729+259951670+259690980+259462957
2482+259386330+259470479+259456866+259164065+258696803+258314654+258182591
2469+258067410+257722349+257380147+257219726+257090838+256868202+256520800
2455+256102066+255687751+255279416+254878863+254570927+254421425+254341790
2442+254143370+253737729+253307331+253000212+252709231+252403078+252117204
2428+251843607+251615138+251400450+251161470+250956198+250804821+250646646
2415+250487970+250410545+250413368+250425829+250415912+250394554+250365991
2401+250338617+250386179+250524426+250578989+250438514+250223138+250001411
2388+249618130+248783520+247108915+244245670+240302873+235779415+230929840
2374+225892003+221032028+216454489+211925627+207479651+203561963+200686367
2361+199499119+200675911+204238193+209495807+215970884+222119211+224487244
2347+221633229+216508459+213488635+212736057+212768390+213563628+214687379
2334+215244138+215428685+216407354+218269477+219971773+221331347+223140280
2320+225658781+228238809+230209483+231577581+232852803+234292533+235762348
2307+237169206+238472768+239499167+240189605+240816360+241521507+242137881
2293+242648360+243133005+243550756+243913516+244204626+244226671+243929915
2280+243589589+243375978+243210096+243069899+242933657+242700472+242429772
2266+242235902+242060345+241890247+241840642+241936453+242044596+242029311
2253+241957272+241959835+242005800+241978722+241859325+241747542+241676004
2239+241607958+241556199+241517588+241530718+241673776+241801957+241793136
2226+241863745+242044763+242085379+242000897+241964329+241999522+242087236
2212+242247695+242426039+242558492+242686896+242811716+242883347+242956723
2199+243154827+243432585+243616202+243646716+243553542+243521338+243676263
2185+243757755+243672734+243699236+243856018+243920332+243865787+243757533
2172+243568993+243379005+243366934+243489692+243572225+243598856+243619007
2158+243665547+243778593+243954243+244175970+244396081+244593572+244874060
2145+245215871+245427457+245538274+245711399+245968672+246310725+246654077
2131+246848392+246978375+247196722+247384518+247432972+247562918+247813189
2118+247934183+248027599+248239780+248372548+248346028+248292969+248285800
2104+248307845+248427446+248738150+249104698+249378630+249650835+249979757
2091+250254599+250431883+250557279+250657455+250803149+251040940+251320258
2077+251597198+251865800+252150280+252444047+252592880+252537759+252572822
2064+252840031+253115820+253376789+253687678+253949334+254140417+254261746
2050+254347510+254537108+254802961+254934504+254955991+255096671+255325344
2037+255501273+255690035+255988909+256328603+256545835+256645658+256768862
2023+256919589+256992762+256981916+257043276+257342707+257828541+258301412
2010+258650243+258884339+259103429+259378549+259647076+259894915+260205136
1996+260330996+259949683+259725096+260378613+261317521+262029205+262656481
1983+263220669+263688916+264092737+264493978+264942947+265438309+265749699
1969+265661948+265713540+266448067+267334027+267852640+268183234+268398498
1956+268453953+268503967+268565327+268460936+268090543+267323943+266301611
1942+266082930+267001948+267819100+267973783+267789274+267567287+267516995
1929+267582962+267285815+266355525+265611470+265382092+265125822+265617859
1915+267006981+267691587+267312744+267056307+267625695+268482572+269062472
1902+269442930+269665326+269483138+269217470+269338520+269103032+268624998
1888+269404710+270850753+271684100+272177010+272643660+273058086+273417521
1875+273497937+272451035+269862055+268115299+269919070+273155754+275069952
1861+275709485+275932363+276197213+276564876+276920300+277018359+276459872
1848+274872554+272790506+273078682+276315403+278748140+279463501+279998940
1834+280268024+278827552+276941026+277410777+279068426+280901373+283388264
1821+285224406+285955887+286483526+286744439+286160082+285745897+286813321
1807+288371203+288850816+287910756+286759296+287199091+288548767+288293722
1794+286467164+287058021+291127290+294266585+295247818+295600865+295865343
1780+296610270+297948822+297725813+294874156+292828341+295629929+300778118
1767+304839848+306244811+305796937+306606289+308542346+310358987+312196428
1753+312122624+310098984+310174088+313627559+317417325+319777743+321275175
1740+323668465+325874182+325277847+326051318+332588833+339789727+346007402
1726+350981407+354490927+356606089+355617372+353113357+356564228+366444527
1713+375653276+381795772+384724706+386008415+388329684+390091762+390528678
1699+394797518+403132248+414474247+426282357+433860812+438931613+441775006
1686+442175225+448983663+464076056+476628852+484355955+490110712+497073926
1672+503017112+508263898+517918180+527879897+533604308+538865840+546219579
1659+551976862+552655061+548775668+551385838+563066175+568691859+573054004
1645+584796630+596845800+604002679+607190538+608070203+614293263+629437434
1632+642849873+652406469+662220170+672765296+684340406+699776932+714616640
1618+726016805+740669310+758303678+771030007+779115877+785799216+791764130
1605+795735267+797387549+798220747+798694324+797065666+792909109+787669306
1591+781560351+773947389+765172437+755900656+746868152+738428158+729357992
1578+717451266+706119742+701289258+697087610+690501289+686906859+686782800
1564+686569375+683182427+674228593+672068637+686232782+700193011+710901048
1551+721122731+732355009+742452262+749531400+755218408+766630608+793900686
1537+820930968+837444946+852767070+870526908+883850576+891687066+896880737
1524+898831428+897820387+897464183+897156117+896401960+895664814+891101019
1510+881225660+868397113+862688784+871259225+879996811+882966565+882310764
1497+884258780+890630413+894930046+895598848+899002435+909007870+919753273
1483+926872526+931357429+934050837+934388618+933352915+934256983+940966842
1470+950256303+955156468+954877819+954100187+953742349+950023935+944077592
1456+945090564+951642936+954256041+951375133+945915591+942960174+942365436
1443+940705725+937601587+931660816+923375932+918893778+916016510+910755461
1429+907775902+908738655+909794268+910417458+910457127+910896829+916736050
1416+925283982+930595992+932738714+934266343+937158764+940990763+944308846
1402+946629187+948326264+951185257+954614325+957043718+960051656+962922683
1389+963397003+961820047+960362991+959280487+958230298+958640657+960381191
1375+962014752+964232355+966846648+967949803+967518496+965094376+960388248
1362+957501621+958324493+959914003+960578719+959988884+958792498+958089227
1348+957903214+957454746+955768887+951134965+943992906+939280760+939835532
1335+942416025+942998283+941872544+942010940+943221663+943068335+941892676
1321+942234766+944778783+947474197+948301081+948187274+949926768+954288132
1308+959230269+962281218+963408814+964410049+965059685+964983095+966351231
1294+968877717+969667160+969698138+972462489+978234853+983669212+987349443
1281+990983468+994411941+997272346+1000405382+1002724980+1003491394+1003877461
1267+1004475245+1004856855+1004662373+1003950782+1002989960+1002291517
1256+1002686351+1004320878+1005588727+1005284969+1004156407+1003367113
1244+1003702219+1005052898+1007188265+1009043721+1008234517+1005750894
1233+1004372507+1003979234+1004031532+1004281357+1004547155+1006029395
1221+1008263786+1009251426+1009705243+1010408736+1009951577+1008323290
1209+1007278375+1007794221+1009156116+1010866639+1013341941+1015172957
1198+1015212403+1015347307+1016506326+1017316273+1017275415+1017223786
1186+1017643059+1018659448+1021260147+1024899223+1026151768+1024615968
1175+1023221832+1023476709+1025851948+1028980675+1030764370+1031596974
1163+1032575254+1034030527+1035472430+1036239958+1036989733+1038660660
1151+1040841417+1041620609+1040004802+1038440921+1039021322+1040210353
1140+1041105209+1043170747+1046172964+1047142255+1045506168+1045452087
1128+1048339012+1048992733+1044709518+1040299942+1040307519+1043711256
1117+1047426847+1049829423+1050189713+1046545511+1038773427+1032953224
1105+1033512824+1035637197+1034540133+1034207478+1037655489+1041167609
1094+1042709427+1043498647+1042821377+1041738576+1044329988+1048134798
1082+1047483230+1046349394+1050176564+1054464682+1054265817+1052930887
1070+1053590849+1054993156+1055594209+1053637724+1049196427+1046071786
1059+1046979939+1050241045+1053476448+1055362064+1054725651+1053397778
1047+1052796206+1051690896+1050829989+1048883606+1044650163+1042441252
1036+1042714478+1042924858+1044499882+1046117397+1044317954+1041079208
1024+1038494259+1035218221+1032743958+1032787787+1033508887+1033986847
1013+1033719341+1032339319+1030491515+1028926000+1029914829+1032681929
1001+1033193763+1032471921+1033304599+1034552688+1036417132+1039862171
989+1042289114+1042649032+1041841983+1041050905+1042784531+1044823177
978+1043825880+1042924412+1044298937+1046767256+1050162747+1053222239
966+1054873035+1056567660+1057427007+1056775217+1058685199+1062547952
955+1063431219+1061500437+1056810057+1052591323+1056506820+1064912790
943+1068074129+1065209714+1061437665+1060454036+1061865778+1064932625
932+1067354293+1065329315+1062015020+1061832423+1063478985+1065112473
920+1067597655+1071335087+1073741823+1071841053+1065689011+1060138244
908+1060055489+1063693228+1065726005+1064340412+1062130535+1061228622
897+1061535129+1062776160+1063751320+1062455688+1059398053+1057569860
885+1058178490+1057753794+1053069060+1047654535+1045061117+1042956430
874+1039663901+1035887320+1031826371+1028426423+1026482418+1025418560
862+1024851679+1024017812+1022307439+1020914714+1019411748+1017639419
851+1018160985+1019307227+1017570630+1015192271+1015933503+1019605933
839+1021819302+1019223060+1015061824+1013256438+1013445200+1014928702
827+1015559767+1012871559+1009755089+1008414811+1008195739+1008953834
816+1008729934+1006919199+1005432799+1004698997+1004518629+1004233888
804+1003495331+1003291638+1002766431+999892284+996463142+992925467+985489308
791+979109429+981307122+986775877+987870489+984832094+980108360+975165109
777+971048816+969608325+970281064+969658989+967833396+967164892+966596376
764+963575810+960043113+958551438+956048798+951366145+947904168+945793612
750+944465145+943953534+940532266+933687427+928641512+926712736+924395738
737+919363046+913431561+910342874+910290725+909372394+903827496+895423680
723+890857879+890976812+889060293+883149830+877773266+875251460+875178288
710+876956485+879759986+882492171+884024555+884104784+882672911+880023183
696+879085687+880465931+880914176+880548092+881160808+881504754+881597093
683+883541766+885926291+886375799+886001543+886776055+887123345+880536280
669+869251334+873161184+889474514+897621374+897815782+894848405+892623076
656+894736678+896723769+893427971+890184917+889242072+888060841+890422114
642+896736472+899457440+896556550+895074236+900686957+907708226+905271256
629+894282712+884268809+879084424+874357347+868232122+869969462+878905319
615+880029126+873081995+868747819+869635098+870025846+866687779+864959130
602+863715945+859996193
##END=
