##TITLE=Sample description
##JCAMP-DX=4.24
##DATA TYPE=INFRARED SPECTRUM
##DATE=12/9/2023
##SAMPLING PROCEDURE=Instrument type and / or accessory
##ORIGIN=Default
##XUNITS=1/CM
##YUNITS=ABSORBANCE
##RESOLUTION=4
##FIRSTX=4397.6552
##LASTX=599.8556
##DELTAX=-1.9287962
##MAXY=1.7440836
##MINY=0.21088335
##XFACTOR=1
##YFACTOR=1.6243045e-009
##NPOINTS=1970
##FIRSTY=0.24446175
##XYDATA=(X++(Y..Y))
4398+150502415+149353011+148978965+149148755+149414871+149963890+149891206
4384+149053759+148864090+149134343+149008064+149225632+150137350+150772769
4371+150678168+150287471+150006980+149732268+149204385+148944077+149598495
4357+150654591+151144870+151090579+150988125+150632730+149900196+149162543
4344+148763296+149204752+150070885+149754506+148442018+147965142+148462118
4330+149053200+149478803+149615613+149315793+148474035+148030120+149180744
4317+150506057+150341854+149768321+149302197+148585580+148505997+148882520
4303+148928362+149088749+149535397+149899554+149929708+150028511+150745853
4290+151348438+151080231+150459664+150069380+149993962+150006861+149615026
4276+148881052+148387434+148325868+148597304+149001056+149164571+148908721
4263+148702896+149107894+149807531+149885875+149017422+147973793+147634442
4249+147999599+148530491+148891253+148989570+148882749+148606276+147850955
4236+147127953+147634194+148635752+148566856+148399204+149465978+150314681
4222+149833814+149350644+149532801+149679794+149680463+149836612+150286829
4209+150981933+151201730+150677388+150092985+149666345+149327966+149264593
4195+149386505+149217614+148712345+148293567+148200837+149010459+150802263
4182+152070936+151666937+150297626+149265575+149101023+149442346+149613999
4168+149563689+149532379+149448089+149435851+149408797+149114857+149195230
4155+150075582+150267600+148812973+147732951+148294649+148901969+148626807
4141+148395094+148836779+149371625+149212770+148632312+148312712+147967279
4128+147293174+147027425+147570565+148259183+148673631+148769434+148159234
4114+147343465+147529411+148399479+148711097+148114245+147327760+147072203
4101+147171529+147367749+147610994+147551162+147244580+147351548+147930474
4087+148276943+148303832+148385681+148429468+148523601+148670686+148387048
4074+147815571+147593086+147918557+148353986+148130391+147049278+145986494
4060+145920057+146434491+146658241+146695230+146628601+146376016+146151201
4047+146246197+146781703+147162575+147086872+146883185+146722018+147023673
4033+147709778+147762812+146765888+145681747+145520901+145856390+145909030
4020+145818254+145963412+146480076+147129283+147162685+146567108+146459792
4006+146693414+146202300+145678013+145959422+146279048+146105561+145719396
3993+145405797+145469739+146042234+146835627+147294055+147291431+147249800
3979+147016765+146324661+145496370+144888620+145008385+145678178+145943248
3966+145802282+145995209+146659186+146770438+145731029+144851447+145066859
3952+145166515+144310381+143763426+143729951+143398398+143902722+145330167
3939+145868518+145061162+143661513+143013480+144030780+145192220+144602367
3925+143211847+142786528+142701917+142591684+143462734+144937948+145541111
3912+145135030+144012102+141304076+137551467+136118279+137727569+140064851
3898+142489643+143350831+141250115+139311208+140466942+141071573+140382542
3885+140884344+140392166+140110143+142466699+142794252+140438613+138304321
3871+137381200+139021378+139917968+138558804+139684567+142753557+142816866
3858+138417618+131243311+129829938+138158245+144141096+144704867+142073360
3844+139076495+136856124+134994828+135739059+139132611+140882261+141055960
3831+141638968+141911717+141262986+138986343+134982049+134534272+137615079
3817+139569499+142839544+145948853+145292188+141532368+138750327+138574858
3804+137139285+137297241+140986146+142603234+143650991+145743560+146462875
3790+146055665+145492472+145031439+145468693+145622319+145097793+146530798
3777+148986286+149288134+147196784+145520929+146708175+148971846+151126834
3763+151962427+150518001+150380476+152300760+151444232+146928072+145043089
3750+149627053+151922934+151463323+156268835+161782406+161652504+158620521
3736+158072712+163069170+171206119+177753383+181126707+184142691+188898004
3723+194368825+200327328+206209358+209998827+210688794+211427401+219139710
3709+233020585+246668940+258028047+268581137+280579460+292291211+301290174
3696+307036870+307524902+302061641+295680241+293326629+291388428+285924287
3682+277519149+268311994+259281987+252978564+252966381+252999884+251462618
3669+254504124+259073134+260652930+260480076+259855519+258367498+257426883
3655+258081200+256016528+250385367+248833515+254561717+260096113+262396993
3642+262983497+263228146+262841651+261864450+260864846+258750104+256232812
3628+258827018+263568863+264612813+262069669+258937893+259522250+261766289
3615+262088769+262147262+262715950+263366506+265118863+266807038+266735776
3601+266323465+266847275+266832523+266515236+267546177+267865336+265746906
3588+265481047+269406382+272449850+272843850+272826236+273473104+273976915
3574+273689644+272401174+269878139+267744847+268868463+271518684+272863115
3561+273644931+274717723+275018571+273950824+272988797+272950303+272424017
3547+271593268+272436915+274453663+275557775+275344464+274757721+274363924
3534+274096340+273754760+273049877+272101500+271332106+271064027+271265559
3520+271367040+271379883+271455421+271003975+270251387+270154456+270398866
3507+269854360+268818942+268666711+269253490+269404382+269021831+268379312
3493+267569295+266686255+265719458+265170163+265322302+265475671+265215610
3480+264934394+265039637+265264690+265027216+264249400+263466189+263257557
3466+263423017+263185726+262295640+261453405+261282551+261502999+261565675
3453+261107917+260155853+259248006+259015669+259411668+259825814+260171357
3439+260563613+260885634+261166538+261074249+260109066+258853585+258333482
3426+258392433+258308437+258089915+258064338+258167012+258266329+258449366
3412+258539747+258225670+257750684+257618488+257973572+258501969+258511436
3399+257853560+257340428+257225113+257197114+257471468+258075090+258455256
3385+258243871+257870256+258011020+258623559+259115811+259172983+259215237
3372+259562248+259750331+259624502+259676848+259907773+260073196+260484975
3358+261392711+262608267+263729700+264233180+263970881+263410999+263152333
3345+263630622+264762916+265816444+266279155+266183986+265983280+266269890
3331+267014625+267853208+268460005+268640969+268570202+268534992+268651482
3318+268648583+268477784+268484885+268553487+268487453+268479380+268534901
3304+268326800+267998633+268202219+268923359+269433793+269515349+269705578
3291+270197426+270690577+270891411+270616892+270504898+270892879+270703861
3277+269814766+269450581+269947989+270622287+270892219+270802076+270626947
3264+270598618+270669789+270281275+269619876+269474855+269617161+269597400
3250+269598171+269501992+269013813+268377679+267991385+268005990+267982523
3237+267781047+268300765+269265820+269631802+269685396+269774878+269713450
3223+269379392+269021409+268936202+268842977+268871692+269243600+269220684
3210+268552423+267961442+267637090+267222615+266883237+266962719+266992479
3196+266298916+265333183+264971438+264899827+264213933+263078722+262099228
3183+261219930+260538257+260340816+260398814+260221574+259429814+258139179
3169+256900908+256114707+255587760+254917554+254389542+254366497+254512087
3156+254606614+254624320+254284758+253638991+252940089+252399399+252183520
3142+251733670+250701517+249659787+248903273+248197509+247271774+246319709
3129+245834980+245667502+245249705+244538804+243791353+242884076+241590890
3115+240043368+238687305+237619356+236463008+235260129+234054334+232610642
3102+231186031+229909634+228480565+226957115+225648847+224674178+223812477
3088+222766949+221759713+221056224+220422603+219766451+219128591+218476402
3075+218074220+217987784+217754565+217194170+216614748+216173705+215801797
3061+215468657+215098069+214612478+214345408+214608313+214865511+214550242
3047+213814075+213004408+212406473+212100506+211822685+211126993+210046073
3034+209266422+208941649+208524017+207840197+207088306+206331370+205696905
3020+205316887+204974536+204479918+203794409+203002245+202422328+201925893
3007+201187764+200413599+199694569+198959724+198312635+197573643+196722400
2993+196404378+196996148+197953001+198495893+198566073+198514901+198377476
2980+198396540+198865838+199325119+199337981+198951137+198299920+197715215
2966+197375451+197181002+197044366+196673925+196032525+195647369+195652341
2953+195501064+195003858+194561935+194287838+194151716+194286260+194522652
2939+194585566+194324698+193662070+192826844+192323693+192272742+192046349
2926+191330695+190599721+189994337+189168487+188178259+187460000+187108898
2912+186878468+186666754+186546723+186483368+186369502+186268002+186187694
2899+186016858+185730964+185315002+184969514+185101324+185592218+185788374
2885+185594328+185556789+185745807+185909395+186121459+186250627+186059443
2872+185836206+185764815+185636601+185539193+185588695+185513873+185253317
2858+184976486+184609605+184121188+183530042+182744905+182065305+181852177
2845+181865314+181878598+181972447+182054608+181979180+181793648+181679562
2831+181781648+182010096+182142971+181967126+181591511+181434436+181474012
2818+181451940+181402547+181330349+181218153+181137312+181110928+181164210
2804+181336752+181638408+181983896+182188143+182168547+182069726+182132384
2791+182433140+182757051+182878146+182814737+182673624+182497119+182328411
2777+182261992+182261515+182127100+181831885+181538963+181339046+181280773
2764+181345835+181342917+181196832+181057812+181028455+181064087+181081535
2750+181131258+181219162+181240280+181277856+181380824+181385190+181158266
2737+180807016+180652308+180792999+180975265+180952752+180775550+180668876
2723+180647703+180632327+180674949+180702049+180536387+180347699+180403990
2710+180525525+180573982+180696912+180779440+180680967+180611283+180679114
2696+180695224+180593595+180540901+180640034+180787678+180831437+180809548
2683+180788430+180723791+180680344+180676894+180558203+180302784+180026999
2669+179788313+179621403+179481851+179245146+178941693+178692604+178554959
2656+178477403+178290440+178006747+177798243+177715055+177712981+177583061
2642+177197355+176817776+176663802+176624648+176495186+176196504+175791844
2629+175389918+175070906+174757930+174402369+174200141+174161720+174018113
2615+173672625+173240957+172882607+172679535+172555651+172363348+172036850
2602+171693894+171501499+171493004+171584229+171625989+171546176+171436493
2588+171366735+171306866+171244429+171164635+171022843+170860521+170764727
2575+170722638+170640403+170466503+170287594+170216772+170192516+170067953
2561+169882935+169753712+169575170+169292706+169070387+168877460+168593694
2548+168363631+168246261+168100855+167972329+167916203+167842189+167764247
2534+167680802+167481527+167213155+167081124+167082812+167029494+166880840
2521+166658135+166399469+166219698+166123207+166037725+165984957+166016533
2507+166063412+165998864+165853348+165808268+165897328+165928868+165829221
2494+165779682+165977801+166340352+166631898+166879134+167159432+167395733
2480+167599540+167770926+167842115+167895415+168023648+168088691+168007392
2467+167963834+168041849+168160834+168310001+168429096+168452912+168476470
2453+168522028+168510083+168516211+168633307+168793794+168961896+169171538
2440+169378115+169543648+169644653+169653570+169678523+169764904+169797838
2426+169761711+169743767+169844570+170070173+170243193+170261595+170232221
2413+170255669+170320914+170389296+170506905+170725041+170918830+170995469
2399+171138526+171437429+171595568+171516966+171588413+171923094+172163926
2386+171982632+171133352+169453047+166978615+163831794+160190372+156386518
2372+152657651+148897235+145045420+141397384+138374318+136412256+136011834
2359+137430675+140464456+144738049+150240620+155769336+158251016+156280761
2345+151978527+148949618+148041955+148261733+149020642+149888224+150643931
2332+151451920+152718556+154452023+156178473+157711097+159439142+161572434
2318+163747174+165531657+166895445+168225179+169732703+171175093+172351293
2305+173290496+174058257+174707511+175298932+175884372+176412365+176773081
2291+177005969+177274030+177679625+178155088+178487605+178533823+178363978
2278+178163198+178100742+178229544+178396233+178430195+178381885+178352602
2264+178393756+178576866+178829221+178955013+178946115+178974187+179084769
2251+179195901+179283383+179307070+179245110+179228890+179322959+179428220
2237+179538545+179694703+179799578+179802184+179784515+179821999+179913371
2224+179968414+179990267+180071694+180154938+180178716+180141580+180042594
2210+180024980+180096702+180089638+180069914+180140590+180247832+180347387
2197+180446887+180589045+180727057+180762211+180778742+180938460+181139166
2183+181185677+181174522+181225528+181293654+181357852+181361503+181293580
2170+181322698+181520010+181727046+181864819+181971126+181992776+181940834
2156+181921293+181960080+182034682+182068992+182037251+182062442+182194087
2143+182373987+182537117+182613333+182648102+182705916+182737988+182735529
2129+182730796+182758354+182861211+183030983+183240459+183403846+183417607
2116+183365884+183418726+183576975+183718381+183839825+184047833+184290886
2102+184485555+184708444+184961496+185236364+185622308+186089790+186522559
2089+186890119+187351602+188032340+188787918+189535350+190376282+191331741
2075+192366058+193552130+194950173+196401186+197764772+199263085+201200295
2062+203528367+206050815+208690762+211495398+214604276+218007764+221577226
2048+225246518+228890362+232431256+235980223+239600820+243189878+246566927
2035+249502712+251932651+254028642+255831528+257156272+257809342+257736207
2021+257026627+255793915+254235696+252551245+250622897+248353997+246014017
2008+243806564+241663731+239531448+237498279+235720346+234251389+232897160
1994+231422258+230077607+229312598+228963496+228627677+228224760+227885511
1981+227678144+227583470+227633559+227742582+227860117+228005083+228098216
1967+228421760+229263591+230294001+231309713+232409661+233500361+234599574
1954+235903603+237367386+238780621+240089127+241240283+242231410+243759557
1940+246136085+248384436+249944177+251071720+252139980+253344675+254452860
1927+254991642+254888674+254840346+255046795+254995238+255217925+256028088
1913+256407115+255971485+255407659+255304544+255494315+255554184+255342286
1900+254954047+254535462+254366644+254562103+254469098+254159113+254785248
1886+256075168+257127099+258031331+258915912+259641584+260189062+260580089
1873+260310414+258884611+257757050+259025852+261335393+262481539+262493961
1859+262217681+261960831+261708200+261334659+260574200+259278482+257332098
1846+254959643+253973691+254925792+255397292+254756185+253999598+252961776
1832+250607026+247826224+246749487+246656812+246678408+247162604+247274526
1819+246624227+245745186+244640597+242986603+241450456+241029339+241101024
1805+240479384+238901900+237226127+236721619+236910913+236003452+234010887
1792+233792493+236198341+238052729+238347431+238143569+237840226+237879527
1778+238417409+237877343+235465679+233610906+235166776+238406070+240868026
1765+241417045+240720840+241026275+242116461+242960127+243667965+243040380
1751+241049522+240444963+242241042+244394499+245531839+245848814+246617034
1738+247306414+245995578+245362232+248695742+252498972+255390503+257210655
1724+257938895+257798810+255610566+252113156+252431416+257379399+262064147
1711+264569293+264694718+263586294+263262419+262569388+260522789+260780649
1697+264055501+269367466+275055487+277740881+278213464+277145295+274366969
1684+275280760+281891966+287088249+289045862+289757002+291500716+292957069
1670+294397110+299342781+304740467+307128903+309414224+313806271+317270141
1657+316879885+313128175+314483853+322460498+325890682+328483035+335981207
1643+343299755+346958699+347266904+345302521+346782781+354331263+360075134
1630+362112945+363372774+365062638+367101806+370588391+373487041+374143487
1616+376620359+382373661+387035089+389977149+392890331+396526156+400320507
1603+404154268+408494096+413187596+417872252+422900928+428443745+433925574
1589+439317829+445008822+451166728+458098690+465574184+471590997+475746394
1576+482519977+491586992+497755356+503397141+512243689+521955260+530179709
1562+534604488+535560626+545308562+564475202+580115296+593119847+604819396
1549+615895158+625330155+632692224+638930751+647452690+664791455+681777650
1535+692611479+703626877+717027555+728089924+737327132+746681179+754875648
1522+764083060+776580149+789699226+803023578+816070585+826350606+832016609
1508+835276783+847793394+868571480+882425127+889690247+894726262+901706551
1495+910966511+918471619+922780476+926428595+933355382+941556163+948084657
1481+952900573+955952096+956989624+955591306+954072186+958023043+965779148
1468+970212917+969913775+969557682+970732011+969673126+964583389+961494363
1454+963778510+965563232+964926198+961977349+958716147+956985074+955655303
1441+952986000+947080595+938460825+933378353+932685029+930627366+925688520
1427+920872458+919270039+921363296+923289002+923824830+927153551+932883184
1414+937633048+941853176+947549196+952865712+954250159+953639840+955251139
1400+958708735+962369476+965416376+967777511+970352800+972664836+974081722
1387+975197999+976354053+977295660+978161306+979991824+983145434+986820781
1373+990185464+992416402+993807969+995062661+994828323+992039540+990001986
1360+991033056+991509217+990042058+989827756+990348979+988370505+985416224
1346+983827970+982812166+980803235+976061884+969163352+964156914+963106689
1333+964405636+966375009+968130888+968085753+966778806+966827465+968988388
1319+971718459+972268011+971067335+971946412+976013299+981895659+988257336
1306+993202126+995803396+997282297+998721128+999669412+1000044807+1001226769
1292+1003753473+1007337889+1012494926+1018517829+1024134661+1029579831
1281+1035095310+1039801946+1042168071+1043693062+1047227352+1050789750
1269+1051155310+1049416531+1049007743+1051378859+1054386494+1056835038
1258+1060251314+1062987183+1062224284+1060852166+1063227979+1068014465
1246+1070444587+1070140014+1069716768+1069252424+1069376381+1071357791
1234+1073741823+1073725750+1071412540+1070643550+1072225492+1073248415
1223+1072463939+1069975692+1067043502+1065503172+1064836268+1063448885
1211+1061823642+1061928151+1063344230+1062739195+1058857913+1054652757
1200+1053461181+1054510232+1054203751+1052424093+1052224910+1054166468
1188+1055110643+1052996029+1049442218+1046129129+1044120785+1043732400
1177+1042833214+1040169268+1037810996+1036931405+1035971671+1034962472
1165+1034629277+1033329303+1030385957+1027806485+1027497729+1028919092
1153+1029025876+1025614150+1020663341+1017212424+1016240434+1018540140
1142+1022631100+1023174120+1018277034+1013840623+1014776651+1017081348
1130+1016005510+1015568613+1018857189+1020308422+1016383326+1011418133
1119+1009708784+1010431832+1011380997+1013030680+1013463907+1010486361
1107+1009185800+1012538667+1016825067+1019640638+1021028681+1022549563
1096+1024484149+1023864729+1021571701+1020798234+1021365106+1024128496
1084+1029422848+1033782345+1035384984+1035681630+1037430170+1041557972
1072+1044812568+1045526002+1045080078+1045180404+1046822160+1047343676
1061+1047959573+1053180681+1057983460+1056225672+1050578457+1046167733
1049+1045444685+1047069561+1050253115+1055587611+1060592655+1062235072
1038+1061438413+1061173251+1061716125+1058823199+1050957081+1045003972
1026+1044668282+1046702679+1048296144+1046010309+1040026743+1035078797
1015+1032491471+1032625043+1035828706+1038500504+1036785651+1033667928
1003+1034501430+1038309394+1041650225+1043732840+1044300446+1044055394
991+1045567101+1049746497+1053010781+1051679175+1048412396+1048535032
980+1051679248+1053168131+1052562802+1053030009+1054557349+1055670029
968+1056521878+1057350683+1058202678+1058145360+1057152894+1058459473
957+1063129121+1067061409+1067014292+1065615020+1065994965+1066808137
945+1066052504+1064494560+1064536173+1066631925+1068988143+1070249734
934+1070157995+1069578133+1068449453+1066174480+1063059767+1060757492
922+1061502263+1062859776+1062007193+1061515547+1061759792+1060233407
910+1058242383+1057762553+1057326610+1057563370+1060934217+1064659029
899+1065092843+1063995575+1063264381+1061795974+1060585390+1061251853
887+1060877339+1058090977+1055029253+1051825957+1049782679+1050394539
876+1049726094+1044066843+1036641437+1032975338+1033546026+1034312815
864+1032278931+1029088111+1028119277+1028301947+1028934798+1031642558
853+1031638888+1027082850+1025958867+1029076295+1029471579+1027923764
841+1028048308+1027372451+1024596804+1022188846+1021681935+1022048816
829+1021091724+1018721710+1017715226+1020157898+1021917373+1018579404
818+1014629355+1014582972+1016890311+1019040006+1019753587+1019387439
806+1020093680+1022169764+1021379050+1016751162+1014288968+1015758035
795+1015992373+1012746143+1008229662+1003487211+998642452+994595601+991999688
781+989905697+987495024+986502337+987175626+986362528+982515813+978426248
768+977759124+978044908+974036513+967824261+963816306+960938426+956650778
754+951354959+946596655+944142975+944435071+943924490+940875828+937387482
741+934273943+932773758+931659243+927019392+922173533+920929409+918999520
727+914454270+909832327+904994173+900108022+897567887+898244846+899547609
714+899974010+901847242+904218798+904606302+905010172+906408050+907594782
700+907412406+904290647+899408606+896059262+894535519+893435535+894332519
687+897428958+898431405+897865414+899565516+901678002+902381308+903404598
673+904080015+900117783+892005438+892868369+903426542+911101550+916563673
660+921892519+925111667+923425876+917061117+911434085+909671307+908881400
646+907707217+909648482+915779931+920844569+921606441+919535347+916221451
633+916372930+923338468+929677687+924951822+909992392+892796593+881166399
619+883843041+900386247+914265949+911764784+898204040+887686600+889676669
606+903670787+918218273+923859837+925864365
##END=
