##TITLE=Sample description
##JCAMP-DX=4.24
##DATA TYPE=INFRARED SPECTRUM
##DATE=12/9/2023
##SAMPLING PROCEDURE=Instrument type and / or accessory
##ORIGIN=Default
##XUNITS=1/CM
##YUNITS=ABSORBANCE
##RESOLUTION=4
##FIRSTX=4397.6552
##LASTX=599.8556
##DELTAX=-1.9287962
##MAXY=1.6717762
##MINY=0.11868475
##XFACTOR=1
##YFACTOR=1.5569629e-009
##NPOINTS=1970
##FIRSTY=0.12188768
##XYDATA=(X++(Y..Y))
4398+78285542+76870113+76228377+76351446+76858700+78455842+80020401+79962661
4382+79033479+78747795+79436825+80125214+80328122+80422268+80345712+80202090
4367+80436538+81036255+81479252+81133004+80339740+80008088+80183030+80685653
4351+81291562+81472993+81252398+80684188+79930044+79981463+81184600+82250704
4336+82079543+81688026+82280574+83086797+83122630+82635703+82289982+82213771
4321+82237755+82561684+83035537+83002939+82451123+81972878+82205646+83097679
4305+83835806+84202363+84145274+83655572+83506384+84014835+85092731+86310846
4290+86552323+85940949+85999331+87298662+88728165+89045949+87933570+86297055
4274+85645647+85906476+86237707+86905615+87690763+87515237+86517065+86099105
4259+86938672+88259394+88784431+87931407+86866595+87294432+88523228+88703185
4243+88515352+89270572+89969250+89755996+89347740+89462923+89973499+90121270
4228+89983137+90322905+90897785+91045537+91061214+91661151+92442337+92282583
4212+91515897+91853215+93402714+94351788+94075072+93365857+93009073+93466206
4197+94305619+94563520+94074976+93743066+93970407+94165170+94091093+94042646
4182+94062841+93835633+93565894+93717723+94007225+93917271+93678732+94331709
4166+95618015+95850640+95212487+95017351+95076766+95072143+95316453+95404006
4151+95171027+95428976+96218220+96815812+97231102+97834054+98161657+97543278
4135+96486524+96068889+96415261+96679641+96368355+95957257+96140698+97110167
4120+98386482+99330780+99731054+99582709+99093457+98608645+98379907+98903546
4104+99975508+100252071+99552083+99214401+99577598+99972608+100560332+101344495
4089+101598969+101537832+101594777+101618761+101919165+102583665+102879638
4076+102681123+102560782+102349701+101934401+102173630+102984666+103256186
4062+102924524+102718746+103076899+103980369+104719961+104751276+104637424
4049+104865081+105290564+105670835+105732977+105778284+106150507+106296641
4035+105900473+105482140+105335996+105188368+104986561+105138199+105677142
4022+106081990+106087484+105839068+105719741+106031065+106504324+107077741
4008+107983958+108549268+108020881+107056341+106631241+106531696+106379063
3995+106492658+107119210+107981020+108376929+108194656+108197479+108570859
3981+108844408+108856936+108582928+108112482+107878250+108135509+108677859
3968+109059920+108942354+108930218+109932171+110924217+110768637+110379293
3954+110074381+109269623+108921174+109940966+110179515+108953733+109327755
3941+110812068+110672279+109159072+107285759+107065395+109289989+110245964
3927+108500812+107917901+109471583+109228297+107616665+108841221+112404616
3914+114186051+113534490+111440660+106729216+101169103+100398368+104268733
3900+109046473+112988685+112504036+107557614+105550216+108930907+108992552
3887+106912369+108544779+108660192+108689545+111773077+110860974+107060485
3873+104527093+104296373+108432305+110373885+108693842+110746777+114665905
3860+113790132+106206428+96024481+98903852+114185027+120192980+118038978
3846+113507893+109406033+106175266+103728469+106009186+112022288+114858132
3833+115497346+116270397+115972108+115101351+112040903+107285836+109532213
3819+114252730+115231368+119451981+123043945+120537619+115459619+114296305
3806+115417269+112675954+114127948+120793481+122555688+123529723+125866840
3792+126070388+125257830+124542452+124237626+125025225+124820326+124368572
3779+127242230+130307128+129687351+126721796+125633880+128135095+130739990
3765+132761485+132784608+129842434+129318718+131145144+128474203+121425642
3752+119718945+126917688+128766922+127453215+135964325+143408422+140309433
3738+133576561+132084275+138636568+147720311+152616468+152569639+152463730
3725+155081143+158960801+163976917+168993876+171030589+169391518+168850182
3711+176002297+186675229+193914265+196886548+199489442+206961102+216194817
3698+222656160+226768404+228526534+229430770+236735672+251985502+264041432
3684+269861101+273345606+275693346+276513705+283347959+299094967+309100612
3670+317396153+333055915+346941065+356225102+364844515+372694790+378832722
3657+387451560+398494455+403320862+404912462+417525098+439188323+454934355
3643+464804843+474414321+484653625+493210445+500810926+507954543+510730647
3630+513683922+529300979+547108301+556581952+561745208+568870678+580440840
3616+589755771+595357478+602232006+610119913+618534513+628695529+636454539
3603+639929148+643143626+648638792+655497203+663182672+670997996+676382295
3589+678913773+683249205+692024657+700440406+704208336+705018320+708240646
3576+714102484+718265184+719811343+720747584+722330647+725767739+731421778
3562+737106750+741207509+744358630+745627929+746008228+750175140+756323638
3549+758412415+757470892+758454067+761260031+763387320+764424091+765336902
3535+768685944+774451998+780137199+783563265+781676927+776769399+776722847
3522+781019537+782193512+782305221+785836029+787948082+785808082+785098858
3508+789776154+795797937+798821805+799733545+800223562+799989579+799580950
3495+800986153+802941553+801938778+799195061+799375525+800801860+798092751
3481+794492958+796922910+805682743+814257135+815283645+810289216+808123567
3468+812403643+816717866+816283971+814858555+815028913+815119796+813828522
3454+812658375+813964502+815973422+815162902+813842151+815782392+817795905
3441+815735610+812888301+814439207+819052801+822590423+823814472+822582460
3427+819735610+818111584+819173008+819885984+818072459+817140889+818580776
3414+819673745+820377916+822824483+825959831+826697460+825034080+822901201
3400+819711492+815640976+813594922+815230509+820013006+824838685+827787520
3387+830485527+831302173+827712639+822789109+820198830+820595974+823900914
3373+827405230+825762981+820418342+817369360+816625835+815809419+815264657
3360+816486639+820011398+823134955+823658891+822547316+819789282+816263145
3346+814957018+815287321+814245573+812144699+810697998+809453736+808893661
3333+810898905+812360996+810069857+810396407+815629031+816164376+810583610
3319+805883574+802477797+801959067+806727170+811216804+811224537+808600339
3306+806084940+806089994+808231448+809068613+805589716+800454866+798676102
3292+800585563+804550419+809215312+813424870+815531104+812845118+806538513
3279+801910525+801895289+804034140+806378874+809750579+809803333+804197989
3265+801445621+804771999+806422670+803519315+801207043+802263032+802954110
3252+798324361+791088407+788781878+791729334+794019631+794434615+793455652
3238+789460323+785670571+786854041+791844565+795805899+796497743+794394572
3225+789990307+785957385+785273427+787698173+789813212+786937344+781093346
3211+778634223+778243816+776833867+777146253+779311978+779823664+778524887
3198+776785171+773527472+768739463+765220599+763475524+762664468+763136263
3184+763256700+761332155+758278349+755016362+752549812+751790132+751419020
3171+750491508+749456499+748198990+748034145+749612232+750217557+748330989
3157+746222075+745942918+745542482+743853988+742521599+741191660+739520470
3144+737835957+736201901+735426678+734642956+732659685+730426812+730227207
3130+732589092+733603199+729768121+723054419+718287388+717454128+717853416
3117+716789389+714269319+710825260+707994106+706429801+703420326+699015986
3103+695945718+693937870+692347992+690877020+688741156+686534085+685456888
3090+685827694+686347113+684875069+680731433+676426397+674326365+673619055
3076+673535139+673143278+671002283+668109571+665873865+664433519+663290935
3063+661501758+659129919+657179878+656012640+655237034+654489145+653770426
3049+652550129+649831066+646517704+644844370+644921395+644642468+643225244
3036+641596510+639106492+635298786+632605258+632368671+632164548+629786163
3022+626363657+623367160+621423704+621324284+622046141+621293428+618848929
3009+616660961+615514626+614867764+614663871+613904228+612302674+611560680
2995+612191348+613580817+615417273+618279321+622942682+627715570+629551873
2982+628249575+625788116+623172608+621173833+619784709+617499504+614241920
2968+610740896+606695187+602068003+597622776+593916787+590496693+587185360
2955+584712723+583020592+581542001+580347124+579288685+578091817+577288877
2941+577214111+577303157+577138120+576702196+575874410+574876458+573686519
2928+571188730+567348293+563741188+560414044+555757038+549896081+545287005
2914+543490056+542943763+541144364+538368835+536036388+533883603+531939495
2901+530645695+529340257+527788815+526265549+524710394+523686907+523439257
2887+522685127+520961796+519672016+519150568+518102696+516323089+514667939
2874+513204203+511371498+508897100+506349237+504439278+502802887+500813798
2860+498592945+496439662+494353871+492179493+489694032+486548654+482804803
2847+479384096+476714648+474241284+471997462+470163073+468225818+466101438
2833+464350850+463481221+463201566+462382854+460416122+457818875+455395660
2820+453452204+451802414+449987089+447932843+446327154+445227103+443714097
2806+441613835+439755174+438414861+436990364+435119338+433053148+431086990
2793+429116697+427149889+425411168+423483714+421085383+418900823+417187445
2779+415529156+414137965+413081288+411564951+409492023+407676009+406544834
2766+405730294+404682498+403365844+401940581+400593760+399730333+399359374
2752+398883023+398054625+397102153+395991344+394883368+394064005+393209116
2739+392132187+391064178+390045324+389040787+388208102+387629613+386963418
2725+385887944+384698235+383886872+383393294+382738049+381691325+380483201
2712+379502477+378706964+377642974+376295808+375148133+374326511+373341078
2698+371866699+370222919+368883486+368075914+367401565+366149876+364531248
2685+363203874+362189614+361319794+360564669+359906055+359228796+358329805
2671+357327030+356526004+355873783+355219724+354746397+354453650+354085830
2658+353847023+353752197+353320369+352758418+352523784+352412075+352228625
2644+352133225+352200104+352275291+352327318+352449554+352454416+352194400
2631+351869228+351606609+351435026+351408458+351291925+350928011+350556248
2617+350057731+349249508+348536265+348117261+347720117+347162875+346459661
2604+345588463+344586300+343804186+343382579+342882915+341942731+340862280
2590+340154358+339664953+338897960+337908392+337061848+336443928+335898171
2577+335220683+334492586+334080014+333815749+333223784+332477694+331979407
2563+331772911+331665681+331476871+331247826+331165786+331383844+331800512
2550+332100801+332209447+332336699+332498175+332502310+332546603+332906038
2536+333122220+332765579+332287238+332182267+332362348+332593116+332749156
2523+332682965+332246773+331582531+331108056+330929161+330742648+330449671
2509+330103711+329614957+329106563+328692958+328172275+327489581+326814314
2496+326376092+326152560+325797718+325379059+325199590+325181483+325173520
2482+325075248+324790426+324360473+323892889+323481695+323180985+322967713
2469+322808457+322787248+322796742+322487955+322046709+321839255+321600678
2455+321163222+320781487+320531578+320290914+319973551+319645967+319476107
2442+319474633+319453922+319331322+319181541+318997669+318718914+318339552
2428+317931249+317652437+317600774+317676401+317757656+317778827+317620394
2415+317382678+317307969+317384362+317619552+318068397+318428292+318340203
2401+317955788+317702893+317724197+317828728+317806850+317628395+317315664
2388+316817167+315926981+314261648+311479802+307555027+302851374+297795482
2374+292706628+287822836+283055442+278214334+273484419+269579092+267205837
2361+266572680+267844831+271076345+276070373+282804346+289431836+292071940
2347+289272350+283997175+280813362+280219004+280399660+281032644+282208285
2334+283183688+283534664+284112942+285497682+287277117+289028528+290911594
2320+293319572+296056225+298359462+299904070+301196071+302742421+304494943
2307+306099924+307328471+308368706+309412195+310316947+310995258+311531904
2293+311995296+312368686+312587682+312743511+312954430+313026841+312788072
2280+312411658+312087309+311831045+311582648+311416674+311488224+311641699
2266+311607876+311381683+311126663+310940533+310800438+310734305+310688672
2253+310549055+310499938+310665358+310818814+310892221+310966604+310938562
2239+310851871+310936380+311179532+311355747+311380496+311440466+311624835
2226+311805931+311977055+312132310+312107484+311894269+311790925+311929737
2212+312046174+312098736+312323436+312682853+312936705+312951826+312817761
2199+312754594+312962641+313366121+313518773+313307644+313157596+313251713
2185+313354770+313314516+313267352+313325733+313440811+313572599+313648456
2172+313632645+313666755+313814641+313901389+313836730+313768127+313839850
2158+314025501+314214751+314439739+314709038+314855794+314951807+315263677
2145+315699946+315936360+315968804+316045331+316330288+316827350+317324029
2131+317610938+317792762+318108402+318504263+318747301+318881194+318997420
2118+319036603+319105263+319290991+319454553+319515040+319531482+319543924
2104+319527673+319569497+319808228+320112307+320318171+320400288+320344663
2091+320373739+320655518+320975140+321135640+321104592+320995870+321064415
2077+321293498+321413476+321499612+321699562+321746879+321543675+321421707
2064+321480662+321483035+321442800+321523194+321683024+321839370+321897254
2050+321840710+321782291+321727891+321635707+321621351+321775783+321922980
2037+321966507+322011910+322049733+322041962+322004100+321927076+321873671
2023+321941164+322001918+321894038+321830986+322065200+322387463+322466287
2010+322407446+322486079+322660916+322816803+322973187+323067477+323047915
1996+322881960+322496836+322333255+322830316+323556155+324053561+324234677
1983+324271466+324483552+324876600+325280405+325613885+325956055+326232150
1969+326135601+325990395+326354233+326878131+327147220+327294991+327353984
1956+327314400+327210539+326948801+326516896+326000387+325345447+324557169
1942+324289459+324806657+325262259+325286683+325184545+325173520+325259771
1929+325326344+325046498+324221278+323506694+323186996+322982260+323592332
1915+324831043+325273974+324861784+324690661+325276041+326062213+326561801
1902+326857497+326948418+326777792+326737442+327019279+326949298+326701954
1888+327350807+328422644+329133514+329672304+330133342+330524361+330868292
1875+330974564+330179932+328301288+327332699+328947269+331232360+332562873
1861+333274049+333848442+334435774+334961089+335355553+335564997+335266661
1848+334098925+332715161+333469903+336285515+338166915+338857380+339594398
1834+340037060+339072108+337995141+338849686+340431716+342202709+344476391
1821+346093947+347009668+347953794+348512147+348229889+348294012+349701703
1807+351314091+352007160+351797218+351640565+352796624+354480065+354584385
1794+353520549+354931073+359197405+362271194+363451410+364259058+365229485
1780+366874145+368942250+369401297+367894645+367660241+371154642+375937751
1767+379947895+382071701+383025513+385325534+388361692+391075356+393558981
1753+394495872+394654170+397096564+401800237+406435728+410053208+413266346
1740+417622259+421553541+422931142+426702671+435847321+444660864+452404944
1726+459263738+465513914+471086756+473872583+475879589+483902749+496713459
1713+507970851+516363630+522025096+526787150+532792968+537767299+541852210
1699+549784640+560315045+573333974+586661998+595999439+603524963+609110936
1686+612625205+622082050+637778046+650505224+659281059+666751303+675046078
1672+682011910+688556633+698879776+709045577+715704918+721868652+729030951
1659+734149952+734354228+730406982+732247841+742082038+746555593+748998715
1645+756204962+763044384+765417066+763726045+759349191+758112050+764072656
1632+770120164+773040670+774973101+777529309+782223603+791420240+801390570
1618+809056898+818237074+829014708+836473774+840849632+844254260+846272904
1605+846117630+845038595+843768837+841201144+836355557+829937243+823449332
1591+816791063+809221973+800662971+791373612+782837197+775661806+768037972
1578+758121620+749156286+745427174+741641864+735926649+733038607+732442699
1564+730768447+726473747+718332791+715999235+726603602+736725837+744292171
1551+751526364+759232659+766301165+772486720+778486375+788319577+811539680
1537+835709193+851640436+866667366+882348011+892972208+897627147+897392934
1524+892167124+882964131+874854491+867761560+859197658+851088553+841835870
1510+829088594+815190236+811942413+823015896+832624761+837454652+840064302
1497+843906348+850606728+857264997+862999966+870903952+882269761+893680207
1483+903319162+911395803+916826655+919431023+921428381+925416896+933857758
1470+943729318+949050145+949798188+951081728+952856894+950206587+943949137
1456+943770587+949719556+952327828+950490415+947812774+946538192+944245215
1443+940149356+936597876+931256912+921118445+914000401+912433722+909528683
1429+906137300+905028942+903933369+903428574+904566411+906923855+912851156
1416+920989432+928144534+934645308+940807052+945065459+946773171+947641115
1402+948220101+947202779+945631812+945969925+949435116+954211564+955887042
1389+954235529+952958037+953479676+954101463+953977504+954086379+955360962
1375+957793287+961223182+964024322+964439765+963412106+961793670+959584685
1362+959068865+960849237+962367603+962616593+961858444+960153641+958129332
1348+956879481+955904805+953805768+950014562+945370801+942428092+942066627
1335+942027425+940675895+938731673+937172728+936244680+936629803+938571575
1321+941320192+943829542+945214455+945261849+944463426+944143536+945988606
1308+949742525+952586849+953813960+956081824+959665461+961453184+960585240
1294+960139860+961558614+962977445+963654206+964645267+966506262+969597662
1281+974246628+979590272+984319250+987490277+989076250+990591170+992190696
1267+992393747+991369456+990253518+989596511+989380674+989556085+990357417
1254+991708181+993428526+994463765+993894196+993993578+996839586+1000083886
1240+1001060170+1001293082+1002518432+1003240519+1002934258+1003392654
1229+1005140257+1007000870+1008064055+1008776495+1009994112+1011992083
1217+1013937300+1014607783+1015064418+1017316585+1021075022+1023969572
1205+1024656133+1025272406+1027773181+1030417669+1031066637+1030920627
1194+1032484549+1035309348+1036902901+1036911783+1036918597+1037578360
1182+1039467302+1043037311+1046080091+1047491036+1048774040+1049430358
1171+1049585250+1050934559+1052624432+1053970985+1055285458+1055844997
1159+1056729402+1058941832+1061317882+1063818887+1066427772+1068260362
1148+1068602302+1066244398+1062646749+1062045329+1065210461+1068817834
1136+1070315450+1069183356+1066863658+1065790443+1065291467+1063950273
1124+1063972094+1066064546+1066646443+1063783667+1059798138+1057149669
1113+1055571888+1054258794+1053156407+1051285228+1049015298+1047902421
1101+1047667060+1048225450+1049311912+1049659671+1049723373+1052004865
1090+1056302934+1057300273+1053887988+1051989859+1055507114+1060860558
1078+1060745327+1056647248+1054992442+1055659632+1056666772+1056843102
1067+1055199015+1053875125+1055342882+1058009344+1058833569+1058886399
1055+1062065159+1067333846+1067805181+1062586952+1057330899+1053928644
1043+1052894401+1053501257+1052959711+1051838183+1051296713+1050925142
1032+1049561285+1046000999+1042224341+1040479265+1039929297+1038845745
1020+1038020142+1037689150+1035578858+1033690452+1032571680+1029120807
1009+1027381933+1029619553+1031673876+1034205966+1037962794+1040237548
997+1041700405+1042632663+1041956669+1042543465+1045249282+1046469579
986+1047029884+1049738380+1051847600+1050151297+1046501047+1044975331
974+1047735203+1053062768+1057198747+1059224435+1060780088+1061482038
962+1061126546+1061849016+1063667517+1064436616+1064388150+1065988670
951+1068844096+1069977338+1069545663+1069209924+1069584865+1070710451
939+1071273359+1071563464+1071833051+1070846890+1069589612+1067287830
928+1063941545+1064462878+1069157554+1071912832+1069943420+1067403520
916+1067664914+1067804033+1064993322+1061729038+1061774365+1064965375
905+1068683615+1072248877+1073741823+1070488641+1066878282+1067213179
893+1066854241+1062514751+1057550488+1053687847+1050332909+1048160140
881+1048120556+1048224914+1045656685+1042288196+1040917142+1039859163
870+1036693878+1032476510+1029565881+1027923479+1025433883+1022103523
858+1020517550+1020733004+1020337775+1019380938+1019624952+1020573366
847+1019991853+1017133977+1013972827+1012782007+1012864085+1012481565
835+1012200111+1013005501+1014457868+1015281327+1014147089+1011064954
824+1008489069+1008241304+1008121249+1007465238+1008150727+1007597390
812+1005554858+1006075425+1006620646+1004763862+1004637376+1006835412
800+1008233570+1007415777+1003661322+998834494+996037258+993911270+990565904
787+987934279+986892072+984889125+979697617+974632288+974282384+975476573
773+973898946+971769436+970521345+967987341+962946743+957361306+954514839
760+954640789+954401599+950307730+944302716+941654629+940231587+935439137
746+930305895+927666613+925441703+922879216+921669026+920213749+915539822
733+909829890+904959037+899874567+896155639+894114409+889442013+882049406
719+878587278+880677663+881696593+878700594+876240322+876453633+876737231
706+876384035+876323089+876431812+876226004+875658885+875832382+876642979
692+875340374+872210309+871853668+874782443+877363458+880022494+883131503
679+882903568+880892964+883199340+888353408+888221256+881880197+881960054
665+889256495+891375056+888608064+886102925+886280556+886349235+884546276
652+884888293+886659937+883714394+876257549+871638902+873654943+877194632
638+877795133+877726990+878938636+878937793+877409933+877346844+876408153
625+870332469+861861823+857460851+858018782+857737558+852660745+847463724
611+849071365+852392307+849721480+845502887+843628416+844408310+847875798
##END=
