##TITLE=Sample description
##JCAMP-DX=4.24
##DATA TYPE=INFRARED SPECTRUM
##DATE=12/9/2023
##SAMPLING PROCEDURE=Instrument type and / or accessory
##ORIGIN=Default
##XUNITS=1/CM
##YUNITS=ABSORBANCE
##RESOLUTION=4
##FIRSTX=4397.6552
##LASTX=599.8556
##DELTAX=-1.9287962
##MAXY=1.7229384
##MINY=0.18166436
##XFACTOR=1
##YFACTOR=1.6046114e-009
##NPOINTS=1970
##FIRSTY=0.22328202
##XYDATA=(X++(Y..Y))
4398+139150213+137598510+136939497+137612375+138452651+138420910+137734826
4384+137553694+138184050+138629679+138670660+138105486+137531871+138632288
4371+140271980+140186619+139213565+139108860+139536567+139426754+139198205
4357+139204957+138490113+137399966+137182347+137603181+137955928+137940735
4344+137810242+138313103+139221626+139381446+138848552+138649004+138771010
4330+138541894+137913851+137920834+139124666+139930164+139395487+139022357
4317+139679894+140207792+139647382+138650973+138174373+138172079+138047102
4303+137701766+137562061+137968557+138634842+138735396+138231921+137851427
4290+137738587+137676517+138164260+139705190+141090740+141067291+140347758
4276+139632654+138766831+138300028+138938268+139831403+139544544+138282012
4263+137319926+137048529+137380752+138168430+138259456+137385015+137169485
4249+137962967+138584500+138663955+138680699+138941964+138899265+138101084
4236+137499099+138145371+139367590+139646974+138991154+138603343+138687729
4222+138676446+138482442+138372082+138316196+138254506+138641278+139602575
4209+140388247+140637375+140788419+140698600+140194578+140255330+140839337
4195+140489367+139428315+139106028+139355314+139251909+138847261+138259047
4182+137777312+138077432+138639420+138592310+138280025+138204693+138325473
4168+138668338+139170532+139296521+138896061+138478272+138342764+138506903
4155+138899618+139094411+138576208+137789226+137691598+137931551+137658278
4141+137451859+137984326+138460377+138307160+137980750+137715241+137576891
4128+137622897+137705713+137736971+137830560+138040490+137823131+137110637
4114+136863171+137358158+137874513+137794780+137317483+137241855+137684921
4101+137817439+137456688+137333995+137403188+137286002+137441003+137884450
4087+137770783+137075265+136782565+137147560+137462371+137321802+137060118
4074+137020261+136692198+135934172+135874497+136445568+136215181+135493325
4060+135678841+136553839+137092909+136976856+136376858+135820181+135588094
4047+135606834+136194769+137213596+137902493+137809759+136864676+135920902
4033+135945288+136429809+136660624+136674656+136450964+136194927+136075837
4020+135803828+135552341+135678999+136100196+136425407+136493115+136889953
4006+137555737+137543990+136904932+136355285+136077304+135784883+135167714
3993+134815154+135491143+136496161+137016621+136974469+136238796+135320764
3979+134900803+134804744+134830021+135239183+135821945+135730752+134979292
3966+134176412+133710149+134027950+134527933+134296626+133758512+133507276
3952+133416538+133434610+133988538+134233673+133308862+133072317+134353700
3939+135274388+134671864+132916240+132032902+133400826+134462807+132872928
3925+130892051+130969825+131148404+130280241+130821047+133662825+135806678
3912+135579996+134083492+131133397+126528455+123476069+123943299+126938350
3898+131342017+133231023+130104652+126828370+128179393+128749553+126988868
3885+127233622+127387443+127957483+130943313+130724774+127497135+125300571
3871+124287260+125597534+126542849+125540218+127358126+131024866+130982696
3858+125472501+116011027+113213927+123587618+131989525+133631715+130544533
3844+125593122+121258964+118558693+119757687+123954517+126390439+127933441
3831+130269747+131452359+131229921+128664991+122778554+120982014+124397639
3817+126299460+129912311+134254289+134252032+130313941+126936873+125768599
3804+122854053+122560722+127771401+130819088+132763329+135829672+137420953
3790+137331525+136276963+134961787+134624976+134045715+133170828+135186779
3777+138633551+139318056+136796708+134758079+136432084+139127480+141196039
3763+141969759+139989310+138858117+140637597+140064818+134423042+130247004
3750+134764561+138347983+137769604+142762665+150063708+150829200+146484455
3736+144174708+150074295+160927251+169439946+173260303+175712244+180277635
3723+186578332+193478116+200002059+204606119+205823463+205890474+212595614
3709+226829103+241765743+254067518+264906229+277493172+290162561+299392318
3696+304468985+303416643+295349903+286142210+282639450+281332270+276752614
3682+268566915+258781437+248431379+241279764+242434294+243607416+242258483
3669+245912817+251432132+253821092+254465647+254429281+252791948+250934508
3655+250390080+246434809+238194003+236551451+245857191+254276872+257117656
3642+256865900+256392402+256356593+256155932+254863312+251063998+247045486
3628+250240642+256365954+257930388+255228697+251662306+252114780+254882646
3615+255793611+255936437+256109425+256683384+259309985+261820933+261733417
3601+260664545+260505283+260805811+261564905+263057313+262914673+260028813
3588+259383831+263464209+267063251+268323220+268649750+268506627+268142951
3574+268128873+267470332+264447107+260930918+261771696+265430617+267401055
3561+268194472+269157757+269551874+268972752+268484934+268649694+268128668
3547+266988402+267413499+269371661+270868527+271066942+270627339+270401437
3534+270172284+269317744+268178908+267629224+267525011+267402838+267470295
3520+267527481+267274258+266996184+266547054+265511335+264770015+265251426
3507+265488435+264508490+264199567+265241378+265754046+265127173+264478012
3493+264135936+263382302+262280260+261769337+261862462+261734531+261428357
3480+261404026+261356350+260854528+260132691+259701298+259604199+259692012
3466+259871946+259785972+259308239+258915032+258967705+259095301+258770739
3453+258212715+257698301+257047915+256655785+256876357+257147540+257295863
3439+257466734+257457578+257291461+257017381+256455550+255703031+255340005
3426+255528538+255520849+255134885+255010614+255244781+255395779+255172960
3412+254789466+254626154+254707912+254906550+255232152+255438274+254999804
3399+254462935+254699592+255018229+254749516+254333445+254192328+254483923
3385+255085314+255663285+255946838+255915654+255810382+255752491+255695342
3372+255744486+256261741+257101906+257362206+256909268+256628278+256938502
3358+257499162+257978195+258597491+259517296+260271004+260705629+261194431
3345+261811330+262275598+262404902+262329552+262376319+262855816+263614390
3331+264172525+264430280+264579624+264674885+264626131+264763385+265466909
3318+266098871+266026604+265515923+264965551+264743345+264863103+265027715
3304+265361303+265646193+265509793+265729697+266643392+267012417+266369330
3291+265571028+265000877+264860856+265316561+265816377+266047089+266009962
3277+265708078+265758875+266481250+267085724+267011693+266840543+267104576
3264+267209977+266466986+265368695+264795275+264859983+265133135+265189968
3250+264853334+264209540+263737510+263848743+264350973+265029591+265320461
3237+264801088+264500894+264707778+264343860+263856395+264267079+265029646
3223+265587131+266001084+265991686+265484014+265102972+265144984+264824991
3210+263833290+263209017+263173134+262843391+262183866+261574154+260994921
3196+260476272+259993654+259662592+259558881+259127543+258106534+257096817
3183+256415767+255710014+255112282+254953836+254740824+253998260+252923927
3169+252069647+251579619+250867088+249880847+249305142+249153587+248939367
3156+248701188+248436542+247918822+247463043+247263142+247000930+246578062
3142+246093011+245525423+244673074+243397727+242177969+241508248+240862487
3129+239756060+238720137+238147125+237775147+237245652+236262903+234844730
3115+233441360+232455379+231794908+230884017+229404108+227750041+226274032
3102+224873226+223363916+221734012+220287274+219428964+219045247+218435702
3088+217199953+215769281+214763984+214210084+213663613+212994635+212429703
3075+211865921+211064500+210344706+210087379+209971223+209655558+209281518
3061+208884578+208496682+208321929+208319534+208365483+208245112+207591772
3047+206721297+206346402+206276364+205795362+204906406+204152011+203608939
3034+202933999+202097159+201403888+200951748+200490379+199817742+198986566
3020+198217462+197700614+197321002+196823805+196123476+195208945+194118492
3007+193088531+192476219+192277173+192006435+191406771+190652432+190033582
2993+189913954+190342580+190920031+191303320+191398636+191332442+191284561
2980+191291842+191378020+191549597+191736292+191809525+191516314+190848822
2966+190124478+189503195+189062200+188782046+188462220+188128725+187921878
2953+187647965+187112526+186647794+186548578+186547928+186373119+186086484
2939+185855548+185704179+185508754+185129662+184552732+184033879+183722801
2926+183414917+183012628+182440062+181452837+180288593+179358146+178550688
2912+177952844+177911928+178163888+178169256+178054698+178186491+178264312
2899+177951915+177470190+177152630+177130844+177274152+177423144+177496767
2885+177380538+177161415+177141635+177365141+177600441+177686378+177559841
2872+177374520+177378904+177511124+177606143+177635656+177523680+177204318
2858+176757621+176282730+175843239+175326614+174626638+174036502+173705310
2845+173384630+173026971+172833943+172922777+173234913+173616141+173909110
2831+174102733+174257576+174273753+174029129+173597513+173185287+172948630
2818+172880356+172769179+172531297+172454461+172587016+172594166+172526189
2804+172729990+173112871+173414514+173656946+173811881+173784393+173680125
2791+173687257+173797673+173820369+173761400+173774828+173805956+173735361
2777+173613355+173498333+173356343+173209153+173049296+172785282+172563372
2764+172615432+172733259+172661846+172569130+172570504+172527508+172430762
2750+172473739+172688405+172837119+172697376+172276774+171907080+171845195
2737+171947587+172049608+172121875+172126946+172017180+171857378+171833661
2723+171940306+171991716+171969967+171900393+171734166+171618642+171703817
2710+171855335+171910590+171872961+171807510+171724823+171620221+171445635
2696+171274690+171380779+171618363+171591600+171428010+171451226+171640168
2683+171804111+171833141+171650606+171332433+171094533+170923532+170722257
2669+170583313+170555249+170510192+170350390+170076922+169754608+169529448
2656+169399289+169180482+168823046+168493897+168401125+168461394+168319813
2642+167898839+167498054+167254451+167038077+166804801+166572955+166326734
2629+166072025+165811242+165556923+165286985+165011325+164830388+164693283
2615+164439186+164097315+163781426+163474379+163153829+162850942+162573332
2602+162372243+162260211+162176169+162177692+162264446+162191473+161913065
2588+161659693+161498183+161440421+161494988+161544727+161553512+161488413
2575+161362025+161347649+161409200+161333794+161117549+160886094+160664983
2561+160433750+160194531+159971563+159817538+159714922+159578059+159358489
2548+159125529+158982183+158842348+158630840+158472338+158364244+158180929
2534+157991838+157918327+157890913+157760197+157520773+157309060+157208748
2521+157175651+157097181+156972240+156900976+156844533+156734860+156591904
2507+156457659+156429911+156532211+156628660+156590493+156430283+156327704
2494+156466890+156777225+157060685+157308373+157590626+157871671+158103146
2480+158248070+158298310+158372564+158489982+158491895+158422526+158440709
2467+158560262+158760051+158971355+159124452+159233884+159267872+159176623
2453+159039054+159039982+159266312+159549883+159726029+159878866+160053655
2440+160194159+160350488+160471527+160451933+160431484+160503139+160528676
2426+160469410+160448516+160541380+160703893+160860630+161026672+161227501
2413+161356360+161331119+161282551+161357122+161524556+161707203+161877832
2399+162096881+162415797+162658619+162698309+162691976+162721358+162711645
2386+162468748+161525726+159453230+156259802+152379445+148334996+144189297
2372+139691892+134983517+130452486+126437893+123318683+121395178+121036628
2359+122419790+125390882+129958307+136277391+142814585+145952258+143898547
2345+138946514+135387209+134374715+134742320+135755844+136869727+137739145
2332+138576403+140024273+141962339+143615050+144914282+146532736+148867872
2318+151534461+153843121+155492137+156841561+158405513+160115355+161624757
2305+162854173+163835585+164624321+165298221+165872180+166363768+166787119
2291+167156665+167546195+167965980+168311436+168507362+168547721+168489569
2278+168475249+168566275+168653048+168692961+168743071+168791918+168865281
2264+169011988+169170657+169312145+169454098+169529058+169492247+169426276
2251+169443604+169573243+169673667+169640273+169650767+169789061+169862609
2237+169807801+169766235+169837369+170011564+170256058+170507034+170641892
2224+170622149+170566802+170553689+170510433+170441583+170447434+170516023
2210+170587492+170637880+170682715+170752977+170774131+170701177+170688733
2197+170850373+171084243+171238993+171257640+171194474+171169066+171244101
2183+171363004+171470764+171589167+171696054+171722576+171672262+171616023
2170+171661546+171806470+171910534+171981018+172046562+172039412+172080476
2156+172255916+172417333+172493817+172540788+172585307+172623679+172678116
2143+172765149+172808275+172751887+172735135+172852237+172978644+173096322
2129+173269515+173368341+173317210+173274901+173362435+173520751+173649628
2116+173773584+173996087+174250072+174389350+174456324+174547313+174676246
2102+174847916+175098353+175427038+175776358+176151438+176588682+177102929
2089+177735838+178474316+179234246+180051826+181056806+182206322+183352810
2075+184486185+185711608+187084982+188548974+190075000+191811921+193925612
2062+196311564+198774371+201322111+204053389+206980946+210007942+213029125
2048+216010005+218953794+221787298+224545154+227466897+230436744+233143209
2035+235624644+237917527+239837094+241201349+241999484+242323340+242106352
2021+241141508+239453730+237509331+235736249+234008428+232090514+230109619
2008+228206378+226371819+224726574+223359997+222183458+221188859+220229977
1994+218986984+217913822+217750362+218118533+218440197+218697023+218965811
1981+219309057+219707520+220183581+220802246+221591558+222410976+223002004
1967+223797779+225404541+227374812+229196482+230983197+232746918+234507019
1954+236464642+238566502+240506797+242097846+243298381+244330905+246114556
1940+248836176+251229204+252697301+253617738+254424044+255221305+255757450
1927+255682173+254872078+254014901+253405690+252604770+252461127+253181051
1913+253143942+251953269+250784531+250418403+250362610+249971762+249335936
1900+248621882+247611570+246555886+246043607+245486160+244838113+245464262
1886+246867966+247859352+248689803+249528333+250247867+250927338+251468070
1873+250978247+248803228+247103044+248629738+251531144+253210248+253679901
1859+253645857+253465755+253252594+252937597+252267096+250869447+248411766
1846+245289342+244128200+245832396+246935535+246261523+245266888+244039868
1832+241182944+237732671+236503236+236541719+236688185+237480488+237753509
1819+236888550+235716153+234315049+232158398+230144648+229699548+230025521
1805+229438524+227401056+225085366+224461631+224966945+223976934+221286553
1792+220823066+224073438+226693688+227030916+226543507+226016686+226096977
1778+226845298+226065533+222621612+219829544+221799909+226108808+229359533
1765+230130124+229025016+229004493+230137553+231039213+231819015+230749308
1751+227665126+226597108+229005961+231775128+232998563+233096795+233798072
1738+234412947+232241289+230780232+234998755+240212991+244100081+246428698
1724+247168513+246640374+243265488+237821895+237358426+243608029+249854622
1711+253068109+252872350+250779554+249707246+248441223+245309754+245063031
1697+249157358+256055248+263433099+266712204+266752638+264613223+259833091
1684+259663056+268138400+275375506+277841192+277963104+279414077+280881393
1670+282031261+287550911+294161775+296875520+299187292+304451824+308652684
1657+307404862+300988921+300976106+310975822+315155398+317336305+326263008
1643+335769818+340299048+340162611+336985564+338146966+347426741+354840977
1630+357366783+358397766+359730670+361586773+365495668+368747266+368775460
1616+370805480+377370376+382628556+385262791+387561227+390808702+394421656
1603+398163913+402405894+406774134+410921133+415543859+420944828+426380750
1589+431684322+437290447+443522925+450595308+457936144+463146554+465917485
1576+472312885+482364513+488754155+494030054+503476947+514184088+522858348
1562+526723410+525150618+532636323+553757189+571938816+586330676+599079240
1549+611362888+621301518+627663115+631535272+637620281+655981174+675919726
1535+687875338+699524794+714893293+727529714+736426515+744003673+749890323
1522+757771482+771141682+785262823+799289836+813471822+824339210+829692297
1508+831727667+843729266+867081743+883238922+890155478+893393481+900896941
1495+912454276+919121509+920254903+924200163+935249788+945926395+951553544
1481+954391264+956893259+958433549+957320733+955770637+959426308+966322954
1468+968772871+965985744+964976937+967072260+965763686+958441126+955292199
1454+962285201+968284775+967997117+963724825+961054485+961004115+959496588
1441+954704032+947391353+938219970+930926160+927619215+925169818+921207842
1427+916656511+915719544+919438660+921670011+921029468+925385412+934143659
1414+940438319+943986565+947570767+950989745+952352923+952763979+954646233
1400+957131364+958695204+959624147+962487720+967972973+971726411+972096235
1387+972181745+974406633+977214784+978443569+978832485+979970560+982131482
1373+985595183+988942395+989443047+987903649+986525464+985329665+985849707
1360+989052124+992031072+992515157+990778514+988200816+986147022+984659554
1346+981863066+977293682+972194969+967584204+965172399+965017501+965119057
1333+964936226+964919139+964671970+964394565+965891691+968590857+970162794
1319+971993490+975940904+979714848+981754080+984259419+988033659+991155396
1306+993764520+997256006+1000711907+1002381018+1002341198+1002460288+1003781640
1292+1005478833+1007692205+1012663136+1020299950+1026666450+1030510228
1281+1034593299+1039764446+1044332865+1047912461+1051293550+1054302363
1269+1056444490+1057500397+1057165416+1055952456+1056728358+1060866702
1258+1063148646+1061011200+1060092434+1062962099+1066399130+1067992092
1246+1068258948+1068933888+1069934003+1069686166+1068598684+1069202007
1234+1071891291+1073741823+1073360930+1071724581+1069900274+1069205944
1223+1069572871+1068854990+1066539318+1064444961+1061944229+1058398361
1211+1057057545+1058475253+1058971001+1057396463+1055799044+1054873666
1200+1053544885+1051700668+1050150275+1049431503+1049794715+1051084345
1188+1051769165+1050117884+1047074599+1044709895+1043023400+1041198276
1177+1039297449+1037136452+1035546239+1035321358+1034561725+1032869955
1165+1031341849+1029474899+1027194070+1025018661+1024055321+1024786945
1153+1024581231+1022108878+1019619215+1018235384+1017963774+1018154555
1142+1017066999+1015839329+1017217885+1019778720+1019224949+1016569170
1130+1016286862+1016764632+1015127317+1014324967+1016180848+1017003034
1119+1015186528+1013442010+1011398172+1008425836+1007960993+1011083249
1107+1013845637+1013334436+1012071106+1013635466+1017242847+1018742574
1096+1016708096+1015135341+1016867526+1020303739+1023881924+1026105697
1084+1026273819+1028357478+1033866429+1038215910+1038962913+1038926882
1072+1041019901+1042799336+1041855311+1040971612+1041860066+1045282313
1061+1051584179+1055367409+1052905977+1050348931+1051950289+1052815044
1049+1049690335+1047873012+1052203177+1059897344+1065099545+1063909095
1038+1058768185+1056539509+1057224924+1056972258+1055131236+1051426012
1026+1046951052+1043188476+1040407292+1039705904+1041212985+1042382931
1015+1040543840+1036483651+1032800566+1030617802+1030848404+1034196136
1003+1039026730+1042604246+1044348317+1044834779+1043021468+1039099536
991+1036341085+1038037462+1044734411+1052100952+1055510718+1057008735
980+1059473659+1060453418+1057799570+1054542103+1053343109+1052790230
968+1053762337+1057881142+1061033041+1060888321+1059812355+1058083959
957+1057373582+1060519463+1064416656+1065276063+1064465094+1063710142
945+1062860766+1061611477+1061055255+1062048832+1062192438+1059936422
934+1058522354+1060384475+1062593910+1062928148+1063514830+1063456065
922+1060469910+1057920517+1058157879+1058642186+1057437695+1055368895
910+1055198692+1057148849+1057602771+1056742177+1058016502+1061077022
899+1062764112+1061376938+1057935004+1054552429+1053037622+1054189291
887+1056316485+1057269276+1057079981+1055418224+1051287830+1045734897
876+1041108011+1039371963+1039450192+1037006367+1030963482+1025624361
864+1023419755+1021586682+1019132456+1019146126+1021756884+1023354527
853+1021085808+1017047312+1016415089+1017972392+1017039659+1015847055
841+1018166070+1021577990+1021730214+1018454768+1015225234+1014360553
829+1013642152+1010604291+1008516917+1011793552+1018328546+1021769440
818+1021059731+1019379550+1017558661+1016840038+1017473226+1016230029
806+1012320800+1008485566+1005709657+1003058707+1001135815+1000548837
795+1000470831+1000477442+999538693+995287500+989313928+987504554+988916319
781+987133096+982649221+979290048+977416857+975378294+971838740+967909230
768+964832663+961997247+959962620+959596214+959090139+955989575+949062098
754+941959813+940403254+941516960+940345603+938312166+936124350+932997264
741+929589356+927367812+927201993+927369075+924808166+918835783+913509738
727+910896379+906339253+898605117+893424906+893202180+893727125+891854528
714+889804152+890182445+891697476+892024954+891605428+891886177+892263133
700+891437232+890497888+890351533+889454981+888389267+888345955+887526889
687+886235105+886484205+887476594+888582202+891801261+897429971+901778560
673+901336079+894516177+885185141+888942591+903675896+910718005+910138381
660+909920781+910951429+908179829+903890004+905193898+910086822+911071187
646+909569678+911920861+915650007+911918410+900432469+891687521+893959880
633+903560224+909398064+906242525+898850131+896281941+899949573+897382944
619+882434417+870534895+873684045+881213136+879089211+870585859+866507468
606+869165253+873288070+878749326+884551804
##END=
