##TITLE=Sample description
##JCAMP-DX=4.24
##DATA TYPE=INFRARED SPECTRUM
##DATE=12/9/2023
##SAMPLING PROCEDURE=Instrument type and / or accessory
##ORIGIN=Default
##XUNITS=1/CM
##YUNITS=ABSORBANCE
##RESOLUTION=4
##FIRSTX=4397.6552
##LASTX=599.8556
##DELTAX=-1.9287962
##MAXY=1.7722087
##MINY=0.25074822
##XFACTOR=1
##YFACTOR=1.650498e-009
##NPOINTS=1970
##FIRSTY=0.27138218
##XYDATA=(X++(Y..Y))
4398+164424428+163962342+164209446+164718461+165031598+165698210+166112337
4384+165424111+164218023+163789378+164608099+164898683+163941956+163633099
4371+164433077+165308748+166147223+167031633+167358439+166730287+165407265
4357+163844397+162775322+162818585+163533896+164457742+165500184+165638298
4344+164808166+164865261+166224017+167126520+166797476+166367747+166156413
4330+165325504+164221129+164054774+164826385+165234355+164713170+164306338
4317+164958595+165924332+166006056+165474182+165317993+165845389+166350431
4303+166186748+165818756+165736634+165916333+166324610+166665952+166467979
4290+165780494+165349285+166037782+167521020+168124182+167189628+165675332
4276+164553424+164293644+164631735+165055848+165372163+165310536+164755152
4263+164198414+164442448+165494117+166266324+166298573+166011961+165395943
4249+164970928+165241722+164864502+163782625+163966116+164964644+164838609
4236+164045691+164081028+164689733+165173667+165851402+166553730+166784998
4222+166640456+166112193+165661880+165898421+165927763+165304396+165487147
4209+166542625+167194756+167465352+167135097+166013785+165355370+165585447
4195+165653195+165083781+164679152+164986131+165676921+166251698+166084061
4182+165550254+165678799+166108943+166183607+165910465+165258912+164783392
4168+165384513+166696774+167347515+166747170+165529742+164561640+164206431
4155+164300794+164551239+164922789+165429799+165540016+164798794+164005804
4141+164222158+165274765+166201898+166289960+165749527+165526384+165756172
4128+165499407+164607612+163940006+163851060+164052769+164380821+164840469
4114+165161334+165006156+164463087+164071169+164323076+164854282+164902096
4101+164374574+163858481+163907866+164220190+164302492+164414677+164775790
4087+165007655+164728049+164222826+163997246+163975253+164159068+164557775
4074+164333856+163258515+162589953+162910078+163099329+162599559+162493766
4060+163291162+164185738+164508300+163988326+162870137+162004487+161806118
4047+161933073+162041214+162450466+163410263+163995873+163691819+163306961
4033+163248097+163362377+163465389+163136615+162420889+162210115+162708260
4020+162993914+163060453+163494424+163885493+163831179+163585014+163314346
4006+162821745+162178949+161811372+161681256+161586766+161694257+161986828
3993+162178895+162321091+162644484+162884726+162411789+161408801+160975173
3979+161228687+161334155+161094996+160821764+160966216+161666631+162465706
3966+162760299+162399691+162215261+162429936+162150926+161496177+161248802
3952+161410408+161644854+161909726+161719392+160916940+160834620+161526024
3939+161612335+161119156+160752030+161089904+162167267+162550012+161330183
3925+160075486+160079224+160158492+160149012+161186597+162585800+162782598
3912+161893584+160790346+159019087+156644432+155907706+157244091+159088984
3898+160929255+161434730+159909294+158783322+159617915+159528354+158633850
3885+159062007+158711728+158100008+159003504+158623756+157273992+156692083
3871+156238683+156885830+157436555+157024450+158332685+160378385+160093326
3858+156931748+152024082+151922767+158900780+162807986+162061907+159303568
3844+156767343+155041009+153918270+154860787+157492513+158837420+159318392
3831+160385084+161157905+160978621+159212437+156024117+155719466+157855991
3817+158835957+160857769+162716403+161803012+159108918+157716667+157981593
3804+156721371+156791954+159780153+160891336+161467322+163199109+164033196
3790+163569576+162502054+161763323+162237687+162521392+162192203+163462284
3777+165424761+165420879+163690320+162948502+164590602+166423632+167608197
3763+167710108+166367097+166475906+168471265+168368848+165389262+164421882
3750+168581157+171164853+171571198+175460762+179507888+179357730+177280593
3736+177266383+181194769+187281998+192205336+194987618+197718294+201501307
3723+205690899+210510540+215784320+220363375+223136321+225573813+232171970
3709+242711767+253552242+263730114+274574579+287395137+299512482+308349058
3696+313935578+315875611+313974363+310291655+307317811+303736833+297545725
3682+290069224+283501943+277769887+273344404+271881533+269953832+267449658
3669+268670354+270729976+270841403+270856119+271512060+271232959+270017066
3655+269449946+267741885+264124975+263909524+268899004+272910847+274112620
3642+274278813+274544786+274530268+274005870+273055499+271159559+269661280
3628+272538015+276112385+276121702+273946048+272138351+272792902+274469869
3615+275260620+275813585+276212996+276674503+278004713+278829175+278282368
3601+277887074+278232243+278240766+278183256+278822873+278934806+277613661
3588+277340303+279942832+282679069+283569222+282954432+281947688+281404764
3574+281727308+282244574+281630759+280575137+281360236+282983323+283542047
3561+283596740+283826654+283958106+283610842+283025900+282886666+283253665
3547+283684766+284094126+284638839+284820759+284205626+283277193+282508904
3534+282094542+281949079+281643255+281270657+281021134+280682754+280547636
3520+280843909+281165207+281250398+280854670+279798217+278748210+278378483
3507+278156803+277773914+277844262+277927755+277290882+276665782+276539278
3493+276354198+275875482+275348610+274930727+274660637+274602567+274597312
3480+274130911+273238141+272653939+272768201+273292274+273420693+272709174
3466+271731700+271072996+270968864+271275771+271301971+270729705+269973622
3453+269522190+269338880+269219526+269142154+268989558+268993566+269368312
3439+269565111+269166367+268488921+268098502+268110907+268157042+268012986
3426+267577968+267043927+267040460+267463290+267519717+267208025+267158477
3412+267471524+267574754+267087118+266268126+265802971+265987943+266054535
3399+265634991+265508613+265774695+265869907+266037219+266606344+267103062
3385+267109562+266796118+266541972+266538975+266548978+266461187+266607391
3372+266949346+267121136+267159832+267271187+267607255+268233547+268952957
3358+269675544+270396146+271022402+271617239+272079180+272137521+272088642
3345+272456328+272862817+272956801+273413903+274394971+275106706+275192439
3331+275134369+275504294+276399376+277384289+277912371+278163032+278260773
3318+277846176+277324359+277058819+276714986+276180765+275644196+275447488
3304+275360347+274830423+274628857+275588509+276812582+277356879+277514477
3291+277717108+278033224+278643427+279458573+280022245+280216515+280053880
3277+279634444+279331491+279471772+280121231+280592020+280110072+279201303
3264+278986213+279480999+279688559+279368741+279179509+279204102+279304749
3250+279532785+279217157+278065058+277305960+277539720+277975605+278286521
3237+278647255+278884663+278572519+278086581+278458384+279109395+279118098
3223+279375946+280076234+280124517+279521861+278975939+278565152+278199164
3210+278060598+278360174+278884212+278779574+277650569+276190443+275308019
3196+275162736+274992155+274454304+274120240+274061646+273530188+272312724
3183+271050082+270217458+269926477+269846721+269462314+268940696+268541267
3169+268007443+267163371+266180733+265301721+264679149+264380638+264413519
3156+264615228+264616763+264148340+263261654+262500046+262326469+262332102
3142+262081080+261682987+261019191+259897120+258876527+258418866+258015771
3129+257414505+256863943+256399618+255973285+255176358+253806100+252421540
3115+251105289+249679994+248507816+247444303+246200729+245071128+243987157
3102+242685170+241199368+239629801+238200859+237074707+236162128+235359604
3088+234678203+233978494+233147332+232484800+232144867+231670377+230715690
3075+229825267+229462475+229080596+228422344+228045901+228006845+227640964
3061+226834071+226437079+226781436+227113893+227022256+226644676+226078765
3047+225535334+225061133+224586498+224283184+224053053+223500522+222637816
3034+221781537+221127926+220736495+220342230+219638945+218797022+218130590
3020+217825109+217798963+217664370+217227437+216526499+215643136+214870333
3007+214407977+213874947+212824560+211587433+210807227+210408502+209953585
2993+209736509+210230934+210976110+211379476+211608090+211833616+211935907
2980+211965014+211955011+212013785+212284128+212325044+211807922+211201618
2966+210899514+210746376+210454456+209918284+209335906+209015528+208930103
2953+208806289+208615341+208496962+208383765+208144750+207905320+207782843
2939+207607116+207311025+206998989+206572692+206035708+205563167+205083206
2926+204640802+204272683+203538683+202407566+201597476+201404488+201289070
2912+200903472+200623469+200711964+200798889+200597287+200316544+200045912
2899+199760293+199622305+199558782+199452140+199476390+199628498+199693087
2885+199679923+199726708+199762586+199733064+199856210+200160228+200258943
2872+200015288+199778097+199735177+199698052+199560877+199499593+199520574
2858+199278111+198733471+198226713+197783876+197122735+196285885+195780518
2845+195771490+195882122+196045282+196381079+196650610+196674246+196577228
2831+196476978+196513308+196729318+196777547+196512549+196222958+196038998
2818+195976251+195963738+195803017+195614867+195652064+195795433+195855958
2804+195924032+196094847+196311742+196514463+196685351+196843364+197075553
2791+197372276+197490222+197355538+197170874+196978192+196680710+196417698
2777+196457350+196565527+196315281+195935263+195773711+195760891+195877825
2764+196121101+196211907+196001928+195711091+195634657+195891367+196247389
2750+196342023+196165935+195983203+195865853+195730953+195705619+195839545
2737+195897814+195765549+195575396+195529261+195627073+195680376+195650565
2723+195569726+195365723+195120298+195064052+195143645+195198718+195286166
2710+195398929+195527221+195694731+195716905+195608565+195610841+195664613
2696+195660063+195671529+195702387+195770587+195932284+196088635+196116081
2683+196029193+195918723+195858396+195878439+195914137+195799676+195526119
2669+195272930+195058129+194821299+194624609+194409989+194085187+193811396
2656+193721149+193659504+193509923+193422818+193410450+193215493+192825164
2642+192532810+192462083+192420679+192273012+192063719+191761723+191384268
2629+191037167+190732300+190464214+190197212+189930643+189720699+189514908
2615+189286673+189114992+189052263+189016006+188805448+188365211+187849425
2602+187452036+187264085+187216181+187281023+187441979+187551582+187561260
2588+187472386+187242544+186978647+186842501+186840171+186806315+186660798
2575+186589420+186675387+186690194+186451576+186075494+185807571+185702644
2561+185610790+185431416+185192925+185018228+184964582+184864007+184622248
2548+184407826+184320811+184245425+184061013+183792874+183532588+183347707
2534+183321435+183396261+183285069+182929102+182598793+182370558+182170347
2521+182084325+182136653+182198605+182175348+182003414+181709832+181484883
2507+181421685+181407565+181371813+181370531+181478004+181659852+181737621
2494+181648982+181613591+181813892+182166555+182507679+182770709+182984228
2480+183136156+183186805+183217880+183239476+183164379+183086465+183107175
2467+183202297+183317986+183356392+183404350+183592103+183710662+183648186
2453+183621806+183772433+184013109+184130892+184131019+184244902+184484079
2440+184695106+184782229+184759134+184798751+184989933+185187093+185238663
2426+185201015+185263003+185459856+185639843+185651454+185473849+185279922
2413+185300109+185586125+185912714+186075458+186170905+186311963+186477758
2399+186643499+186766862+186849904+186982006+187183589+187335589+187375206
2386+187304297+186943563+185924866+183967318+181242239+178247305+175213098
2372+172058003+168775897+165572554+162734983+160421342+158838413+158445394
2359+159559700+162171023+166047063+170971810+175692500+177716858+176027359
2345+172292756+169488481+168601308+168889022+169730331+170618136+171304358
2332+172072719+173288810+174758976+176117209+177346391+178736656+180560315
2318+182616922+184381445+185667181+186750629+187845019+188860340+189734422
2305+190488139+191106667+191622940+192026179+192329548+192666465+193046483
2291+193361607+193571857+193744785+193967495+194187026+194322559+194388140
2278+194415207+194457604+194478911+194396789+194296738+194247335+194237874
2264+194300620+194453343+194658122+194794630+194853187+194983050+195160185
2251+195244798+195225405+195175876+195228385+195387571+195421626+195318884
2237+195298986+195349562+195377622+195399994+195426555+195503585+195647983
2224+195713095+195663638+195693883+195830463+195916159+195884524+195804569
2210+195802872+195859209+195907781+196009078+196127240+196170197+196214634
2197+196367970+196583060+196715343+196722042+196705718+196697412+196675438
2183+196751510+196936608+197021582+196962880+196938269+197006884+197084978
2170+197124089+197154767+197246386+197435276+197632526+197696356+197683409
2156+197739998+197834019+197931958+198064999+198158568+198159344+198154884
2143+198245257+198385683+198432233+198416632+198462008+198491856+198483207
2129+198593478+198806365+198956866+199013004+199044585+199098322+199193245
2116+199330691+199494699+199623045+199675138+199721634+199808053+199947233
2102+200169076+200394747+200523508+200611678+200818895+201211283+201688680
2089+202140022+202617221+203198263+203738732+204140382+204595227+205267834
2075+206121567+207079522+208134765+209293581+210549253+211986989+213697722
2062+215556338+217455708+219595212+222137233+224984212+228066305+231445284
2048+235147006+239130248+243388004+247850973+252243503+256339833+260205346
2035+263848041+267027929+269648333+271777148+273320569+274183510+274460426
2021+274225329+273485245+272371516+271055644+269510923+267625763+265491532
2008+263345220+261206835+259014660+256948917+255095555+253316550+251557227
1994+249832843+248264035+247031024+246016678+245014413+244073431+243304745
1981+242659331+242040280+241464366+240967756+240565889+240243291+239937900
1967+239794549+239963342+240221388+240473710+240848258+241260525+241677903
1954+242196072+242805932+243501164+244211058+244740007+245210724+246246827
1940+247877389+249381609+250583057+251676400+252703692+253704857+254708422
1927+255573151+256239601+256968978+257672136+258228026+259142067+260266594
1913+260877303+261018776+261214220+261683836+262240212+262694841+263028707
1900+263253276+263308710+263331046+263512297+263577066+263644742+264331668
1886+265335324+266094296+266684005+267302388+267971835+268632615+269222108
1873+269354372+268766487+268468626+269544436+271007451+271790781+272054894
1859+272166809+272224662+272239486+272166718+271876242+271240832+270133838
1846+268789401+268327839+268854404+268901333+268318558+267867757+267379183
1832+266055980+264372151+263612981+263380358+263235635+263410260+263334801
1819+262764936+262057913+261217471+260074003+259079736+258727579+258516046
1805+257919511+256956862+256027129+255772460+255891344+255315412+254136914
1792+254084008+255476386+256470075+256611331+256430982+256221075+256357257
1778+256724997+256364498+255046134+254312135+255690898+257926969+259487886
1765+259813537+259573944+260051667+260858506+261525678+262183840+262060676
1751+261225343+261254270+262634929+264187523+265116731+265570692+266352505
1738+266984755+266453098+266807422+269510417+272106500+274176089+275609979
1724+276336467+276445853+275306628+273750098+274861588+278453851+281543185
1711+283307745+283677020+283399725+283711074+283711399+283000476+283922408
1697+286573690+290502437+294442000+296322808+297038697+296794066+295475612
1684+297053250+302203993+305909002+307435431+308465486+310450083+312171885
1670+313926839+317913836+321866382+323965349+326358097+330096925+333058310
1657+333528972+332087445+334664080+340968457+343478573+345849833+351849126
1643+357328824+360174069+360818002+360078947+361806274+367369177+371601852
1630+373564925+375062645+376815071+378997459+382120053+384509731+385663690
1616+388742009+393826449+397870939+401205083+404925205+409003352+413083666
1603+417335698+421956012+426873537+431976285+437254039+442680975+448223185
1589+453883051+459476577+465346261+472176951+479555115+485754584+490829309
1576+497844718+505460399+510782571+516789773+525583500+534645187+542632617
1562+548224843+552372219+563248085+578685111+591399207+603091699+614416921
1549+625763377+635684231+643589106+650555617+659600584+675260247+689679064
1535+699219214+709019450+720794785+731358959+741118532+750739503+758801253
1522+767940980+780261046+792604369+804727763+817321277+828377745+835578125
1508+840401105+851656412+868830299+881863671+890607743+896738958+903535160
1495+911669353+917730869+921904969+927084314+934469449+941930855+948513267
1481+953581311+956144332+957435810+958524187+959344605+961145711+964631495
1468+967238357+968541897+970902973+972889123+971497251+966548380+963887709
1454+965764147+967285376+967351463+964801299+960684474+958918976+958927715
1441+956370761+949371315+940258311+934006262+930743585+927759991+926693353
1427+926224749+923792169+923916687+927719689+929798216+930916784+935439086
1414+941078151+945570047+947797793+946835017+947190732+953692828+962170746
1400+967266164+969953559+970957504+970326318+972000740+975512886+977375890
1387+977944383+978194864+977430565+977269356+980160790+984595266+988017851
1373+990028919+990961721+990932108+990392506+990177561+990378566+991302990
1360+992501152+992927142+992773517+991647221+989854565+988021896+985510878
1346+983286309+981676964+978465062+973584734+969839369+968856081+969907695
1333+970647581+969339058+967508628+966639313+966838151+968444391+970315340
1319+972612280+976966006+980840872+981601559+981179758+981909027+984519572
1306+988708912+992635998+995313570+997593536+999347190+1000962385+1003939768
1292+1007750859+1011297602+1014793641+1019234978+1024727785+1029778712
1281+1034547017+1039769842+1043968860+1046069994+1046495840+1046700601
1269+1048258955+1050840755+1052806465+1053292909+1053589108+1055335973
1258+1057961975+1060075171+1061801884+1064028475+1066472250+1068543338
1246+1069413953+1067638415+1064976083+1065451765+1068908225+1071434555
1234+1070992097+1069130393+1068034360+1067940104+1067966900+1066963605
1223+1065003024+1064650921+1066444515+1067642532+1067527909+1067765100
1211+1068210953+1067499813+1065783790+1064213807+1064085317+1064951382
1200+1064911802+1063162771+1060349197+1058046046+1055806743+1053603987
1188+1053538189+1053382252+1050660334+1049028598+1050547733+1051297225
1177+1048444432+1044164015+1041515190+1040998772+1040849986+1039966731
1165+1038725956+1037081220+1034711909+1032724387+1032058100+1030986407
1153+1029409563+1029719125+1030637410+1030128720+1029564489+1028623886
1142+1026042159+1023850308+1024069082+1025807495+1026158587+1024424579
1130+1022720040+1021176420+1020036979+1021442285+1024608323+1024605723
1119+1019482281+1014014753+1011202913+1010429586+1012825620+1017392198
1107+1018915810+1016369763+1013864956+1013748816+1016308154+1019453535
1096+1022176537+1028608502+1037437223+1041300533+1040082293+1037206966
1084+1033758595+1032988880+1037346001+1044850165+1051896703+1054801354
1072+1053604276+1052428432+1051633294+1049867289+1050017664+1052917982
1061+1054938439+1054746029+1053914488+1052701448+1049539599+1045666538
1049+1044212696+1044946298+1046878206+1048705458+1047747449+1045488067
1038+1045187967+1044792745+1041940819+1038839929+1036409010+1034380174
1026+1033852200+1034601331+1036274452+1037256007+1034861923+1031942466
1015+1031944127+1032200964+1031816503+1033960179+1037564485+1038980337
1003+1038461897+1038916850+1041166553+1043011140+1042700206+1040509583
991+1039100449+1041612551+1046732887+1050127593+1050389052+1049542777
980+1049658194+1050685541+1051029988+1051082352+1052916176+1056843335
968+1061352492+1064709930+1066765706+1066305697+1061799428+1057291787
957+1056568875+1057996860+1059365331+1061777688+1066673473+1071887847
945+1073741823+1069987358+1063765788+1062127552+1066223214+1070820849
934+1072010343+1069909353+1065817014+1061387955+1058942374+1058859169
922+1058722734+1056980709+1057231695+1062741764+1067406641+1064320558
910+1057691415+1053958112+1054285947+1057141412+1060117712+1062098084
899+1062397967+1060918629+1059395811+1058900555+1060029379+1061290377
887+1060358009+1059047969+1058036440+1054577669+1050475579+1049231915
876+1048128948+1044879922+1041767837+1040262570+1040315078+1040956158
864+1041251853+1040007972+1037232461+1035961713+1036169652+1034840689
853+1032057161+1030333843+1030464572+1030244282+1028267377+1025310651
841+1023233857+1023911628+1025806918+1026511918+1026441209+1025166126
829+1021621117+1017300398+1014942861+1016892681+1021979504+1025173854
818+1023201428+1018093370+1015505503+1016229860+1014869623+1012272078
806+1013545427+1018654424+1024496950+1026756910+1023840702+1018878036
795+1015089047+1013631160+1011494129+1005997278+1000954368+999708826+998894981
781+994844316+989521024+986058281+985443707+987349325+988971093+987178221
768+982729011+978277852+975181295+973177883+970266660+966531912+964732828
754+963972214+961541150+958050744+955504118+954896190+954153487+950130701
741+943703576+938422681+935539842+933204117+930097449+925974124+920748338
727+916191800+913191377+910759086+907846345+903588463+900721586+901314202
714+901551105+899890117+899709263+901013236+902245054+904804175+907746745
700+909326694+910605316+911040985+909186648+905954595+904116076+903155539
687+900463738+899225130+901402391+902829148+903011303+906694481+912687599
673+912961842+906463862+901454899+907754401+917226658+920623820+923193558
660+925360346+923211687+919094068+916069088+915599039+918064410+921106580
646+921834621+918263899+912632996+909284225+908296604+911674553+921225392
633+924807454+916627541+910769775+909650701+906266685+907366329+914099983
619+914829757+914265598+925005931+937902868+933023985+913688366+902125592
606+903343110+902137871+892779731+885582529
##END=
