##TITLE=Sample description
##JCAMP-DX=4.24
##DATA TYPE=INFRARED SPECTRUM
##DATE=12/9/2023
##SAMPLING PROCEDURE=Instrument type and / or accessory
##ORIGIN=Default
##XUNITS=1/CM
##YUNITS=ABSORBANCE
##RESOLUTION=4
##FIRSTX=4397.6552
##LASTX=599.8556
##DELTAX=-1.9287962
##MAXY=1.9317681
##MINY=0.29646489
##XFACTOR=1
##YFACTOR=1.7990992e-009
##NPOINTS=1970
##FIRSTY=0.30972677
##XYDATA=(X++(Y..Y))
4398+172156585+172810262+173118058+172524215+171536022+171509965+172094880
4384+172212393+172507815+173477787+174322327+174253516+173486235+173259144
4371+174197675+175108293+174890478+174368196+174652735+175131170+174583311
4357+173379854+173030710+173503695+173356663+172873673+172849753+172496518
4344+172239493+173296796+174407306+174208674+173983073+174483920+174381564
4330+173566775+173289309+173290882+172672125+172186998+172768584+173827096
4317+174483920+174153363+172875263+171926578+172359259+174020925+175634965
4303+175657162+174389217+173394878+173214070+173517775+174007954+174428510
4290+174501164+174075324+173723216+174506780+175681347+175457569+174583659
4276+174350786+174173804+174065369+174310317+173923008+173034603+172962909
4263+173472966+173962118+174839391+175547021+174960234+173581137+172731378
4249+172847318+173538150+173954830+173645542+173259740+173237626+173453767
4236+173930992+174509944+174638291+174153843+174170127+175169402+175615948
4222+174824897+174012145+174041167+174679753+175183598+175271543+175920498
4209+177191011+177282583+176192813+175721087+175986759+175974865+175484752
4195+174841164+174339986+174351316+174835051+175165244+175291885+175707057
4182+176084725+175766923+175171141+175225657+175852416+176080021+175659134
4168+175575231+176273087+176899133+177144165+177278160+177065712+176683803
4155+176335140+175618284+174679488+174081868+173925228+174106815+174868082
4141+176275141+177403078+177192883+175885231+174386832+173403260+173533396
4128+174298026+174725324+174894156+175050531+175130242+175186348+175157823
4114+174840518+174639864+175163372+176054825+176786424+177143204+176994631
4101+176464779+175976936+176009072+176246566+176345808+176441107+176061849
4087+175027903+174409708+174707914+174878253+174675744+175020829+175795365
4074+176211879+176113333+176057707+176462112+176765734+176421246+176003523
4060+176170632+176543115+176424542+175677223+175044087+175175349+175514387
4047+175773218+176347862+176935875+177076049+176599420+175616512+175105709
4033+175525917+175816486+175622127+175739176+176130246+176341932+176446226
4020+176288824+175736095+175238445+175066383+175056842+175214757+175777044
4006+176370043+176251784+175780589+175721882+175939697+176048249+175912000
3993+175633193+175562161+175754367+175920714+176052489+176074041+175742870
3979+175283155+174959472+175063882+175955252+176997613+177112542+176526832
3966+176083980+175806861+175658521+175584160+175339377+175290178+175452898
3952+175243432+174903946+175273679+175927820+176025074+176188820+176624599
3939+176385498+175300151+174294349+174472341+175554359+175954672+175144140
3925+174449597+174807768+175136702+174844626+175002574+176174690+177022130
3912+176872596+176119843+174088510+171221185+170146422+171234271+173342582
3898+175861593+176440362+174043403+171881504+172666112+173278740+172856611
3885+173183093+172563077+172211945+174215697+174615878+172476656+170287872
3871+169554500+171545232+173099075+172496833+173022593+174459221+173900894
3858+170483887+165132785+164785182+172179809+176756276+176594782+174157537
3844+171770683+170186344+169157368+170343895+173120560+174137957+174193931
3831+174693519+174679124+174161496+172664455+169821066+169906725+172366498
3817+173255731+175154957+177114795+176123487+173010700+171228904+171680602
3804+170782672+170714838+173286344+174201352+174797134+176603843+177562849
3790+177475169+177053835+176728380+176681882+175698940+174379742+175234652
3777+176814916+176492923+174551025+173507240+174916220+176261939+176488997
3763+175643231+173218211+171971436+172916345+172030458+168109010+165878630
3750+168765851+170235443+169382074+172417718+176078331+175227728+171926810
3736+170028362+171649774+175272089+177604493+177669081+177339087+178003945
3723+179359023+181440217+183734919+184789025+183554458+181752552+183998536
3709+189429532+193859149+196618271+199607831+205500662+212300667+216462392
3696+217721492+216166208+212164767+209562897+211093036+212460156+211072776
3682+207666719+203308184+198441479+195233707+196204027+196217063+194660106
3669+196450532+199104532+199659961+199378370+199040508+197878182+196686569
3655+196499731+194454964+190370051+190569694+196482321+201212545+202706786
3642+202685119+202599544+202300063+201631726+200579210+198144732+195782891
3628+198254111+201963940+202360376+200648568+199075146+199592425+200793762
3615+200839117+200654267+200626023+201039241+202444146+203228224+202466940
3601+201480337+201185312+201103580+201479310+202602608+202760143+201385916
3588+201433375+203857434+205679085+206092684+205888817+205514395+205254355
3574+205359776+205312631+204077286+202701883+203792250+205810679+206348284
3561+206392082+206884414+207192658+206936479+206614469+206383137+205892842
3547+205741304+206583542+207723455+208295946+208142354+207807208+207846766
3534+208048976+207815773+207056808+206382723+206149187+206340664+206928511
3520+207555004+207986046+208231127+208056514+207472443+207158286+207484818
3507+207845673+207935141+208264886+208715756+208562910+207886456+207337024
3493+207098204+206853090+206701717+207015064+207292447+207092688+206995069
3480+207268626+207424802+207252276+207240018+207860929+208677425+208802144
3466+208154844+207522785+207463780+207935820+208581960+208986265+209089698
3453+209118322+209072089+208916956+208853114+208890717+209193578+210095765
3439+210996941+211251713+211302386+211586527+211887417+211982418+212081792
3426+212397093+212728925+212809068+212820464+213130647+213452557+213482589
3412+213683988+214174333+214621062+215154674+215994775+217016827+217705258
3399+217745014+217548303+217491004+217857044+218802168+219631170+219737419
3385+219465552+219485877+220215307+221492826+222627820+223087817+223099148
3372+223209306+223542745+224050367+224640716+225016015+225350731+226112114
3358+227029292+227661004+228184280+228739063+229026120+228913709+228942085
3345+229641382+230666068+231503502+232057639+232468670+233059863+233547358
3331+233599820+233948434+234806491+235413885+235586278+235572198+235503370
3318+235564777+235759367+235808864+235536633+235080197+234853917+235047398
3304+235023511+234341524+233961586+234849378+236542948+238226695+239799074
3291+241434169+243110941+244560606+245617048+246672462+247949038+249078349
3277+249837546+250322954+251077579+252390598+253440049+253649863+253317020
3264+252888032+252757217+252848458+253001504+253450005+253890488+253844371
3250+253625645+253320780+252786389+252641228+253202853+253899102+254234811
3237+254159175+253940995+253832030+253905761+254002270+253701331+253003243
3223+252396926+252166306+252180022+252176311+252196570+252036965+251208543
3210+250326632+250238986+250376476+250107541+249664639+249145074+248515433
3196+248088798+248035491+247826638+247100108+246460958+246211322+245852455
3183+245051381+243906631+242943335+242602839+242608952+242460511+242096078
3169+241798005+241664689+241485802+241098460+240700168+240638247+240775920
3156+240820132+240888397+240812164+240307739+239809410+239650385+239559559
3142+239366359+239213910+239082797+238702197+238232277+238036477+237826232
3129+237213770+236467626+235890000+235389335+234977509+234552316+233800722
3115+232826874+231937227+231186379+230355837+229326463+228329357+227488213
3102+226783085+226018074+224826958+223507412+222588693+222000266+221575884
3088+221193130+220843920+220639722+220373288+219849664+219233938+218853305
3075+218767845+218785222+218946185+219237135+219403880+219225175+218624308
3061+217840231+217303239+217224538+217408527+217781342+218377587+218694263
3047+218469292+218192621+218147414+218081734+217755086+217310246+217012504
3034+216873241+216658490+216242590+215887002+215692312+215284545+214608919
3020+214155532+214231946+214596148+214641652+214113854+213534621+213383778
3007+213517956+213536757+213178818+212661787+212335106+212024112+211648133
2993+211690822+212309347+213164522+214062551+214811677+215118198+215030850
2980+214829550+214541963+214249804+214361867+214799849+214983540+214820721
2966+214533714+214158182+213826250+213686258+213624934+213625563+213752485
2953+213708952+213310842+212870375+212620689+212557675+212675221+212758975
2939+212599436+212461945+212499449+212411504+212154447+211982219+211936118
2926+211893430+211675201+211109385+210413782+209960129+209594007+209150856
2912+209015983+209351493+209753976+209871821+209769498+209788316+210020559
2899+210159408+210002370+209704496+209661211+210052795+210503979+210615032
2885+210546866+210661828+210923889+211187672+211432588+211530272+211541901
2872+211674273+211799340+211709606+211591911+211614605+211535623+211404543
2858+211507694+211694996+211755823+211519207+210806972+210072590+209990212
2845+210238175+210279836+210457663+210822775+211008089+211232746+211515496
2831+211540129+211535291+211708530+211819003+211771461+211716928+211762234
2818+211892121+211967575+211861790+211711213+211805900+212132316+212398418
2804+212544887+212737506+212994150+213277646+213600417+213860341+213988422
2791+214027533+213992034+213976264+214118161+214359167+214483919+214476398
2777+214567308+214718465+214698586+214604596+214525746+214329830+214154703
2764+214165073+214173571+214193234+214439408+214753798+214867899+214862068
2750+214997488+215300298+215515032+215545462+215574716+215638045+215580796
2737+215451472+215461891+215665792+215957752+216234705+216422454+216504319
2723+216557940+216578696+216521961+216491862+216548200+216702255+217008164
2710+217342448+217531539+217610555+217648522+217735953+218015556+218341492
2696+218506596+218578456+218573685+218579201+218845850+219285174+219517417
2683+219397486+219215501+219314279+219609238+219760892+219651910+219470654
2669+219381732+219319182+219233574+219244904+219387100+219478390+219417116
2656+219379248+219407094+219306593+219192310+219274042+219372058+219304953
2642+219171637+219100622+219080065+219050894+218982529+218789728+218510953
2629+218338725+218257043+218149021+217980570+217762076+217665303+217739134
2615+217717599+217520656+217397676+217436472+217418963+217188840+216892208
2602+216848327+217000063+216868039+216452652+216201359+216150951+216123486
2588+216166854+216266543+216255891+216131736+216056994+216049274+215962788
2575+215854651+215865683+215858262+215724068+215570873+215445939+215237831
2561+214929571+214701899+214488342+214114748+213840562+213872085+213918551
2548+213776819+213639378+213557845+213357506+213103695+212961417+212927939
2534+212951263+212918215+212734077+212503474+212325217+212141807+211981473
2521+211933782+211917615+211836164+211693588+211536965+211462968+211478175
2507+211447380+211280818+211106950+211147054+211346267+211480312+211519853
2494+211560553+211653798+211786767+211954770+212187047+212408357+212497130
2480+212496434+212525224+212567200+212565047+212612042+212711201+212649164
2467+212486975+212515583+212693807+212810708+212838139+212864594+212943295
2453+212996221+213014343+213115158+213220976+213238983+213375844+213767775
2440+214203720+214495183+214700061+214871825+214959520+214926440+214855690
2426+214916153+215122405+215345902+215526048+215637051+215665725+215749098
2413+215967294+216114293+216139107+216243898+216437213+216610567+216764739
2399+216988551+217291974+217537105+217654486+217690565+217733137+217768106
2386+217499072+216468140+214327428+211218616+207676808+203927637+199868218
2372+195550698+191260211+187276064+183545281+180194982+178039494+177726877
2359+179208280+182252207+186755174+192785844+198894287+201809685+200019425
2345+195539201+192259006+191436928+191961116+193125363+194477641+195483973
2332+196247775+197554648+199472974+201336850+202924419+204676514+207007825
2318+209578916+211714609+213390703+215064825+216811387+218416465+219868698
2305+221158757+222198882+223086012+223973108+224771928+225376274+225948782
2291+226614700+227317343+227975013+228487505+228797356+228887536+228837857
2278+228864212+229023287+229135616+229152330+229258115+229497597+229744948
2264+229974689+230192985+230380568+230562851+230757044+230945241+231136966
2251+231354284+231517682+231558697+231630756+231874777+232199818+232471304
2237+232605432+232609722+232619496+232737058+232890104+232982570+233062033
2224+233145869+233240821+233372861+233421298+233404849+233529667+233760303
2210+233861086+233827442+233875729+234060927+234269317+234410584+234535237
2197+234745631+234935484+234969542+234943104+234998249+235088893+235128285
2183+235274953+235652506+236005939+236111078+236097611+236126401+236188504
2170+236246531+236301229+236320793+236322714+236401299+236555869+236787251
2156+237058803+237181319+237194455+237340228+237576430+237691972+237691193
2143+237685081+237742993+237937517+238207330+238423820+238604347+238792063
2129+238913121+238900747+238834834+238831620+238948769+239156844+239340236
2116+239448986+239516092+239589922+239689197+239746049+239742454+239769373
2102+239839360+239913854+240023995+240142419+240205864+240273582+240420316
2089+240579905+240657429+240711564+240794241+240840789+240898303+241017970
2075+241064882+241058289+241163395+241259970+241211914+241175902+241259440
2062+241412369+241593194+241760800+241868473+241892592+241844305+241801318
2048+241854791+241971326+242005914+241953983+242046747+242332479+242489103
2035+242415703+242424714+242627919+242826485+242910752+242905335+242915175
2021+242985229+243010474+243081687+243402521+243803712+244040759+244212125
2008+244427224+244597331+244690444+244797305+244981493+245203400+245323696
1994+245248357+245214051+245470247+245827756+246137723+246446166+246740561
1981+247011054+247275731+247545760+247773745+247955399+248051046+247935918
1967+247827764+248069864+248513760+248879634+249131093+249282432+249450336
1954+249738520+250003794+250138733+250164260+250041579+249872747+250150196
1940+250972357+251692576+252026397+252203478+252453810+252805902+253088537
1927+253077803+252816488+252832622+253160082+253401121+253983385+254927747
1913+255434027+255501332+255745369+256335734+256938506+257337858+257610421
1900+257863603+258075951+258371258+258858124+259066232+259007591+259463132
1886+260286237+260923780+261468541+262081649+262684687+263134215+263410289
1873+263238492+262341822+261808739+263037474+264977798+266205573+266804718
1859+267299965+267912875+268510363+268929743+269242807+269419044+269125791
1846+268462672+268938224+270932004+272545647+273364362+274142476+274692604
1832+274227704+273528340+274155977+275479515+276869677+278514728+279884101
1819+280777161+281546148+282174629+282383151+282633152+283584421+284827635
1805+285669574+285937002+286024035+286614748+287505654+287648711+287221827
1792+288308334+291098499+293160528+294057364+294659838+295175875+295903515
1778+296977996+297275738+296195890+295520861+297419821+300558020+302954266
1765+303784379+303775798+304617108+306025244+307235261+308206243+308126266
1751+307236718+307479298+309368320+311428791+312723754+313444404+314454082
1738+315192158+314506063+314775048+317996105+321159119+323475289+325073791
1724+326063790+326363023+324943225+322625995+323402568+327688201+331714556
1711+334031488+334382039+333612721+333524992+333511011+332748286+333572302
1697+336445625+340829985+345218984+347309637+347947825+347356814+345296178
1684+346200303+351702711+356030088+357598309+358001306+359240610+360353886
1670+361470012+365225958+369194036+370813610+372328723+375383798+377676048
1657+377005657+373780492+374438260+380328889+382959134+384912130+390524928
1643+396122685+398981033+399238786+397973972+399737529+406085587+410906208
1630+413121662+414989878+417230014+420018788+424296271+428006563+430143631
1616+434374963+441253967+447054315+451496389+455905597+460808712+465703146
1603+470582539+475958820+481680352+487223378+492838097+499033524+505431775
1589+511419243+517041550+523020636+529873997+537070124+542971619+547466005
1576+553862898+561688036+567254981+572827029+581395379+590434907+597679239
1562+601586888+602413223+609511914+624777084+638186694+649224772+658824732
1549+668068277+676040944+682225173+687509849+694093695+706537558+719219892
1535+727888692+736334990+746122732+754254226+761143401+768437096+775225091
1522+782337365+791080709+800276414+810326813+820576060+828590869+833599901
1508+837217262+845899050+859945026+870321626+875680182+878846111+884640993
1495+892218880+897179210+899569427+901773186+907394532+915258598+921704623
1481+926931917+931502436+933690492+934549494+937300168+941190324+944799867
1468+947547096+948552666+949558037+950963224+950249532+946914970+946038210
1454+949890201+953120402+952156444+947819029+945362817+945392369+943874141
1441+940038915+934538163+927118308+922033739+921022139+919145243+916253699
1427+914598908+913383359+914296893+918337991+922881277+926992280+931262308
1414+935769748+941107631+945896148+949005093+953334291+957852333+957080265
1400+953465023+954051230+958866119+964125152+969801891+975111017+976403827
1387+973460070+972607694+975312052+978810807+981848787+981432870+978724072
1373+980611040+986917586+990965575+991376390+991030444+990634736+991014343
1360+992378846+992851549+992779259+992387593+990169521+986821309+982659021
1346+977314379+974321523+974742278+974021032+969056990+962487854+959213987
1333+959547012+960375203+960161181+959721940+961117586+964712088+969570708
1319+974026664+975508912+974659518+974506523+976678477+980489386+984033132
1306+986055669+986503789+987598811+991438013+995458371+996101960+994996999
1292+996048090+999327722+1002390880+1006145600+1012337648+1019397179+1025780256
1279+1031261725+1035366500+1037081389+1036771091+1038011223+1042561533
1267+1047289090+1049224163+1048851713+1048030082+1047414058+1047321094
1256+1047892260+1048438181+1050067064+1053797466+1057528067+1060542060
1244+1063612110+1065264582+1064720251+1062705997+1061430150+1063975682
1233+1067575683+1067457872+1065986623+1066143263+1066380939+1065444015
1221+1063853166+1062896297+1064551950+1069242533+1073741823+1073640974
1209+1069068864+1065687258+1066335352+1066908837+1065024453+1063209180
1198+1062024640+1060649800+1060317503+1061492899+1062634634+1062128073
1186+1060108716+1059157149+1060078833+1060171664+1058817033+1056561988
1175+1052646719+1049807919+1050289368+1049730328+1045451752+1041664564
1163+1041932323+1045078440+1047158690+1046522323+1045358258+1044080490
1151+1042662713+1042039268+1040422709+1038185488+1038275337+1039642027
1140+1038455169+1034241462+1031488800+1030956198+1028193001+1023354987
1128+1021599745+1025312257+1027674247+1021603257+1014402393+1013563137
1117+1015577060+1017884318+1020321116+1018947270+1013486937+1007740889
1105+1002608546+1000305529+1002734309+1006907199+1010763629+1013526760
1094+1014264041+1014960108+1016712368+1017827135+1018470591+1020263999
1082+1022354453+1023013812+1023553106+1025916686+1027589367+1025262761
1070+1021869161+1022469084+1027961619+1033206340+1033494904+1033747490
1059+1037253202+1039231543+1040033693+1042833997+1045590766+1045305714
1047+1040205242+1033776247+1032318713+1034130210+1034141210+1031124964
1036+1027124748+1026382564+1028224011+1030401531+1034737290+1039279317
1024+1041120168+1041418671+1040465116+1038906072+1036909111+1031734163
1013+1025926890+1025566698+1028659144+1031158558+1034200579+1035669443
1001+1031834084+1028609316+1033223435+1038727102+1035972585+1030187244
989+1028408613+1031295916+1035937732+1038475246+1039436421+1040758981
978+1042199088+1044356266+1048324875+1054864592+1061388141+1061741045
966+1057660588+1055804166+1056342335+1057976320+1060899668+1064616819
955+1067592646+1067183354+1065827730+1068218013+1071407597+1070267253
943+1067032943+1065080907+1063105084+1060883832+1060845732+1064792012
932+1070612536+1072376657+1068779173+1064692488+1064133779+1066480926
920+1068360407+1068965100+1069713845+1070227960+1068696281+1065517034
908+1062738266+1061794848+1063292800+1064948519+1065026839+1065396573
897+1066101784+1066945015+1069861208+1073344193+1073081272+1066885381
885+1058092872+1053286862+1052015985+1049676723+1048151140+1049253119
874+1051631608+1055402628+1056489764+1051255712+1045395762+1041972609
862+1040603468+1043795238+1048236020+1046934530+1041860099+1039547540
851+1040188544+1040273557+1037382212+1029913058+1023077488+1023561521
839+1027618058+1028118656+1025173508+1022281500+1022106837+1025266206
827+1027339698+1026329357+1026496068+1028456519+1030542467+1032142195
816+1030719250+1024987713+1019276055+1018850662+1021859222+1022011157
804+1019426532+1020736039+1026441138+1028988061+1024336770+1018000605
793+1018854041+1023352138+1019541295+1010188620+1005432571+1005931314
781+1005572115+1000394649+994624747+994464331+997250056+996448635+993775685
768+991456433+987230601+983375297+983113568+984169496+983648357+984235094
754+986784005+984535387+978035228+973923231+971150890+968086605+964652056
741+959037270+954429379+953007031+950398287+946355731+942632816+936908104
727+930343208+925918661+922803222+920416981+919247350+917598921+914286158
714+912846979+917110315+924004924+928103138+929262830+928674238+927202790
700+929055501+935079644+937980398+935231514+932120979+929330681+925683104
687+922577539+920907442+921087273+921605232+920664067+919766435+922180572
673+927369833+927478169+921870208+928072923+942077354+944237448+942961733
660+949695527+955660368+952568187+949382844+951786246+952897966+946710026
646+940297993+942529317+946444586+941472528+931238918+922560576+917562742
633+916328176+925203444+940345701+937021012+921859871+928929738+963433657
619+981771130+943423636+900124889+892765596+911469091+934842697+942170384
606+933071751+926678735+934757486+953783604
##END=
