##TITLE=Sample description
##JCAMP-DX=4.24
##DATA TYPE=INFRARED SPECTRUM
##DATE=12/9/2023
##SAMPLING PROCEDURE=Instrument type and / or accessory
##ORIGIN=Default
##XUNITS=1/CM
##YUNITS=ABSORBANCE
##RESOLUTION=4
##FIRSTX=4397.6552
##LASTX=599.8556
##DELTAX=-1.9287962
##MAXY=1.6828523
##MINY=0.12359499
##XFACTOR=1
##YFACTOR=1.5672783e-009
##NPOINTS=1970
##FIRSTY=0.12599437
##XYDATA=(X++(Y..Y))
4398+80390553+79831654+79396773+78888855+78859633+79719806+80397902+80161903
4382+79670413+79646017+80552440+81830774+82489836+82428882+81784776+81471917
4367+82174609+83076535+83973603+84976510+85354344+85060957+84910935+85173480
4351+85173299+84516918+83710735+83199584+83265424+83856259+84010835+83289488
4336+82965505+84071903+85468893+85510898+84423258+83788336+84320081+85155539
4321+85484590+85714685+86312318+86340907+85119448+83983890+84279626+85679069
4305+86682394+86403801+85496417+84815098+84765658+85165931+85708030+86409914
4290+86941906+87193954+87427044+87683780+87940050+87857418+87210250+86755280
4274+87157740+87750695+87836872+87558973+87251723+87433110+88174052+88814013
4259+89262718+89748560+89668905+89031159+88980968+89593423+90077906+90228944
4243+90274191+90487372+90588011+90032640+89266883+89460887+90374688+90389767
4228+89604291+89708904+91122237+92682750+93060413+92460270+92471822+93130789
4212+93124058+92961410+93636312+94345993+94260528+93705357+93517761+93938485
4197+94267421+94033970+93528124+93604157+94642508+95664450+95885389+95779797
4182+95567215+94760613+93891270+94048716+94933842+95396020+95040347+94769940
4166+95140377+95278780+95050615+95247700+95636126+95728560+95785511+96058780
4151+96501267+96951750+97118913+96981651+96967171+97114179+96914841+96241375
4135+95591982+95645596+96550944+97484474+97800157+97871388+97923433+97920914
4120+98246371+98720318+98639408+98318924+98572617+98940687+98649078+98353807
4104+98808226+99504055+99789722+99969655+100400894+100408063+99664905+99192802
4089+99558058+99930426+99842052+99819253+100095175+100472192+100474844
4076+100035790+100046239+100649139+101286733+101988788+102500111+102314065
4062+101875143+102022151+102565704+102635281+102094266+101635094+101655706
4049+101769599+101939272+102753328+104073392+104941803+104465222+102932824
4035+102054163+102591147+103454272+103863795+103902435+103721333+103607573
4022+103643769+103687276+103864014+104185231+104272416+104016384+104064065
4008+104897640+105829468+105787292+104723213+103588967+103013202+102951069
3995+103324701+104196821+105396317+106231956+106424001+106393767+106245238
3981+105975981+105630681+105065108+104486224+104278672+104732349+105799195
3968+106734312+106840884+106485801+106730985+107283960+107147259+106671029
3954+106113795+104974919+103772798+103890445+104302470+103723710+104381374
3941+106643533+107750549+106433651+103388612+101758085+103923294+106511291
3927+105969154+104697057+104969594+103948823+101676091+102770727+107450563
3914+110619231+110323847+107619324+101714635+93781152+89731113+91986570
3900+98308332+105579397+107485694+102453685+99204877+102653175+103203716
3887+100298049+100794787+100059198+100053721+105273079+105822812+100639375
3873+95832868+93718534+97285716+100084374+98923526+101774295+107300798
3860+107118185+98239925+84256009+82914373+100017868+111366619+112338902
3846+107485694+101693680+96978742+92898327+94051407+100595307+104693758
3833+106545081+108585607+108832312+107730089+104049756+96737589+96100300
3819+101443885+104480444+111316381+117950945+116580263+109848730+106188563
3806+106470323+102713605+102127638+109010524+112811328+115983685+120502860
3792+122116720+121755496+120649250+119211244+119169267+118433811+116877482
3779+119396234+123720711+124370798+121055940+118011338+119295947+122319947
3765+124996793+125071722+121074861+119269526+121039891+118285349+108989893
3752+103512288+109931066+113499104+112436203+121253757+130864193+128589816
3738+119640068+115232114+122774147+136296969+144751967+145578145+144748734
3725+147308389+152334845+158627657+165025556+168242970+165514479+161286286
3711+166872250+180477817+191178164+195643669+198251546+206848322+218787404
3698+227247593+231960145+232647492+230954348+236648680+253679042+268966554
3684+276669895+279814955+280167556+278040311+281617571+296534283+307196619
3670+314709198+330490253+346544254+357452363+366298791+373512715+377886660
3657+383475914+391956487+393909933+389388884+395331367+417078863+437730772
3643+450688316+459595442+467897727+475742161+482993317+488504227+488858331
3630+489003760+502930820+521704584+530990115+531685239+532093917+540830931
3616+552223817+559171754+564813794+570696721+577336534+587473343+597475751
3603+603469157+608083836+613646582+618592547+622718723+627546602+630146835
3589+628460023+629977142+638662359+646593807+651649833+656237929+659115253
3576+660418945+662780649+664669937+662364061+659766795+666227521+676501507
3562+681510450+684374920+688620664+692016803+692500249+692524513+694682297
3549+697737757+700384387+703320127+707525026+711216131+712766261+713569621
3535+714508826+715507512+716177764+715904932+715807954+716435916+717139408
3522+719094869+722238104+724040377+724101606+724175234+725044159+726707316
3508+729077387+730358412+728930589+727266367+728684911+732171487+734458423
3495+734278690+733300009+733802850+736138466+738265673+738193263+736313863
3481+734870219+735318144+736987158+738234260+737897765+736430389+735256763
3468+735435811+736789323+737975347+738051485+737448242+737353241+737966752
3454+738182462+737549175+736718510+736421490+737437746+739548296+741403204
3441+742608624+743160981+743062482+743415711+744971469+746783859+746761193
3427+744301597+741331326+739491478+738933035+738788367+739524032+742385840
3414+745089060+745806395+745805254+744575722+741943315+739995308+739699506
3400+740664268+741464433+741070283+740512906+739944043+739232109+739883650
3387+741771188+742928310+741959668+740254677+739945868+739377766+737472582
3373+735568006+734290023+735163131+737496769+737588575+736327935+737523315
3360+739969828+740438670+739637896+739100142+738706449+737391044+734888626
3346+734035142+735876282+737885671+739320796+740716142+741128546+739107672
3333+735136053+731268562+728794363+728525790+729008628+727402212+726127805
3319+728520922+730389674+727915855+725200541+725527072+726226076+726082548
3306+727844433+728786529+723738338+717330246+715238407+715855340+717357856
3292+719554660+722162879+724818789+725132694+723147341+723652692+726138225
3279+725882811+723553813+721603144+722046733+725800132+727130445+721563744
3265+715367787+714984134+718514216+720653137+719136855+716639228+716277481
3252+717357856+717324389+714587398+709424506+705018501+704251498+705353094
3238+706061682+706788524+707991054+708546454+706867095+703699293+700190279
3225+697219627+696562913+697378976+697654622+696610604+693943589+691842395
3211+693262308+696944817+698174121+695339391+691859052+690348626+690171555
3198+689850957+689271293+689624294+690624348+691360242+691745492+689934472
3184+685657619+682439616+681333227+680535800+679687032+678504126+675971587
3171+672900459+671238366+671443504+671502147+670255578+669247461+668864340
3157+667853484+664532190+659737359+657269473+657126173+657796426+659593679
3144+660583465+659990415+659467493+657713899+653276404+649236102+648261908
3130+647976907+645900128+643264526+641802399+641728315+641859141+640375032
3117+637550646+635803213+635778037+635329085+632620768+627991979+623100779
3103+619500986+617210893+615206829+613836127+613803953+613572499+611766764
3090+609895693+609171704+608312933+606742837+605438765+604526790+603842390
3076+603315247+601889058+599295823+597092592+595992783+595063085+593794991
3063+592176938+589814701+587167196+585737357+585525336+584916122+583386377
3049+581632934+580381687+579926612+579649103+578675023+577022628+575465615
3036+573726891+570478539+566373166+563745285+563019393+562929261+562869857
3022+562315598+560502067+557873311+555917166+555516513+555739106+555206905
3009+553556222+551146446+549728473+550184651+550418805+549872799+550213896
2995+551519413+553658068+557039983+561384265+566079988+569632166+570953124
2982+570533531+569255625+568118165+567232735+565725390+562811023+558446433
2968+553923598+549944981+546249009+543304142+540647813+537289553+534262920
2955+532516780+531202060+529650865+528618446+529102348+530050681+529189781
2941+527063296+526210724+526680099+526940115+526566007+525096122+522448388
2928+520161338+518626610+515935712+511395002+506676271+503017568+500022234
2914+497250103+495073417+493263195+491368622+489852681+488453951+486413301
2901+484097728+481981359+480045332+478579554+477850392+477486514+477125793
2887+476840449+476537383+475663210+474157385+472663350+471255987+469756552
2874+468263658+466606624+464702238+462896542+461401100+459604189+457124817
2860+454819436+453075806+451176630+448646450+445517590+441969367+438448145
2847+435533665+433389305+431656362+429863178+428163853+427204377+426433762
2833+424522150+421983717+420222288+419008692+417575506+416066753+414778312
2820+413504437+411960810+410329636+408912309+407605423+406321584+405247712
2806+404270894+403077682+401686748+400269878+398906744+397440548+395679157
2793+393942829+392504965+390816936+388642494+386794546+385502987+383977234
2779+382032992+380220755+378789965+377778615+376970311+375676546+373812663
2766+372124139+371102065+370398992+369295836+367950273+367035559+366410145
2752+365568450+364686519+364117960+363496919+362613657+361707919+360745362
2739+359920249+359405504+358811921+357933983+357070991+356497717+356107636
2725+355649671+354940665+353989138+352963375+351892811+350893403+350257454
2712+349866689+349271015+348488534+347725867+346762322+345644600+344753770
2698+343917589+342818617+341616658+340435045+339227457+338080376+337162392
2685+336585885+335991313+334966273+333906434+333153883+332410611+331520656
2671+330575860+329742988+329252392+328930767+328430207+327900706+327441030
2658+326782719+326025338+325515993+325224146+324916630+324558153+324311638
2644+324325747+324486579+324460300+324304336+324310193+324294220+324218691
2631+324298137+324182029+323707293+323384298+323349576+323246817+323097585
2617+323071192+322806042+322140315+321527032+321200729+321013428+320766837
2604+320379305+319961157+319543619+318958422+318145839+317334170+316796283
2590+316474772+316013517+315221946+314288921+313505109+312886426+312266773
2577+311666573+311131463+310587263+310052913+309577206+309126961+308643781
2563+308143697+307818801+307746676+307607084+307241305+307016278+307197513
2550+307548403+307721385+307700278+307655802+307663351+307677764+307649565
2536+307753769+308148261+308593353+308745418+308597726+308379069+308256667
2523+308260052+308240941+308124872+307961682+307649241+307302782+307172584
2509+307059462+306722130+306220980+305591592+304962203+304576819+304334697
2496+303970573+303541568+303250462+302985198+302553512+302167082+302032872
2482+302025228+301887576+301396961+300705430+300268629+300267317+300367547
2469+300124550+299604747+299300159+299329272+299229441+298757005+298170439
2455+297676706+297290980+297051596+296960246+296813885+296447079+296038345
2442+295801623+295671539+295482013+295139737+294697117+294325481+294047838
2428+293745114+293423926+293185474+293073036+292990909+292803361+292543421
2415+292333416+292290308+292478750+292682632+292611895+292381087+292316169
2401+292468367+292647397+292748007+292750061+292600163+292343646+292096237
2388+291769858+290953149+289109860+286023557+281919972+277053738+271753023
2374+266541034+261451903+256341627+251635844+247644621+244416920+242128671
2361+241166077+242088378+245216248+250471859+257496466+264092714+266409904
2347+263114566+257262425+253746185+253486493+254326020+255030481+255559982
2334+255968717+256376577+257523886+259496309+261242202+262460952+264063355
2320+266448125+269056154+271281310+272941919+274373051+275871517+277343874
2307+278796170+280236696+281368280+282151749+282833354+283448747+284007912
2293+284522106+284937268+285306622+285680996+286012110+286142916+285989006
2280+285645741+285207324+284809599+284557665+284382153+284171368+283898004
2266+283686781+283690280+283840920+283889979+283720762+283442282+283233304
2253+283175364+283095081+282911945+282932177+283251311+283514845+283503226
2239+283334674+283177475+283095785+283065798+283062166+283161102+283414482
2226+283642533+283632835+283454680+283350001+283416269+283570408+283773111
2212+284009548+284157658+284156422+284147808+284234499+284250643+284137293
2199+284112991+284300787+284689023+285067371+285176747+285129874+285088497
2185+285046815+285053357+285124626+285145239+285006275+284745384+284491339
2172+284398887+284554337+284868033+285127630+285157789+285019775+284919755
2158+285036946+285355244+285581488+285610620+285647015+285815206+286090947
2145+286417821+286738305+286948387+287037474+287235081+287725505+288308972
2131+288625539+288624969+288600420+288813050+289161430+289439719+289614185
2118+289676897+289740884+289913790+290040128+290035641+290041916+290122446
2104+290243022+290423173+290620324+290797870+291073136+291438364+291724526
2091+291934854+292160889+292400730+292635969+292767079+292778051+292909124
2077+293194696+293366823+293398731+293505483+293641119+293586336+293447334
2064+293488711+293684379+293889479+294124926+294466385+294809212+294969968
2050+295035495+295154493+295222758+295116120+294974570+295123232+295525254
2037+295829480+295974396+296071926+296159016+296252400+296362841+296495321
2023+296676309+296746381+296420496+296098338+296430897+297097727+297575601
2010+297911165+298163042+298331784+298465538+298546695+298602163+298679042
1996+298572632+297977871+297463335+297879276+298810381+299653863+300375628
1983+300948636+301370359+301637353+301895980+302280623+302644082+302660910
1969+302171627+301940800+302679184+303632290+304137850+304446374+304600722
1956+304615934+304737290+304875988+304694524+304008717+302700595+301045139
1942+300580994+301907751+303223726+303552977+303364554+303149414+303105869
1929+303129848+302664999+301264785+300052406+299600278+299101068+299700033
1915+301685595+302712100+302228388+301847472+302537083+303617724+304299557
1902+304602015+304682183+304400414+304019442+303984568+303430632+302611585
1888+303587699+305548864+306640097+307166993+307647454+308112018+308468403
1875+308473157+307100592+303581139+300937436+303012333+307152409+309556651
1861+310243846+310507988+311038858+311675016+312001737+311831892+310925546
1848+308765270+305821753+306036893+310518674+313936928+314704330+315127345
1834+315299833+313107612+310245044+310629363+312661417+315000323+318378397
1821+320939002+321904981+322483313+322719332+321818727+321071539+322387552
1807+324556593+325304505+324003437+322410827+323119719+325052628+324602344
1794+321772596+322222005+327868456+332474693+333793749+334038362+334346715
1780+335442645+337318317+337081957+333262879+330228906+333361112+339863330
1767+345566904+348124162+348092520+349510874+352199414+354527918+356872243
1753+356502357+353415673+353612596+358732437+364226576+367649108+369836480
1740+373270155+376483747+375592840+376274959+385510783+396309097+405537848
1726+412671375+417753946+421290760+420621040+417336902+421883887+435754204
1713+449235925+458515751+463116473+465126014+468534969+471373540+472008919
1699+477400261+488424667+503657662+520116043+530771743+537124614+540105572
1686+539372911+546304305+565228405+581778478+591500524+597730176+605510453
1672+612874864+619350004+631330236+644096181+650990457+656683496+665487216
1659+672473678+672019744+663895176+662233540+674133717+679792072+682177736
1645+692811492+704841734+710583985+709613670+703252280+701556949+712933216
1632+724168693+728886854+732426140+738096513+746143651+759240729+772462091
1618+781050177+791317546+805115681+815093104+820039069+822500490+824772746
1605+826616397+827011079+826762511+825429992+821341695+815208717+808831886
1591+801866189+793263043+783781084+774711986+766418257+757899311+747006643
1578+732406744+720539882+717251066+712984253+705199603+702062985+702933051
1564+701683591+694547288+679830559+674455837+690181823+705447334+716273145
1551+725440362+734630930+741997699+745549155+747225851+754404216+780581411
1537+810718360+829686765+845948452+864344571+877062636+882348215+884623590
1524+883931736+879528773+875011794+870386276+866006664+862773372+855830037
1510+841860307+824110024+820421581+837036496+849308842+851166412+849311960
1497+853745728+864441322+870318505+870025973+874269512+888088184+902179840
1483+911237757+917997024+923289525+924717652+922876587+922501073+930612863
1470+943254562+949161333+947629382+947365525+949298852+944804996+934049922
1456+932867625+942042904+947310837+946603695+944104775+944737454+946980579
1443+945725642+939364480+927731203+914264086+908638589+908384240+905471851
1429+903163922+904883517+906817452+907704632+907958829+908823874+915306887
1416+925555012+933040969+935784729+936131037+936748579+937990508+939984076
1402+942417354+944264808+945726707+946450735+947720655+952666848+957281186
1389+956315131+953218445+953103821+954344153+954603294+953739922+952657569
1375+953690406+959130769+966153209+969972401+970163999+966606382+959243188
1362+954594167+956655809+958975528+957407600+955283282+955249435+956125205
1348+956580585+956377501+955575738+953017415+948165842+943834073+941403076
1335+939037873+937089562+937106219+937649677+937113293+937436097+940304599
1321+944360798+947734727+948937104+947381954+945644029+946119640+947713734
1308+949243632+950770031+952686776+955176720+957421138+959070148+960389889
1294+962094575+965221837+968053525+968254783+967508926+968292510+971060306
1281+975723551+981538668+986542059+989471182+991992539+995828236+999084803
1267+999122301+995888021+991101937+987150626+986166012+987882641+989851945
1254+991181345+992664693+994592164+997241456+1000090105+1001544018+1000869354
1240+998483538+996205501+996408508+999266437+1002803366+1005231548+1006080849
1227+1006186118+1006908700+1008890250+1011245110+1011759893+1009908940
1215+1008622743+1009825881+1011693795+1012944776+1015236352+1018998803
1204+1022479598+1025237354+1027656181+1029164705+1029604644+1030038954
1192+1030872510+1032220774+1034603776+1036392358+1036449100+1037105661
1180+1039702624+1041746544+1040946379+1039919398+1041392098+1043785368
1169+1045258600+1046018833+1047940067+1051564998+1054373487+1055309878
1157+1055281660+1054801180+1055550917+1058830530+1061943568+1061839136
1146+1060331904+1060775874+1062602183+1062299916+1058717883+1054685491
1134+1053923128+1057122496+1060903353+1063066614+1064093138+1062784654
1123+1059485494+1057422178+1056087073+1053023170+1050402401+1051933439
1111+1056052693+1057336152+1054738886+1051689739+1049795203+1049198273
1099+1049931201+1051975882+1054666704+1055513418+1054319179+1052892040
1088+1050505996+1048323036+1048873263+1050243737+1050001481+1049587023
1076+1051742677+1056029495+1059299828+1061004211+1062346313+1062664858
1065+1061100504+1058470683+1056493773+1056835897+1057800279+1055178901
1053+1051892975+1052188017+1051773178+1048704483+1046855128+1047801863
1042+1050921976+1053294785+1050726498+1045849293+1045900710+1048995342
1030+1048134327+1045313136+1044825127+1045272672+1044792040+1042231511
1018+1035865101+1029112603+1027881094+1030861177+1033431290+1033952843
1007+1032335322+1030144147+1029964794+1031989852+1033558008+1033546219
995+1032981387+1033345493+1035783791+1038632897+1041505962+1045654728
984+1048831506+1050074880+1051302739+1052863213+1053449798+1052345235
972+1051051660+1050697975+1050363990+1050336455+1051850076+1053989834
961+1056792922+1061156409+1063500316+1062754534+1063806995+1067089270
949+1069365862+1070051099+1068504163+1064724143+1062315204+1063593415
937+1066183760+1066167178+1062691555+1060018608+1061827727+1066624231
926+1071408565+1073741823+1072575803+1070490049+1069823599+1069072493
914+1066113403+1061401555+1057946164+1058311411+1060358906+1059623697
903+1057107664+1057382170+1060406749+1063822968+1067071852+1068430307
891+1065812504+1061472292+1059826096+1059837886+1057478615+1053529358
880+1049045618+1043314168+1037945378+1035220177+1035641556+1037163696
868+1037376211+1035400822+1030937771+1025759439+1022536035+1021043712
856+1018934835+1015758209+1012832510+1011168896+1012005115+1014613486
845+1016374991+1016289726+1014798543+1014110645+1015088717+1013801075
833+1008220987+1002882317+1001082478+999614494+996518265+996569987+1001995138
820+1006071493+1003362949+999066472+998702062+999051792+996515451+993992800
806+994533977+996653274+996667725+993758836+991033634+989274411+988498737
793+991146965+994774483+993828812+989395653+985491196+981226969+974839566
779+968778922+965933391+966297345+967942399+968252426+965533613+961737315
766+959933064+959570556+956910767+949702129+941264341+933955758+928841166
752+930170718+934482711+934309976+931563781+928740841+924764278+920136402
739+916122949+913235128+910541187+906980908+903122468+899770597+897173255
725+895496635+893298158+889216250+885339631+883551277+881907135+876510887
712+867432966+860955735+860313320+861871209+864510461+870721935+878054020
698+881089856+879782438+878566293+879445790+879326298+875822912+870729997
685+865764104+862775578+864206368+868704027+873543886+878676278+883047142
671+882098353+876649319+878901951+886753003+887624970+883235394+878803528
658+876413681+875229101+874503172+875545669+880544496+888698804+894018154
644+894076265+891646486+887705519+882573280+875208717+865314278+858257991
631+859293110+864341833+865349038+864829767+866958572+867285559+864547199
617+859676763+851001587+842299029+838514520+839104833+842053274+847339842
604+856377146+868066785+876344085
##END=
