##TITLE=Sample description
##JCAMP-DX=4.24
##DATA TYPE=INFRARED SPECTRUM
##DATE=12/9/2023
##SAMPLING PROCEDURE=Instrument type and / or accessory
##ORIGIN=Default
##XUNITS=1/CM
##YUNITS=ABSORBANCE
##RESOLUTION=4
##FIRSTX=4397.6552
##LASTX=599.8556
##DELTAX=-1.9287962
##MAXY=1.7923156
##MINY=0.18560567
##XFACTOR=1
##YFACTOR=1.669224e-009
##NPOINTS=1970
##FIRSTY=0.19901073
##XYDATA=(X++(Y..Y))
4398+119223503+119128225+118812129+117546253+116068549+115959506+116687815
4384+116976282+116956688+117210018+117811939+118050022+118226062+119333733
4371+120063328+119494276+119371566+120373737+120842985+119917577+119088991
4357+119475940+120212480+120507027+120327924+119991448+120132860+120598198
4344+120936005+121561778+122386062+122637955+122450506+121943657+120820480
4330+119863363+119792992+120037002+119976031+119902383+120288279+120768766
4317+120936344+121014509+121151734+121146146+121154279+121691889+122337115
4303+122365628+121932606+121704244+122150407+122959737+123576539+123717622
4290+123814962+124317650+124616678+124841174+125378285+125075767+123783467
4276+122988348+122739794+122504068+123052721+124045385+124032049+123286599
4263+122982323+123051319+123095472+123618818+124306768+124093582+123300677
4249+123123432+123952973+124771400+125119616+125617966+125691613+124965340
4236+124303545+124001349+124151331+124996477+126090731+126560951+126209977
4222+125656745+125517832+125986062+126462397+126096265+125317599+125482507
4209+126456648+126732582+126219699+125963789+126317708+126816799+126803614
4195+126302184+125922394+126209040+126942286+127435637+127471737+127022700
4182+126319672+125623822+125236033+125660539+126373734+126532099+126462629
4168+127000901+127890708+127847662+126758577+125801344+125550620+125684820
4155+126049845+126623494+126818460+126448757+126300578+126896946+127736155
4141+128002314+127388038+126191106+125536650+126188187+127146902+127360989
4128+127085198+126907962+127152062+127530620+127513221+127434101+127376549
4114+126718067+126110370+126243882+126456023+126684555+127243822+127660552
4101+127681254+127779558+128327676+129014698+129464547+129486766+128926562
4087+128149359+127700938+127649331+127754214+128017177+128598789+129076428
4074+128830409+127932263+127331798+127859196+128775177+128817741+128026836
4060+127526264+128051930+129106807+129997266+130602391+130889939+130644482
4047+130083420+130017209+130573191+131085262+130965202+130233028+129752095
4033+129857041+129904246+129729063+129483856+129116109+129017751+129208155
4020+129143309+129285427+130118477+130877834+130927825+130637028+130730110
4006+131329612+131789727+131680835+131340788+131006534+130502989+130084411
3993+130131028+130305363+130177270+130186599+130708221+131136422+131179522
3979+131002883+130453382+129744819+129281142+129385668+130131108+130760658
3966+130860141+131055642+131735120+132216125+132110179+131851984+131130057
3952+129704630+128814813+129458968+129991079+129199647+129295345+130688019
3939+131054642+129861915+127865356+126988894+128770803+130532511+129664369
3925+128548155+129140997+128780569+127326834+128440076+131853814+133521699
3912+132919162+131555581+127895216+121784864+118221402+119641679+124059151
3898+129401790+131409606+128381952+125766538+127533905+127851867+126068226
3885+126741241+126600284+126241142+128635041+127923943+124232192+121947326
3871+121276891+123234198+124631827+124104429+126565799+130642902+130567478
3858+124089431+113250697+111192792+123635154+132280864+133044559+129385186
3844+124702966+120631728+117690701+119363317+124984747+128208117+129337712
3831+130888787+131506732+130646768+127240207+121105832+120409990+124847860
3817+127344903+131754314+135903163+134629477+129567440+126533537+126701436
3804+124585817+124768767+130079787+132864145+134587466+137115941+138044429
3790+137693973+136624956+135468124+135537977+135009463+133736929+135556724
3777+138868284+139257028+136298897+133415833+134015942+136224928+138254597
3763+138130646+134734931+133219297+134954545+133447614+126918870+123060479
3750+127673755+130007648+128561804+133721994+140203575+139185210+133488178
3736+130281385+134934959+144040551+150050573+150814475+150288710+152174967
3723+156062229+161051154+165970770+168637443+167555526+165461216+170195918
3709+181635529+192558069+200293010+207329111+217756221+228630734+236031805
3696+240699876+241942550+239704302+240534120+248305537+254978540+256555334
3682+254750187+250408399+243530199+239581448+244373015+247899215+248708519
3669+255460652+263784079+268464915+271290078+273385762+273950145+274769287
3655+277062026+275392070+269155811+269739565+282061342+294013165+300065153
3642+302352322+303862948+305531476+306818714+307002681+304732153+302671908
3628+309359230+319494695+324065069+323267317+321455957+324091457+328308322
3615+330169244+332349931+335556974+339307777+344718896+348818995+349446992
3601+349558115+350999968+352367584+354501459+358235087+359816844+357867509
3588+358358636+364147474+369344166+371611052+372772277+373478331+374257943
3574+375999137+376121722+372085469+368244288+371006552+376682088+379596039
3561+380954514+382506455+383425507+383101100+381974942+380488346+378731656
3547+378026316+380154262+383407118+384871074+384357736+383630543+384113922
3534+385014478+385019584+384496426+384289177+384343310+384394015+384580625
3520+384899855+384992553+384312994+382603331+380535766+379735729+380821216
3507+381641465+380764762+379696414+379243958+378537904+377705408+377435134
3493+377384000+376638703+375151572+373848766+372877222+372076149+371953742
3480+372176524+371938281+371037368+369839864+368857073+368016721+367382440
3466+367219826+367176583+366873851+366241248+365117232+363714158+362699193
3453+362141756+361264053+359744928+358505539+357869044+357389986+357330353
3439+357378809+356731316+355373055+354110528+353786870+354241612+354754985
3426+354198976+352358515+351075241+351353977+352122949+352257890+351995436
3412+352254354+352913524+353522488+354213295+354751879+354850790+354774375
3399+354874036+355244364+355419833+355063431+354505351+353945092+353658714
3385+353885781+354167803+354461823+355156986+355779698+355707568+355109709
3372+354351128+353703635+353404866+353268604+352860748+352339732+352293990
3358+352529949+352546946+352623896+352801365+352735198+352511381+352229287
3345+351937125+351865530+352031608+351867601+351302879+350912662+350159902
3331+348787965+348018636+348039561+347655522+346456590+345124717+344188989
3318+343641728+342990522+341602445+339569017+337619646+336616359+336679562
3304+336773402+336389220+336256958+337000684+338501598+340188479+341556310
3291+342452938+342925712+343107787+342719891+341564451+340503745+340106637
3277+339869714+339337808+338477102+337341981+336160260+335442387+335195894
3264+334910623+334408033+333586142+332565322+331989638+331857447+331292153
3250+330309184+329649014+328862724+327405159+325812404+324298885+323230216
3237+323368656+323837681+323180689+321969902+321212607+320518979+319804284
3223+319715228+320002427+319882306+319230278+318466698+317986068+317748824
3210+317487335+317218382+317033593+317049769+317416990+317589281+316811168
3196+315411986+314318857+313732996+313270542+312623941+311352201+309523916
3183+308178974+307842283+307750192+307099307+306016176+304824065+303824205
3169+303297155+303042664+302937861+302758964+302152285+301378850+300711218
3156+300116965+299531443+298934638+298377343+297595820+296370947+295272551
3142+294876781+294944501+294977799+294482940+293196720+291648475+290520423
3129+289824046+289390087+289296264+289125044+288098528+286487027+285204092
3115+284377577+283759346+283283198+282425492+280848716+279124341+277746387
3102+276885021+276230351+274925491+273208454+272165406+271680402+271100879
3088+270463384+269861901+269439832+269282414+268833189+267975983+267337096
3075+266976695+266495708+265792493+265130556+264986028+265349214+265389867
3061+264627519+263636783+263239335+263603485+263902861+263338960+262445243
3047+262175362+262440887+262507768+262160204+261670237+261220119+260875394
3034+260443935+259958877+259769000+259462750+258680245+258037608+257914719
3020+258003971+258090171+258173709+258062515+257654604+257129304+256520483
3007+255948441+255663027+255561527+255517963+255632978+255905448+256391613
2993+257308755+258689208+260476572+262558759+264484330+265912597+266937291
2980+267493050+267384391+266824204+266119792+265194455+263806307+262237155
2966+261187714+260701604+260249915+259608617+258809169+258065336+257727895
2953+257635358+257447052+257555158+258323665+259244342+259661733+259535470
2939+259250895+258845180+258009524+256755763+255389003+254255453+253540490
2926+253104781+252678981+252011759+250863318+249391185+248224801+247402392
2912+246409781+245512564+245214581+245141362+244890227+244619007+244180460
2899+243313577+242318609+241619928+241468277+241666188+241755190+241773651
2885+241839925+241807503+241675883+241446584+240973435+240346831+239868844
2872+239476538+238933919+238326955+237765304+237210741+236698188+236278209
2858+235760139+234985561+234207109+233523087+232583127+231349898+230295334
2845+229659160+229343858+229317738+229365676+229152535+228770816+228473494
2831+228293597+228196757+228036678+227657138+227196736+226820785+226579077
2818+226552689+226571168+226321355+225924603+225779807+225848331+225779004
2804+225589609+225400053+225236421+225295268+225515800+225538332+225243456
2791+224799498+224352487+223883909+223467001+223227418+223037844+222722471
2777+222380228+222226130+222213203+222092814+221682458+221051783+220625983
2764+220632518+220641944+220258637+219753762+219576686+219720250+219832908
2750+219736622+219586809+219443548+219162259+218801626+218636101+218725193
2737+218771381+218576755+218253401+217969915+217879574+217952722+217953900
2723+217844348+217751400+217665415+217563290+217397819+217159629+217168824
2710+217517584+217816264+217858238+217638170+217160754+216648416+216390925
2696+216324473+216213832+216051378+215886175+215663286+215334486+215013454
2683+214806615+214581619+214263050+213949605+213751837+213628108+213391150
2669+213009521+212621250+212364313+212201413+211976328+211702430+211436584
2656+211150991+210898750+210743527+210593250+210417263+210319762+210258684
2642+210084429+209731616+209306262+208939309+208647753+208484354+208382746
2629+208171177+207969087+207975550+208036700+207938325+207823845+207842484
2615+207841699+207714293+207564890+207450107+207277227+207006346+206764496
2602+206726610+206838483+206830913+206645374+206442981+206296042+206168833
2588+206005933+205772938+205421536+204977310+204665615+204578524+204504769
2575+204347457+204158740+203921729+203670344+203463827+203264719+203008068
2561+202710888+202466538+202288052+202048398+201730793+201557377+201557984
2548+201490425+201304689+201123543+201018276+200978336+200929113+200824167
2534+200750733+200883299+201180515+201345486+201196476+200916276+200863214
2521+201090263+201283872+201231292+201062054+200960661+200930095+200956358
2507+201059375+201150252+201153466+201185335+201337112+201512492+201640220
2494+201717117+201689586+201561876+201489925+201581480+201770161+201945202
2480+202039024+202069733+202064306+201992372+201938292+202015850+202078160
2467+202008119+202010815+202149648+202244774+202243453+202175036+202094265
2453+202062217+202091408+202211548+202447952+202729296+202890000+202909621
2440+202982822+203270611+203709730+204038583+204105500+204036048+204017604
2426+204053366+204028567+203990984+204131352+204445511+204660795+204635281
2413+204558956+204680113+205057796+205510252+205737516+205678205+205638855
2399+205825554+206106879+206286116+206354318+206481278+206662407+206656158
2386+206123091+204658492+202063770+198473974+194216688+189696573+185180922
2372+180493408+175499091+170736573+166682930+163473656+161332229+160634156
2359+161835409+165005654+170008987+176889150+183739819+186675766+184289097
2345+179371534+176219232+175585148+175951190+176685472+177628520+178493136
2332+179403207+180973431+183037371+184709237+185906062+187627295+190392683
2318+193438557+195829457+197434871+198828197+200487173+202341507+204171595
2305+205812842+207106096+208094244+208926883+209636651+210279520+210945456
2291+211598698+212151618+212608984+213037070+213353085+213414057+213351121
2278+213383437+213541106+213738696+213866834+213907291+213954372+214126503
2264+214407632+214619416+214748322+214938467+215128273+215197743+215235111
2251+215348055+215541843+215772873+215982212+216091907+216057752+216033863
2237+216142826+216276249+216395835+216570697+216808030+217029634+217128670
2224+217175769+217319744+217433224+217384572+217346311+217422833+217565290
2210+217797910+218119567+218404946+218532870+218539386+218576094+218748403
2197+219004786+219210036+219292986+219283523+219300056+219430711+219658064
2183+219917536+220136712+220266850+220334713+220464976+220688204+220840177
2170+220890115+220999739+221152997+221283349+221479690+221709899+221853588
2156+221896599+221916952+222039680+222297439+222615151+222889102+223054055
2143+223139647+223198459+223241397+223288318+223398423+223573375+223737810
2129+223843077+223932758+224083678+224322153+224639937+224916460+224987483
2116+224936456+224980877+225122977+225233511+225286698+225362452+225545384
2102+225754740+225852241+225896466+225979754+226076327+226177559+226296217
2089+226402323+226539388+226713036+226813322+226886345+227024303+227186185
2075+227320090+227433106+227559726+227610681+227503682+227418376+227516145
2062+227644265+227761655+228042748+228323770+228377332+228371494+228464067
2048+228591134+228705453+228762354+228750374+228830342+229026307+229227415
2035+229467033+229684102+229740449+229729326+229856679+230108420+230270981
2021+230190923+229934451+229877871+230284211+230805458+231045541+231119010
2008+231209333+231300210+231406495+231519886+231631598+231849792+231954738
1994+231541061+231167841+231628706+232450847+233031691+233395323+233683665
1981+234001002+234276150+234480311+234693184+234937266+235027447+234752263
1967+234604075+235109611+235786384+236247767+236670854+236933968+237013347
1954+237240325+237574569+237711456+237553662+237022810+236253034+236327860
1940+237666214+238878161+239278019+239417638+239704819+240124603+240538655
1927+240556455+239866487+239298819+239294213+239318709+240113569+241699289
1913+242461852+242275152+242317056+243090723+244113168+244913616+245475071
1900+245804227+245751986+245589354+245748933+245622938+245285265+246157861
1886+247724425+248697914+249302361+249874653+250398722+250865657+251160248
1873+250479154+248205215+246553185+248371007+251753429+253887000+254763542
1859+255327264+256003770+256701005+257244695+257517861+257256550+256026177
1846+254226905+254703374+258130592+260790409+261736832+262500751+262959777
1832+261631351+259843540+260507191+262429978+264494561+267166072+269215086
1819+270186183+270956048+271480045+271106682+270802896+272000274+273812080
1805+274649986+274089335+273254732+273964928+275573306+275506371+273716508
1792+274317063+278704219+282256736+283362827+283721942+284089824+284902074
1778+286156513+285773224+282792927+280562838+283070950+287974550+291926533
1765+293312289+292815858+293607683+295596815+297224618+298498000+297697213
1751+294855767+294101900+296924795+300178704+301752642+302079727+303177462
1738+304352041+302667230+301597062+306228818+311985161+316509507+319408461
1724+320637958+320535012+317421918+312217406+312385019+319565433+326631760
1711+330556783+330937109+329297683+328889148+328402877+325927384+326410585
1697+331182887+338579656+346521864+350537800+351392613+349873202+345457801
1684+345715935+354926384+363082947+366425394+367210185+369121098+370989662
1670+372672723+378990181+386534281+390199529+393408428+399394838+404302509
1657+403854231+398263144+399443829+411044643+416890828+421296945+432939002
1643+444922784+451768935+453938517+453202504+457611763+470881141+482082346
1630+488346707+493321760+498487457+504229803+512312308+519448587+523309300
1616+529774768+540570617+549282440+555128446+560865614+567488769+573850577
1603+579469016+584768012+589802946+594109545+597971222+602055467+605954780
1589+609382962+612829427+616692961+621102970+625485983+627756084+627289809
1576+629229253+634998879+638017491+639472234+644997690+652556787+658193294
1562+658717345+652710331+654583287+672051068+687602044+699194930+709581458
1549+720046544+728381433+732787300+734616478+739011275+755915941+775021433
1535+785479663+794031728+806314493+816509555+821852900+825103470+827868769
1522+832678707+841300046+850054504+858737118+867756601+873889806+874585541
1508+871331971+877055106+894990447+908123206+913714650+915028490+918510876
1495+927153711+933091308+932313160+932073916+939480112+949511559+956850695
1481+960923478+963473529+966204834+967468040+965516455+965485103+970452943
1468+974578073+974958863+975477558+977151549+973862985+963791973+960088125
1454+967312781+972959073+973187961+969772420+965954306+963480171+961615999
1441+958434059+951096923+939947529+933461100+932376506+928750930+923125064
1427+919878278+918644353+918925518+919079348+919455067+925930641+936485568
1414+944298977+948020036+948935875+949340661+952752131+959737901+965155947
1400+965450252+963581224+964718238+970401737+976984078+979458857+978397329
1387+979183905+982270004+982007408+979969338+981909996+986763570+991438032
1373+994999834+996044507+995071535+994518776+993931665+992134910+992938411
1360+996822156+997968597+995603656+993318059+992930270+994427435+995593943
1346+994004723+990267453+984751924+978409184+974480233+973182248+971956249
1333+969539032+967859971+969282363+971831414+973183747+973242951+972437950
1319+972845093+975631602+979139627+982664221+986466337+988665735+988217028
1306+987924723+989883021+993154873+996785234+1000495794+1003533402+1005422570
1292+1007260174+1009695817+1011611051+1014176742+1019726408+1026443153
1281+1031800852+1036529520+1041196555+1044732004+1046689159+1048668739
1269+1052084709+1054897642+1055398982+1055301142+1056058152+1058239553
1258+1061507835+1063620606+1063369078+1062727406+1064234712+1066579584
1246+1066858821+1066830969+1069548133+1073230270+1073741823+1070723355
1234+1068262288+1068464824+1069557131+1069905213+1068527527+1065718379
1223+1063549118+1063121408+1063970758+1064475812+1063356938+1061841419
1211+1061246809+1060648486+1058595276+1055099535+1051929950+1051051533
1200+1052192475+1052755876+1051713703+1050720592+1049743264+1047288553
1188+1044393777+1042317286+1040180305+1038707922+1038806833+1038084317
1177+1035770796+1034522730+1035909415+1038580944+1040210371+1039885072
1165+1038188013+1037078209+1037225683+1037874211+1039076000+1037993476
1153+1033708945+1031686087+1033701875+1036649070+1039076285+1040905106
1142+1041797949+1040731780+1037156838+1033544545+1032610067+1032799962
1130+1032157147+1032439597+1034219569+1035868922+1037294813+1038190513
1119+1037769873+1035647246+1032591356+1032797534+1036850106+1039159556
1107+1037722738+1034556867+1030669123+1027082755+1026750242+1031416920
1096+1036301488+1037325951+1036634073+1035141550+1033681378+1034800467
1084+1037612972+1039008297+1038170088+1038438255+1041566632+1043575064
1072+1043793312+1045320043+1047811961+1050143908+1051296419+1051830753
1061+1053524526+1055064612+1054856792+1051108809+1045759108+1046454129
1049+1053141308+1057602737+1057117822+1055374129+1052728667+1046517403
1038+1040404123+1039778947+1041860009+1042259296+1042612663+1042866404
1026+1039320957+1034698271+1033121263+1031844988+1031132399+1035285596
1015+1040596303+1041456795+1038633935+1033510480+1029847554+1031004493
1003+1033157042+1032600569+1032036597+1035555691+1040994590+1042643014
991+1040511675+1038599798+1039523349+1042946175+1047042025+1051118522
980+1053975304+1054581483+1053732633+1052175835+1051675566+1054316816
968+1058024234+1059973034+1062137153+1064673849+1063713589+1060994997
957+1061583393+1065133411+1068316350+1068803550+1067134344+1066600224
945+1067361947+1068227651+1070444761+1072822913+1073026163+1070408410
934+1066946306+1067010794+1068022473+1064189577+1059881693+1061230669
922+1065862782+1069309104+1070002196+1067743022+1065158692+1066265283
910+1070202304+1071924572+1069669754+1066150946+1064133015+1063873561
899+1062518728+1058734752+1055797912+1056266258+1056931569+1053856682
887+1051656570+1056033085+1063379362+1068892106+1071001520+1065916058
876+1054744383+1044720220+1038389121+1035524554+1035364082+1035640605
864+1036126662+1035669171+1033646527+1033088411+1033155471+1031953754
853+1031611386+1031414278+1029736145+1028334606+1027317999+1025967737
841+1024624545+1023068890+1021708773+1021606719+1023642361+1025774057
829+1025185018+1024385873+1024516921+1022940127+1021628073+1023115311
818+1024670108+1024122205+1023274854+1023192868+1023403046+1023585228
806+1021179580+1015240198+1009514992+1006184078+1005777721+1007602971
795+1007473137+1005187540+1004808463+1004990788+1002498513+998839015+996893072
781+997274790+997925676+996718531+994036932+990988255+986824916+981481715
768+977263029+975500125+976308554+977053780+974215137+969105823+959855523
754+946556794+940777812+946998502+955960566+960122691+959205923+954872187
741+949671388+946514373+945888769+945939760+944765038+942414595+938029367
727+929539505+920891671+916921085+915226669+912310397+907982302+902635958
714+897880510+897801738+903983435+911288291+914882230+916415602+917993967
700+919148121+919330875+917475344+914298475+912431018+910945280+909123315
687+908271108+906417578+905261424+907694496+909473896+909497749+909201444
673+905906382+898268656+889972045+893483213+905865675+911164384+910006231
660+908825511+908963915+908505567+909076895+911391344+911335997+908264538
646+901445382+887851776+879311137+888106731+899923507+900537613+903056384
633+912001594+916686055+914873017+907537238+897302540+892283210+895555276
619+899836380+896725784+888072451+878910565+873152722+875678777+882094219
606+880002087+869344464+864480892+874053635
##END=
