##TITLE=Sample description
##JCAMP-DX=4.24
##DATA TYPE=INFRARED SPECTRUM
##DATE=12/9/2023
##SAMPLING PROCEDURE=Instrument type and / or accessory
##ORIGIN=Default
##XUNITS=1/CM
##YUNITS=ABSORBANCE
##RESOLUTION=4
##FIRSTX=4397.6552
##LASTX=599.8556
##DELTAX=-1.9287962
##MAXY=1.6910136
##MINY=0.17528148
##XFACTOR=1
##YFACTOR=1.5748791e-009
##NPOINTS=1970
##FIRSTY=0.2130262
##XYDATA=(X++(Y..Y))
4398+135265109+133534303+132313544+131863892+131999678+133013092+133705902
4384+132662902+131469213+132150953+134097412+135635245+136187472+136182788
4371+136530613+137394701+137651862+137069698+136340100+135758380+135770103
4357+136096535+135663384+134952208+135332174+136065301+135279907+133610234
4344+133182855+133730087+133597347+133124656+133708012+135325683+136343818
4330+135484140+133701635+132663621+132856206+134025275+135390847+135999599
4317+135686480+134926869+133894315+132784050+132502175+133210805+133737136
4303+133844044+134731711+136461665+137406547+136954132+136100253+135622206
4290+135471376+135227697+134984416+135349338+136078605+136152653+135506545
4276+134962749+134731361+134698859+134834068+134961272+134935101+134359607
4263+133546869+133538618+134206043+134628899+134341251+133839938+134041256
4249+134961064+135549105+134656026+132948884+132177815+132411029+132630060
4236+132851872+133985441+135461999+135895103+135669250+135537769+135716058
4222+136063286+135829410+135171873+134992004+135183946+134956475+134567785
4209+134861006+135466730+135824300+135977799+135765798+135380912+135283257
4195+135140053+134888937+135239856+135817308+135479674+134303102+133544305
4182+133895488+134526740+134700411+134804907+135100257+135070755+134406453
4168+133876120+134053017+134177459+133602305+132956898+133181928+134047861
4155+134288899+133699582+133503174+133926097+133907211+133294514+133137467
4141+133819217+134307861+133787595+132828540+132411218+132758702+133182751
4128+132997016+132672875+133068803+133916001+134307142+133818176+132874704
4114+132281706+132406043+132824547+132621980+131865936+131602265+131780543
4101+131557283+131141883+131268907+131966146+132966748+133436980+132683377
4087+131943892+132178241+132576383+132750319+132983599+132937010+132553022
4074+132534515+132330841+131465977+131251157+131649630+131527308+131520420
4060+132282822+132854777+132796795+132677549+132480252+132112680+131653945
4047+131173381+131170505+131717490+132305019+132509990+132227007+131710384
4033+131324760+131346938+131577919+131659111+131732676+131885900+131788387
4020+131587902+131774365+132201148+132548499+132449084+131731635+131287982
4006+131476489+131231069+130429675+130135282+130154650+129714261+129614666
3993+130687377+131988778+132441884+132260918+131834646+131161932+130595824
3979+130476218+130483655+130281476+129938552+129556817+129470194+130149200
3966+130975563+131022115+130702610+130324328+129815956+129824509+130152389
3952+129775904+129003444+128933834+128817852+128062442+128551834+130090915
3939+130333582+129065325+127146958+126052911+127269620+128791917+128124899
3925+127267870+128016656+127822633+126345810+126900384+129786114+131596143
3912+131175160+129486960+125858736+120689917+118145426+119775880+123128095
3898+126710817+127941908+125515425+123718879+125449798+125347753+123255356
3885+123609312+123734709+124102384+126738796+126177788+122607451+119883906
3871+118624467+120403849+122011643+121323960+123041870+126739496+127169609
3858+122268454+113469935+111298371+121227403+128326416+129024118+126020741
3844+121971534+118542093+116320665+117766236+122221590+124600745+125109543
3831+126028140+126456598+125847969+123017837+117545909+116825413+121083688
3817+123720194+127819596+131738003+130829824+126236470+123097912+122651278
3804+120321835+120418733+125179617+127321225+128543952+130912889+131983764
3790+131965805+131357763+130504282+130735717+130489777+129513434+131547244
3777+135173273+136237686+134551909+133033595+134327844+136705713+138868515
3763+139618238+137650859+136861993+138971942+138577745+133583817+130725186
3750+135681967+138751075+138523198+145004016+153278381+154735874+152092612
3736+152058143+159074205+170221545+178850803+182773525+185849493+190955146
3723+197121843+203907624+210460607+215012405+216394487+217384549+225677195
3709+241111252+256248493+267839912+278474235+293152863+309293640+320657031
3696+324741000+320366592+309451992+300113593+298469211+298884772+296288687
3682+291088833+284643165+277389366+273808934+278612623+282030691+281710334
3669+285239863+289640802+290459965+289446722+287603378+283804832+279916248
3655+278231711+273876869+265656039+263502159+270985462+278063007+281055787
3642+281608488+281267580+280506096+279649672+278221019+274670069+271484799
3628+275690257+281683028+282535307+280057304+278152421+280012493+282521095
3615+282794238+282950395+283407645+284246811+286973810+289516928+289854032
3601+289713998+290495409+291067733+291438105+292640508+292817765+290718574
3588+290721962+295004307+298824633+300422766+300885390+300608198+299988603
3574+300043595+300143038+297915754+294522608+295347807+299456094+301935137
3561+302975327+304017902+304019303+302690982+302234943+303120982+303290575
3547+303123310+304179793+305618779+306380074+306636866+306947799+307316563
3534+307146156+306375418+305593573+305470872+305976283+306589557+307183909
3520+307492874+307395531+307337587+307045559+305841698+304453788+304146223
3507+304324559+304186530+304589678+305496116+305875269+305877691+305827998
3493+305600215+305100197+304250851+303413011+303020668+303135459+303722789
3480+304239686+304329819+304252914+303905913+303403303+303186193+303206308
3466+303035315+302426790+302101986+302535298+303099428+303496293+303719118
3453+303618747+302923742+301784014+301327520+301608006+301628538+301547791
3439+301638472+301719730+301911861+302000613+301792075+301730252+301721566
3426+301174732+300312517+299758246+299661414+299895120+300206072+300315905
3412+300272343+300153787+299960066+299862629+299966084+300196894+300240021
3399+300145176+300217389+300166030+300140124+300379034+300444434+300515510
3385+300795768+300706638+300337932+300542836+301025803+300963015+300786004
3372+300845216+300889175+301153745+301672554+301980894+302167008+302634949
3358+303303102+304007532+304720610+305418303+305841358+305725129+305732169
3345+306254667+306423901+305955732+305666144+306006693+306774251+307629521
3331+308266109+308612903+308595644+308169637+307887619+308198704+308606374
3318+308620434+308757914+309194991+309014442+308106489+307517153+307813647
3304+308375336+308319549+307900847+307713182+307686500+307846990+307968953
3291+307750915+307518231+307221321+307060641+307508732+307677719+306958567
3277+306410881+306723517+307015830+306576160+305992898+305854207+305909350
3264+305511293+304836403+304584644+304525489+304410755+304397187+304258667
3250+304177239+304618952+304964497+304345526+303466678+303474209+303986546
3237+304006775+303587789+303410891+303828193+304608828+305023235+304720591
3223+304036864+303389678+303191681+303455853+303562147+303307133+303112542
3210+303154420+303333134+303218420+302471828+301441270+300341262+299238813
3196+298489554+298021025+297280338+296581397+296481007+295809732+294046415
3183+292602055+291853704+291358323+290837528+289791339+288436923+287433028
3169+286864886+286714254+286759860+286261792+285259013+284570650+284360201
3156+284177948+283626402+282659938+281544034+280728921+280363147+279986549
3142+279398443+278729362+277918053+276922616+275831049+274972316+274510411
3129+273964561+272884328+271434859+270075372+268977635+267885121+266459590
3115+264720193+263309839+262600262+261961535+260990151+259626443+257554351
3102+255369720+253812141+252215692+250187143+248585642+247869859+247400479
3088+246530600+245440149+244580376+243771753+242667866+241571132+240754240
3075+240006286+239323429+238736572+238028376+237409954+237192882+237075632
3061+236734951+236087103+235215748+234629629+234553386+234438482+233850565
3047+233029907+232408079+232047320+231661393+230979160+230001569+228844337
3034+227585976+226577388+226120555+225787159+224977023+223738703+222637484
3020+221939962+221335940+220734739+220188586+219362951+218277836+217378796
3007+216596553+215581493+214502585+213713719+213176574+212548198+211551683
2993+210647307+210663543+211386783+211891418+212001629+212159224+212316876
2980+212030676+211490825+211435190+211843522+211777687+210993192+210379047
2966+210210230+209805076+209025823+208218733+207491708+206942395+206588354
2953+206210962+205670827+205145773+204803503+204542604+204303713+204087133
2939+203806875+203441328+203043763+202539980+201887798+201267030+200703089
2926+200067144+199322501+198417577+197268273+196073837+195375955+194996367
2912+194196468+193349904+193165002+193233221+193015960+192610976+192137263
2899+191669189+191327032+191095086+191021454+191095918+191138250+191087100
2885+190959214+190774464+190540322+190306711+190310647+190528911+190571679
2872+190435997+190342439+190156420+189800317+189488835+189272311+188983727
2858+188648591+188273488+187609763+186694336+185749104+184831614+184224300
2845+184100256+184104551+184016670+183932234+183956323+184084398+184135775
2831+184073441+183969778+183686625+183150766+182612656+182338870+182229908
2818+182061204+181783085+181491908+181315729+181214488+181138018+181122331
2804+181192972+181359556+181542509+181660744+181666421+181564177+181463485
2791+181397593+181210533+180887943+180709494+180668884+180474539+180157513
2777+179994467+180040622+180033223+179808941+179402671+178871600+178478595
2764+178465557+178591456+178567593+178464308+178284023+178030996+177949360
2750+178076148+178131007+177904833+177580540+177473054+177463025+177246217
2737+176976973+176957993+176994742+176857490+176700159+176565518+176356715
2723+176131695+175945866+175780190+175633892+175483393+175358668+175322410
2710+175340369+175384082+175334351+175081722+174897974+175011856+175158721
2696+175103654+175000785+174935840+174756425+174484551+174359788+174369950
2683+174251658+174030915+173867094+173656777+173400382+173267501+173163629
2669+172872244+172469437+172225891+172134415+171853192+171344337+170973303
2656+170810371+170607983+170290484+170013783+169910101+169845515+169603426
2642+169220224+168871160+168616903+168382402+168051732+167583695+167145085
2629+166975454+166959804+166754824+166302968+165787395+165424706+165254678
2615+165001802+164604181+164349791+164218821+163973420+163645740+163319063
2602+162998819+162711711+162461314+162354396+162418093+162454767+162415765
2588+162361738+162222764+161938910+161646012+161576127+161678200+161684294
2575+161616756+161600406+161462415+161147451+160900839+160811085+160713780
2561+160488400+160197697+159913294+159662747+159532685+159533063+159475365
2548+159216661+158915455+158749590+158657177+158544090+158397593+158224149
2534+158052484+157932915+157822222+157633914+157385731+157163843+157108567
2521+157222146+157252727+157089511+156897929+156728043+156499579+156333354
2507+156299083+156271587+156297257+156370652+156286215+156106375+156043928
2494+156125999+156349259+156659861+156943639+157195634+157394985+157569034
2480+157855896+158111828+158094712+157985986+158032898+158153271+158237462
2467+158369510+158624515+158860444+158941343+158907583+158821121+158743762
2453+158660309+158595268+158716181+158931427+159056114+159183886+159347045
2440+159498622+159673230+159749095+159673836+159633131+159651865+159656067
2426+159728601+159921659+160135400+160270893+160268849+160170750+160158374
2413+160201425+160157200+160144389+160262756+160426842+160568882+160746631
2399+161021666+161281127+161404660+161482379+161622849+161713114+161523084
2386+160849765+159520082+157347600+154258717+150526167+146597494+142711957
2372+138706283+134378493+130048422+126203741+123090797+120938894+120187373
2359+121264143+124280057+129109842+135600028+142072794+145028267+142826898
2345+137772623+134231343+133348834+133692750+134569186+135586327+136275107
2332+136783006+137893090+139746360+141563003+142931593+144438940+146691203
2318+149308748+151424213+152783795+153914961+155272045+156778739+158247491
2305+159600885+160775225+161729692+162428860+162922576+163377271+163818304
2291+164195734+164615951+165104917+165498659+165652451+165611936+165599901
2278+165681840+165719933+165677582+165625788+165591328+165534917+165482556
2264+165530621+165672964+165813037+165913180+166025132+166176312+166310121
2251+166387480+166455643+166508894+166491900+166466808+166480054+166517693
2237+166604325+166676273+166691260+166743243+166820413+166878017+166943057
2224+166935052+166885794+166952538+167041138+167016745+166917643+166824747
2210+166834587+166914388+166958480+166997538+167033285+167038318+167091607
2197+167226135+167407801+167541515+167519412+167472387+167538998+167586742
2183+167585682+167674282+167795318+167855892+167926477+167967295+167889538
2170+167860471+168012768+168182759+168261746+168273459+168201871+168144079
2156+168215667+168331214+168403559+168446042+168455788+168477550+168583484
2143+168717311+168785966+168802240+168837438+168911883+168984361+169030137
2129+169064899+169114858+169142656+169121348+169140196+169194355+169168071
2116+169132892+169214906+169320027+169370155+169455671+169605527+169725597
2102+169775384+169807819+169811415+169784638+169859235+170108704+170424292
2089+170682826+170990410+171471730+171993245+172430303+172855478+173352732
2075+173806084+174106288+174373450+174604564+174673616+174788425+175224557
2062+175834368+176451787+177120092+177757419+178330405+178944172+179637096
2048+180399772+181159099+181827347+182471959+183223262+183996517+184626615
2035+185085568+185365674+185502851+185587705+185589313+185415008+185138346
2021+184827186+184404433+184034042+184018714+184225303+184257038+184043845
2008+183831768+183745193+183756585+183848326+183920747+183898871+183768261
1994+183377035+182987399+183239234+183980243+184666278+185190896+185606458
1981+185905034+186102539+186377101+186887072+187546293+188012286+188074166
1967+188282931+189182368+190300977+191168850+191892316+192465757+192872595
1954+193283349+193740883+194145204+194336427+194102796+193629764+193944993
1940+195340019+196607292+197196912+197479138+197748667+198134215+198644697
1927+198938656+198689376+198541015+198798887+199000763+199861539+201517105
1913+202618891+202858766+203046961+203679992+204437029+204949347+205287095
1900+205455987+205224344+204866235+204804203+204378291+203653386+204007540
1886+205026025+205512512+205615418+205757118+205999945+206174912+206075507
1873+205084442+202752851+201081522+202550445+205295648+206809495+207245702
1859+207524919+207996608+208498518+208800405+208827958+208444321+207242182
1846+205411820+205403399+208026204+210159647+210844093+211255870+211322292
1832+209862906+208041816+208337194+209675980+211141136+213158293+214577333
1819+215042418+215367146+215430900+214717292+214171007+214978059+216298904
1805+216699100+215794289+214717860+215130166+216322483+216013953+214271907
1792+214652309+218179377+220873562+221452755+221357513+221271638+221657641
1778+222518549+222002409+219246855+217143879+219061063+222931197+226016608
1765+226994748+226335735+226581098+227614684+228365684+229060898+228099070
1751+225437717+224680926+226985910+229644765+230962545+231194624+231912811
1738+232521071+230636152+229561540+233586259+238384556+242113803+244536019
1724+245499228+245207105+242240515+237577087+237747248+243909668+249884329
1711+253169005+253418114+252024110+251673968+251116158+249027886+249699180
1697+254060418+261091524+268556037+272099568+272880449+271848320+268634267
1684+270082525+279145643+286708066+289965076+291274075+293920119+296469502
1670+298972900+305895271+313665683+317843135+321894064+328492369+333808565
1657+334115089+330179178+333036181+344309742+349433296+353278223+363400739
1643+373268771+378415564+379429488+377543831+379423395+388530170+395751855
1630+398464094+399715925+400993379+402723825+406558117+409874888+410355698
1616+412699381+418670105+422823714+424046062+424435320+425264210+425947918
1603+426275863+427093588+428491585+429894048+431576504+434047770+436997613
1589+440168748+443725355+448069902+453713325+459980657+464175481+466000166
1576+471466881+480646663+486558232+491543985+500406078+510612388+519040450
1562+522902144+522326110+531039427+551500566+568859300+583130883+596109949
1549+608722351+618804182+625227293+629875260+637447826+656321581+676208504
1535+688795170+700459729+714273475+725646082+734937551+744533008+753126046
1522+762882656+776450623+790889679+806098318+820977461+832487377+839172617
1508+842215904+853846552+875900904+891249654+898716664+903771980+912745155
1495+924334852+930944701+933108421+937733718+946750114+954523383+959195308
1481+962820684+966626591+968987116+967010133+962926353+964401256+971345749
1468+976275866+977480162+978929555+979830847+975421278+966271736+963181973
1454+968366045+971601671+969353476+963861177+961929611+964023768+963727274
1441+959678464+953207212+943702437+935153604+929651389+924590169+922164925
1427+921885462+920481637+920140407+921405788+922204740+926043574+934879818
1414+943424714+947770321+949163474+950441268+952290100+954789978+957938102
1400+961247076+965694340+970941693+974970065+977327259+978050896+977226662
1387+975641624+975592423+977122128+978771657+981717450+985705099+988608352
1373+990147518+991231460+992515386+993772970+993131688+990185138+989152669
1360+990993326+991512210+989767079+988235406+988720833+989598432+988631211
1346+986030281+982922200+979670602+975801339+971705826+968539611+966881150
1333+966541737+966772075+966963279+967035567+967710911+969135477+971118742
1319+974269060+977802392+980294398+982912662+987030505+990906959+992929888
1306+994480181+996802708+999688173+1003217947+1006135506+1005776791+1004363958
1292+1006553111+1010658918+1013972661+1018897178+1025841671+1031211345
1281+1033860038+1036226391+1040431131+1046500977+1052441916+1055944364
1269+1057206793+1057984249+1058419491+1058041474+1058499499+1060385422
1258+1061470574+1062037676+1063809602+1065599014+1066178681+1066799601
1246+1068368440+1069444963+1068826844+1067902390+1068623681+1070741227
1234+1072287812+1072906688+1073579686+1073741823+1072489537+1069705881
1223+1066590003+1065193445+1065129104+1064348394+1061867818+1059250462
1211+1058307615+1056849668+1054481497+1054781095+1056783208+1056969416
1200+1055913254+1054441455+1051720928+1049392725+1048927054+1048698078
1188+1047631698+1045130760+1041083313+1038617270+1039486921+1040281257
1177+1038424098+1035722268+1033378320+1030824169+1028606479+1027425119
1165+1026823274+1025456538+1023310001+1022173679+1021292901+1019740033
1153+1019172856+1019263386+1018738371+1017715136+1016653449+1016486694
1142+1017516969+1018428857+1017114048+1014268701+1012672991+1011565811
1130+1009927182+1009216716+1008849296+1008140571+1007401568+1005379018
1119+1002777633+1002738197+1005657270+1008464845+1009459770+1010117629
1107+1011640900+1013468992+1014117086+1014367634+1015697733+1016742011
1096+1018000049+1020632317+1023146501+1025566598+1028478253+1032134512
1084+1037700688+1043134778+1045010709+1043804521+1040975827+1038214804
1072+1036016643+1033384981+1033439027+1037859495+1043423098+1048320440
1061+1050745456+1050806617+1052134824+1054464693+1054854973+1052665441
1049+1051003195+1053339877+1055976913+1055863296+1056489212+1055646962
1038+1049838110+1045091626+1046673333+1050266463+1049759690+1046794292
1026+1045922446+1047162091+1046934251+1044145599+1041918145+1042559729
1015+1045278061+1046635259+1044940162+1041119116+1035772756+1032842556
1003+1035038673+1039319031+1042877872+1044035010+1043708389+1045750696
991+1049224229+1049921070+1048439885+1048567657+1050826071+1051760214
980+1049392346+1046714132+1048107058+1053793210+1059189604+1061810820
968+1063822016+1065425069+1064667824+1062327433+1061822704+1064362624
957+1064959776+1061543998+1061605991+1067034102+1069292667+1066394864
945+1063614690+1062183539+1062938210+1066419237+1067968698+1065843053
934+1063596901+1061702956+1059930121+1059838455+1061116401+1062589260
922+1062393741+1060755567+1061690920+1063953270+1062449755+1058812874
910+1055842253+1052829622+1052384918+1055575279+1056942847+1054764518
899+1052313160+1050842345+1050756584+1052405583+1053601855+1052512766
887+1051260632+1050851126+1050299844+1048936894+1043998374+1036980760
876+1034580571+1036233961+1035920738+1033803721+1031841575+1028036879
864+1023133633+1020747978+1020844866+1020637388+1019921472+1020011473
853+1020458826+1022145823+1025194258+1025778996+1023004499+1019206010
841+1016103530+1015854420+1017434462+1018100647+1018686596+1018500388
829+1014881598+1010423358+1008632735+1008330488+1009829688+1014856467
818+1020434074+1022530577+1020135611+1014584725+1009008708+1006272664
806+1005162456+1001992079+998646166+998439596+998375180+996721337+996729890
793+998640337+998569185+996310847+994802185+992186797+986350014+982076089
779+982150875+981589300+977334753+973242571+972290564+971620594+966694791
766+958678165+952561086+949273230+946925876+943567095+937428065+932236348
752+933380618+936926515+935150349+929684922+927354220+929065667+929974301
739+926322886+919674130+914213926+911157695+908571525+905398271+902016176
725+896808412+889351242+884944474+886139308+887591653+884793086+879843212
712+878132068+880032447+880999971+881827764+885454351+888850070+888693535
698+885235670+880610373+879480863+884248087+888789969+886623070+882406900
685+882170431+884162780+885964530+887833951+890308320+893546066+895927861
671+894286734+889866190+891026507+896395576+898825512+899765711+900437119
658+900954413+902390787+903976657+904775383+906601809+910099262+912484237
644+911802913+908106838+904137810+905021389+908784075+909355112+910344814
631+914858916+916841727+912472353+904757822+899946544+898413433+893327536
617+884452613+877739214+873240630+869322393+869360770+872239573+871702750
604+869221644+868035136+870444408
##END=
