##TITLE=Sample description
##JCAMP-DX=4.24
##DATA TYPE=INFRARED SPECTRUM
##DATE=12/9/2023
##SAMPLING PROCEDURE=Instrument type and / or accessory
##ORIGIN=Default
##XUNITS=1/CM
##YUNITS=ABSORBANCE
##RESOLUTION=4
##FIRSTX=4397.6552
##LASTX=599.8556
##DELTAX=-1.9287962
##MAXY=1.8560191
##MINY=0.26557887
##XFACTOR=1
##YFACTOR=1.7285525e-009
##NPOINTS=1970
##FIRSTY=0.279881
##XYDATA=(X++(Y..Y))
4398+161916399+162755304+163999619+164198927+163404918+163137318+163361074
4384+163644899+164042929+164000585+163507590+163233248+163535693+164557199
4371+165870617+166428180+165627102+164472114+164206031+164368960+164449304
4357+164507769+164172755+163710432+163610554+163807845+164238737+164177393
4344+163430539+163374091+164128566+164335116+163928809+163920982+164224599
4330+163724794+162598409+162384549+163439728+164193600+163538158+162889527
4317+163687484+164638250+164159376+163089421+162805855+163007112+162948216
4303+162499031+161686574+161046943+161279819+162284637+163252213+163457056
4290+163315816+163704019+164504079+165347864+165896013+165479518+164522062
4276+164191169+164570561+164880334+164518614+163936516+163870810+164020981
4263+164115739+164482804+165345502+166374301+166500817+165443380+164383839
4249+164445287+165215796+164899144+163626571+163318643+163821328+164149635
4236+164187858+163920378+163775897+164124911+164969678+166096942+166803297
4222+166777763+166317474+165498759+164740715+164864127+165729808+166490455
4209+166700143+166541972+166287526+165770428+165075453+164925765+165488000
4195+165625447+165036281+165151090+166098132+166641299+166481731+165956099
4182+165353536+165026315+165202296+165382467+164820059+163759346+163379436
4168+164534803+166348457+167078622+166624385+166143200+165898324+165495035
4155+165036195+164919213+165274140+165892358+166417835+166566524+166455973
4141+166209734+165719567+165398087+165633550+165794152+165234451+164476528
4128+164213686+164521355+165241037+165756515+165714463+165807307+166309268
4114+166267061+165470207+165115401+165434915+165514362+165225279+165001333
4101+164731836+164434735+164436908+164438425+164584078+165222106+165547258
4087+165433104+165657188+166075442+166107183+165764463+165166555+164323736
4074+163865810+164164772+164602423+164722129+164545958+164317874+164304081
4060+164376598+164379201+164525476+165066729+165825117+166083684+165388743
4047+164494562+164495441+165154538+165407104+165011522+164574648+164489907
4033+164604664+164761973+164876231+164879438+164870334+164565027+163807449
4020+163427642+163910137+164605647+164915437+164804852+164521803+164612595
4006+165173452+165516379+165529689+165392381+164709870+163907327+164089290
3993+165168659+166066856+166202079+165996547+166021822+166230613+166291147
3979+166052425+165582051+165021815+164695819+164942316+165302295+165355450
3966+165591672+165937892+165710067+165137193+164983436+165101849+164908161
3952+164813318+165325261+165828600+165479466+164830852+165185021+165969426
3939+165722256+164609768+163774656+164101808+165397363+166147735+165388536
3925+164271444+164077325+164168945+164259116+165128383+166380508+166512076
3912+165575051+164477804+162669426+160368381+160075039+161984536+164131738
3898+166148493+166675091+164638492+162761201+163519693+163985947+163219713
3885+163164697+163117163+163737639+165338967+164453873+161924589+160739997
3871+160832238+162257792+163139318+162634685+163604468+165420001+164877472
3858+160908668+154522441+153642347+161622747+166567627+166464542+164259496
3844+162287671+160932737+159337081+159094825+161073408+162290137+162515134
3831+163419746+164402305+164553751+162649736+158714156+158271988+161123080
3817+162406429+164868558+167600340+166934571+163682743+161831952+162455376
3804+161442404+160934840+163480969+164783094+165525155+166872710+167412722
3790+167825545+168284764+168106456+167903803+167352809+166388250+167096639
3777+169162238+170108573+169022102+167550444+168101542+169692647+171045046
3763+171359888+170251434+170594085+172858786+173107473+170444639+169898558
3750+175387950+179631096+181693833+188067785+194527925+196270028+196243545
3736+197687065+201137133+206257425+210843636+212694841+213208491+214420754
3723+216200270+218260439+220558484+222541257+223553539+225861860+234133120
3709+246104945+256996694+266227668+276124066+289165328+301908817+310473384
3696+315370748+316947421+314676272+311482995+311445167+311403237+307544552
3682+300318489+291651475+282578948+275275902+273365370+272124659+269300343
3669+269553927+271147721+270991774+270208575+269498462+268221872+267647550
3655+268723918+267947375+264814597+265113938+270837724+275963516+278463387
3642+280289092+282299123+283601041+284227965+284684857+284249155+283506111
3628+286135463+289529738+289400291+286107049+282467932+281781197+282279710
3615+281934110+282808445+285397608+288528214+291479546+293095046+293588524
3601+294121208+294552376+294529066+294813580+295499677+295436850+294635927
3588+294444688+294812891+295161784+295495677+295377264+295038440+294755926
3574+294372757+294474860+295363781+296518804+297148970+296882800+296600148
3561+296707319+296514459+296102670+295777605+295680295+296334116+297426071
3547+298173684+298017789+297130246+296593769+296881387+297238590+297033592
3534+296670734+296574872+296878318+297470311+297646586+297078971+296193566
3520+295411540+295149094+295440057+295456332+295081853+295113577+295347471
3507+295235403+295024716+294746995+293981141+293068667+292914600+293438732
3493+293752177+293486008+293002806+292713464+292410881+292090057+292271158
3480+292541466+292146711+291356754+290862655+290941517+291083653+291089067
3466+291279720+291181618+290683657+290475832+290505142+290214869+289737012
3453+289619048+289384360+288696126+288511645+288686178+288265906+287661689
3439+287358847+287256882+287466191+287743774+287591775+287119280+286921317
3426+286919593+286254410+285368091+285539038+286480546+286967385+286499287
3412+285710174+285165318+284669030+284374498+284709495+285232765+285177456
3399+285012768+285589934+286310289+286203531+285626641+285483832+285727605
3385+285762949+285366367+284752719+284668995+285374505+285950603+285917603
3372+285801484+285958430+286275030+286661820+287139125+287498449+287551483
3358+287327709+286875248+286716112+287345899+288092443+288056081+287632654
3345+287723222+288243131+288725178+289101760+289419636+289634668+289526635
3331+289201638+289138570+289424463+289698288+289705323+289599979+289581324
3318+289345257+288449456+287364467+286870714+286847387+286976402+287413329
3304+287879014+287219434+285837156+286233876+288624385+290231076+290279179
3291+290766898+292056367+293031323+293751419+294579824+295293713+295390023
3277+294962234+294947027+295907776+297393036+298356302+298594059+298745540
3264+298549852+297761688+297488622+298187614+298867194+298701816+297628482
3250+296323047+295561676+295333851+294977751+294391136+294341827+294720202
3237+294677444+294446825+294636513+294670582+294019623+293271838+292788843
3223+292574362+292594155+292509087+292388916+292755567+293173459+292719636
3210+291992747+291889335+291864024+291352306+290910103+290542728+289495049
3196+288388957+287926772+287167711+285445504+284020433+284060553+284507031
3183+283666316+281726388+280890103+281618820+281677767+280314075+279011140
3169+278987123+279199328+278001840+276529355+276989557+278638488+278814556
3156+277032195+275156593+274962388+275533348+274684978+273072167+272965150
3142+274689305+275591675+273744935+271095446+270711950+271919092+270646381
3129+266991678+265664881+268510541+271035515+268732625+264629719+263997846
3115+266584268+266801438+262677429+259151069+259775942+261822765+259536358
3102+254049949+251883213+254340274+256176117+252787600+247684980+246932471
3088+251175754+254171258+250586916+245213350+244149086+246578181+247093934
3075+243601470+240666708+241565440+244702890+245532778+242611963+239844044
3061+240083507+242298277+242613619+240147075+238196112+238190733+238870537
3047+238473006+237060193+236063807+235890205+235961032+235607053+234662166
3034+233681297+233469765+233882657+233877640+233186957+232576222+234602218
3020+245316005+264907423+277603706+271781611+257765273+246735714+240080990
3007+235791654+232727721+230777051+229686580+228831761+227689324+226562198
2993+226317080+227651963+229423031+229377721+228116958+227797306+229114965
2980+230968825+230901981+228899743+227466189+227579429+228758296+229148326
2966+227390465+225390486+225681069+228888657+231487561+229368859+225428537
2953+224030931+225666742+228342559+228239094+225298952+223272801+223833002
2939+226245149+227304880+225020783+222220501+221612956+223566263+225953549
2926+225226091+222182812+220271401+220573277+221906694+221670800+219457271
2912+217765582+217930201+219408306+220145178+218850209+217366413+217289294
2899+218262370+219267411+218858312+217219260+216140892+216293097+217326121
2885+218133147+217629204+216595335+216395079+217265708+218189698+217948856
2872+216970797+216403613+216497164+217020417+217348379+216917470+216151305
2858+215793688+215962531+216066065+215440864+214319014+213430471+213057372
2845+213093285+213248421+213307162+213316904+213376748+213539901+213756554
2831+213960724+214178860+214290859+214220101+214127154+213918346+213487471
2818+213164302+213077578+213010303+212892287+212743254+212634135+212663100
2804+212793668+213040475+213395489+213569522+213374524+213061458+213021717
2791+213324317+213559746+213385386+213080544+212941011+212807823+212664669
2777+212687307+212789478+212698703+212353276+212018658+211846160+211776971
2764+211788678+211804316+211797350+211843212+211887953+211870091+211862608
2750+211916073+211972624+211939056+211864332+211887435+211944952+211888142
2737+211784281+211777730+211826436+211868832+211966659+212067451+212103864
2723+212155398+212234742+212305776+212295828+212123226+212000745+212072503
2710+212067934+211934935+211908125+211971935+211991745+211997883+212038468
2696+212050486+212055779+212062192+211912780+211706575+211768971+212027106
2683+212093226+211896263+211636352+211497095+211587232+211697748+211614318
2669+211505405+211522836+211514612+211236597+210785568+210473743+210290176
2656+210133850+210080144+210070851+210051523+210087161+210039265+209853991
2642+209683406+209505581+209312721+209205601+209191791+209145998+208922052
2629+208642693+208521453+208447247+208223146+207959304+207832253+207760564
2615+207598152+207339672+207060692+206789092+206545646+206379492+206159098
2602+205807464+205522863+205369054+205339934+205430071+205386313+205193677
2588+205052868+204821146+204456236+204247049+204270376+204326824+204294169
2575+204182325+204031103+203876708+203673986+203412299+203204111+203061630
2561+202882252+202652979+202388844+202082364+201934659+202086192+202222449
2548+202088657+201846056+201681523+201584369+201508474+201483353+201433612
2534+201264993+201111236+201038168+200947048+200800619+200544328+200246193
2521+200144988+200241418+200308331+200241504+200125764+200087781+200172884
2507+200271193+200238711+200140281+200114971+200149712+200203315+200269210
2494+200297693+200305693+200370347+200473570+200616983+200801705+200984496
2480+201210597+201360630+201273028+201153322+201149719+201111305+200974962
2467+200861446+200941824+201222632+201481250+201576387+201555094+201540215
2453+201646317+201802057+201833522+201787660+201897952+202250173+202642927
2440+202859684+202930200+202955286+203003493+203157646+203367196+203471643
2426+203426712+203409126+203598624+203904639+204131895+204276583+204443323
2413+204564632+204559597+204570804+204711958+204906283+205010282+205036627
2399+205211849+205810860+207346500+210916963+218020614+230092282+248038183
2386+271442442+298250131+325941363+353153910+380246182+408680440+439421123
2372+471503206+502948985+532244994+558142347+578497724+592407339+601227386
2359+602186341+588788480+562766093+532739368+504774001+488151655+491839790
2345+511288796+521776584+513075847+500119222+490581906+486450638+489516676
2332+495429408+495584786+490349115+487051287+486744808+483942181+475329029
2318+461708411+447419937+441226725+445415406+448739820+440413492+421478964
2305+399988875+383957523+374141693+365590437+355757503+344360138+330803347
2291+316284393+303042461+291560407+281450597+272914185+266085635+260670484
2278+256123324+251926281+247960322+244394393+241441217+239048914+236886936
2264+234848061+233046700+231474233+230055576+228709193+227348776+226041686
2251+224965956+224138309+223405179+222731203+222165209+221632042+221082703
2237+220590777+220202936+219899180+219697234+219609821+219543288+219414737
2224+219279825+219274773+219419013+219571632+219645924+219691993+219815630
2210+220058282+220313142+220488105+220654914+220894067+221136013+221319149
2197+221570974+221961763+222337638+222542101+222628342+222826599+223140388
2183+223344679+223433023+223504264+223563746+223627194+223657969+223622108
2170+223657107+223787985+223845881+223789537+223626245+223394110+223232560
2156+223128337+222962873+222752306+222513119+222250880+222049589+221937487
2143+222066399+222508912+223006097+223461661+223880088+224199102+224476633
2129+224768285+225074058+225379710+225649725+225898308+226214581+226584939
2116+226956608+227314121+227550998+227674669+227853271+228135975+228409127
2102+228687400+229001931+229269394+229632942+230184040+230813775+231454268
2089+232032038+232575291+233239957+234153464+235301987+236588526+237850771
2075+239073690+240530899+242328863+244349997+246536354+248913192+251418269
2062+254056794+256983091+260149145+263518058+267065591+270697070+274413635
2048+278131563+281772387+285311282+288666023+291630889+294185725+296515218
2035+298532576+300098629+301170101+301851128+302284331+302454019+302322882
2021+301859197+301163549+300168422+298725678+297066902+295429815+293851038
2008+292254572+290540969+288748091+287078626+285607641+284161000+282703291
1994+281352012+280151818+279077363+278056236+277037677+276115463+275411780
1981+274806614+274222362+273801366+273506697+273179769+272837583+272606085
1967+272591965+272747256+272888582+273048736+273408991+273889279+274320550
1954+274724632+275171886+275671623+276179307+276615182+277089539+277931099
1940+279035260+279983388+280802587+281638389+282417070+283116546+283806366
1927+284391671+284763080+285096043+285392988+285642882+286297961+287172866
1913+287560931+287581276+287791566+288266734+288736902+289110346+289424463
1900+289711460+289945941+290168490+290433005+290501073+290539555+291053412
1886+291707509+292113574+292545742+293117460+293562041+293772246+293879211
1873+293715488+292958013+292275296+292858980+294183483+295050681+295088267
1859+294615237+294191449+293976451+293856625+293787315+293574041+292699154
1846+291254479+290756967+291372167+291403478+290842966+290542038+290181697
1832+288742901+286812335+286233686+286614837+286911955+287144746+287309571
1819+287497742+287476449+286869197+285845535+284984992+284812614+284970544
1805+285049646+285049146+284602324+284045605+284070122+283661006+282504983
1792+282782273+284760546+286203945+286770991+286865369+286707147+286892955
1778+287263762+286685078+284840597+283701436+285730277+289035036+290878690
1765+290943724+290559934+291246858+292533983+293483077+294103588+294072760
1751+293391491+293196907+294410102+296237255+297341796+297561069+298150546
1738+298927090+298556818+298938710+301842715+304649100+306723630+308204097
1724+309036089+309048675+307569897+305732812+307126557+311226342+314487067
1711+316220394+316467219+316029361+316377737+316495391+315562401+316130257
1697+318811781+323158047+327813309+330472006+331766647+331414237+329184674
1684+330375351+336525667+340950001+342315849+342868292+344638273+346241602
1670+347849688+352256815+356961526+359443396+362206851+366742183+370284354
1657+370566385+368273857+370525282+378077204+381703788+384615482+391412756
1643+398075205+401842925+402859638+402017751+404026213+410939727+416368189
1630+418772267+420307045+421801822+423467012+426438912+428920335+429482640
1616+431260690+435438440+438918508+441362793+444049076+447466351+451060555
1603+454553760+458282584+462324370+466293122+470278150+474767586+479724708
1589+484925275+490307737+495979437+502149063+508608513+513930045+517804936
1576+523749392+531543622+537227322+543037986+551614587+560407255+567849730
1562+572451131+574085355+581962481+597860869+611842449+623738188+634575525
1549+645012796+654271942+662017931+667938422+673904567+687048225+702052208
1535+712827821+722962130+734346703+743964121+752245139+760295262+766830712
1522+774483254+785732586+797854323+809983647+821401667+830622192+836487718
1508+839231345+846740233+862250832+875608625+884428603+890097027+896803372
1495+905511627+910998536+912705967+916740339+925760384+933549821+938242186
1481+942412419+946685340+949371864+948789801+948068360+951759081+956701375
1468+958306393+958020741+960232580+962720209+961584635+957517780+955819660
1454+958315703+959656034+958653906+957196128+957116060+956755029+953452443
1441+948057119+939707964+928267599+923653716+926470928+926336585+921514014
1427+916676339+914403535+915765383+917864948+918747697+923412684+931825218
1414+938953489+943851232+946802925+947731743+949207797+953724854+958507563
1400+960386509+960259131+959586586+960514991+965273218+970642059+973226377
1387+973960162+974046368+972611556+971593566+974765671+980379820+984466123
1373+987181129+989500347+991671980+993669063+993898508+992107906+991331432
1360+993440030+995492906+994521674+991891219+989804068+987777054+984455502
1346+980582163+978658873+978208601+976691651+974131540+972020389+970649645
1333+968712699+965525767+963450891+964418468+966633686+967528574+967393334
1319+968704010+971995079+975458768+978069637+978814319+978391151+980569336
1306+986330449+990807989+990405441+989727241+992960587+996155865+996554067
1292+997697435+1001310846+1005043014+1008704770+1014537192+1021463466
1281+1027306992+1032985830+1038625496+1042453663+1044728605+1047181683
1269+1050505304+1053821477+1054647123+1052216252+1050435098+1052000461
1258+1054413402+1055572010+1056314554+1056841377+1056974065+1058160949
1246+1061027196+1064597366+1067595611+1068319741+1066612931+1064864190
1234+1065019568+1065613148+1064415850+1063552756+1065427564+1067135753
1223+1065821422+1063645513+1062867452+1062671179+1062047944+1061888842
1211+1063408964+1064948121+1064047026+1062132288+1061092022+1059979827
1200+1058804805+1058152604+1057077788+1055503528+1053190518+1050159032
1188+1049066491+1050487925+1051655913+1051845497+1051574741+1049899379
1177+1047694299+1047132304+1047419129+1046578379+1044703433+1043050829
1165+1042045253+1040590303+1037465645+1034273333+1033196103+1032210734
1153+1029812345+1028679736+1029946551+1031806807+1031911565+1029322902
1142+1027271613+1029324419+1031854462+1029319591+1025688250+1026425621
1130+1028324498+1027674850+1025893006+1024963223+1024506607+1023037587
1119+1021784980+1022167114+1022186148+1020323270+1017475921+1015822834
1107+1016831858+1017411645+1015630491+1016750411+1020082859+1018332119
1096+1014772224+1015801110+1019760242+1022086218+1020427131+1018863217
1084+1022494214+1027669057+1028195741+1025867213+1024316540+1024832534
1072+1029374350+1034281540+1034448918+1033583065+1034535814+1036418967
1061+1040560303+1045468321+1046991340+1044984671+1043027795+1044129784
1049+1045746801+1045889283+1048412015+1053326447+1057286131+1057325372
1038+1050729509+1042769177+1039559003+1040602096+1043986751+1045990730
1026+1043235655+1037612885+1032662936+1028825734+1025710801+1026047211
1015+1029544072+1032253837+1034487814+1034267954+1028709805+1025161014
1003+1027917399+1031525776+1032441766+1030200617+1026605619+1025352115
991+1027286716+1030969299+1033489342+1035453597+1040897472+1045826801
980+1045137773+1044193645+1047206924+1050824887+1052194597+1052710178
968+1053662444+1054328023+1055831594+1060338375+1064855087+1063633651
957+1059288248+1060194721+1067011892+1073154657+1072964176+1066227556
945+1059360316+1057854470+1060671613+1063575376+1062990417+1060727337
934+1061291193+1063302827+1065070533+1067512646+1067546990+1064641710
922+1061854635+1060183756+1061515673+1066550104+1072319217+1073741823
910+1068923528+1062447112+1059108526+1060429340+1061994772+1058686599
899+1055522218+1057842952+1061650982+1064111853+1067745816+1069635727
887+1065058809+1059125284+1057672540+1057358682+1054059405+1049572900
876+1045932730+1045204600+1048187397+1050123860+1048135673+1044016130
864+1039682243+1037327854+1036432828+1035317805+1035454563+1036734067
853+1036482897+1034324505+1031966323+1030478407+1028312843+1024352125
841+1021092504+1021049056+1023777235+1025172255+1022082080+1018203637
829+1019340246+1025062601+1026520034+1019858241+1014840844+1016239313
818+1017689229+1018212465+1021342708+1024412677+1025781628+1026921754
806+1025129014+1019480589+1015660422+1016550965+1017732883+1016548827
795+1013956509+1009735242+1006973615+1007146096+1005015290+1001205537
783+1001240571+1002619867+999749069+994246505+992528316+996208140+998407083
770+993616305+985455285+980013272+978321221+977446678+975751178+973232515
756+970763713+968659183+965193839+961511808+959650103+957702261+954540018
743+950845711+946508032+943861300+944810739+943623027+937737708+934587810
729+935492214+933450787+926354515+920385060+920454094+921607185+918779421
716+915993588+915326008+914470362+914629533+917402815+920003064+921295050
702+924484949+930652609+936560755+940510300+942685313+942082629+940581265
689+939634516+937540055+935836418+936283723+936667650+935211596+935795177
675+940549679+942412557+938822249+934201676+931364119+931938251+932810104
662+932134732+930802952+928496149+927961671+932806242+938102946+937011854
648+933376236+935755867+941131329+940471197+935035253+927519538+922305040
635+927501262+930746470+912545141+884264467+871657286+882394141+901601460
621+913564923+918695767+925202320+929993305+923884265+919544586+925465007
608+929708412+922968550+905388939+891332463+891223705
##END=
