##TITLE=Sample description
##JCAMP-DX=4.24
##DATA TYPE=INFRARED SPECTRUM
##DATE=12/9/2023
##SAMPLING PROCEDURE=Instrument type and / or accessory
##ORIGIN=Default
##XUNITS=1/CM
##YUNITS=ABSORBANCE
##RESOLUTION=4
##FIRSTX=4397.6552
##LASTX=599.8556
##DELTAX=-1.9287962
##MAXY=1.8900731
##MINY=0.25192505
##XFACTOR=1
##YFACTOR=1.7602677e-009
##NPOINTS=1970
##FIRSTY=0.26267207
##XYDATA=(X++(Y..Y))
4398+149222794+150069102+150087608+149360694+149026942+148803712+148494492
4384+149189780+150694263+151620602+151775043+151797103+152264167+153027837
4371+153077020+152208550+151615015+152372099+153443414+153121767+152180462
4357+151739760+151163799+150368367+150118303+150421749+151135135+152184576
4344+152917500+153104380+153165127+153369970+153937753+154665344+154677500
4330+153556324+152093981+151448876+151870108+152361771+152261543+152170761
4317+152189757+151984203+151840801+151894911+152281300+153100300+153920619
4303+154172241+153610028+153014682+153127439+153587341+154259755+154642047
4290+153728305+152259528+151744009+152688108+154137787+154137415+152882403
4276+152292966+152487176+152970036+153901030+154555566+154258790+153827332
4263+153853269+153653370+153122817+153222860+153808403+153668862+153126999
4249+153531741+154415093+154371091+153748842+153779198+154495209+154952401
4236+154791544+154656388+154398535+153469521+153009738+153891262+155082835
4222+155610205+155626678+155831013+156684517+157638638+157496405+156446947
4209+155719424+155237411+154687489+154504690+154675197+154812775+154538094
4195+153931116+153935603+154926667+155789906+155665584+155086542+154956228
4182+155517984+156066094+155921253+155352098+154836850+154582147+154880904
4168+155900344+156904309+156653297+155303744+154513968+154827403+155288372
4155+155678079+156159855+156342265+156173992+155804246+155189463+154622814
4141+154838560+155749729+155977259+155223832+154845011+155349169+155871071
4128+155695653+155350490+155829218+156579310+156378801+155755537+155781406
4114+156109555+156057358+155845269+155840291+155854800+155750644+155703661
4101+155858288+156367661+156935698+156766156+156105136+156062031+156295300
4087+155733781+155022680+155042235+155448501+156203892+156930941+156711436
4074+156111502+155946869+156323811+157216458+157509966+156500617+155511212
4060+155765864+156718191+157133515+156896978+156664132+156353101+155621937
4047+155123823+155614149+156768035+157705650+157479779+156349122+155862741
4033+156336390+157026074+157645224+157990286+157802289+157072717+156389586
4020+156569067+157277730+157485078+157172100+156764378+156587691+157207146
4006+158079764+157970427+157216746+156726064+156436094+156279504+156475881
3993+157094558+157993097+158546709+158447716+158083455+157709730+157523663
3979+157390267+156729535+155638851+154986770+155314478+156006583+156232945
3966+156231996+156515736+157079422+157457566+157473345+157474666+157207705
3952+156360008+155878012+156666130+157323510+156760569+156626885+157406486
3939+157788660+157215290+155708453+154851698+156114566+157475106+156927199
3925+156044558+156441648+156519342+155610594+155791057+157538088+158536737
3912+158108275+156965225+154157054+149982045+147945248+149461956+153014411
3898+156674426+157329656+154360848+152200355+154052187+155233787+154257351
3885+154113137+153531081+153583667+155826069+155659693+153203356+151010983
3871+149500523+150932206+152598698+152243681+153683608+156454921+156546736
3858+152386118+144870014+143117464+152130297+158683762+159213824+156076557
3844+152260070+149272469+147249927+148611381+152617304+154695666+155428489
3831+156693507+157343403+156580715+153506752+148539257+148258125+152180818
3817+154604021+158135229+161023210+159756584+155728329+153203627+153045580
3804+151141247+150945479+154745612+156770287+158102265+160278739+161431050
3790+161569830+160947954+159881379+159656795+159439491+158667593+159562272
3777+161388487+161472615+159666005+158277225+159051020+160237378+161193108
3763+161139574+158847667+157268418+157607977+155718865+150363440+147341166
3750+151127195+153342051+152387049+155811323+160093519+159018361+154815789
3736+152785052+156502733+162735991+165917954+165474763+164819601+166095810
3723+168573953+172092937+176059818+178366455+177506281+175571795+178794206
3709+187081648+194663273+200001885+205805801+215212286+225073458+231296828
3696+233795119+232633106+228924484+227888994+231844633+234581137+233501780
3682+230343248+226179295+220859424+217407553+219643844+221231778+221306222
3669+225301191+229792785+231702112+232823321+233772736+233642524+234309943
3655+237002868+236699015+232301521+232004729+239672631+247237359+251108972
3642+252882195+254240449+255219645+255739379+255826809+254252503+252621396
3628+256819261+262654464+264232816+262676627+261474201+263747468+266666601
3615+267645628+268614192+269857538+271217029+274155700+277268621+278431192
3601+278295290+278152667+278144084+279123297+281648693+283045803+281857819
3588+282162553+285824091+288414806+289019566+289696145+290633489+291150074
3574+291740138+292041807+290189908+287451897+288770585+293150251+296037284
3561+297224624+298035869+298492825+298337064+298332763+298875049+298854834
3547+298204904+298507656+300133803+301717860+302365691+302691808+303314209
3534+303282854+301993422+300538071+299671429+299234011+299407177+300131229
3520+300631426+300569833+300284688+300045121+299821197+299525623+299209699
3507+298523300+297339380+296782026+297139701+297186260+296510696+295839061
3493+295742963+296014462+296106936+295603489+294611087+293780440+293547272
3480+293430079+292629263+291426719+290774419+290708389+290422263+289749781
3466+289017433+288204529+287765688+287713745+287250728+286766074+286666455
3453+286179058+284821091+283375187+282987037+283119553+282891735+282680814
3439+282306513+281571947+281261914+281511674+281755779+281653772+281093557
3426+280321963+279673641+279383164+279533101+279694094+279736759+280018500
3412+280266330+279970333+279298850+278799347+278760610+278938246+278900270
3399+278743595+278909040+279206917+279222967+279217566+279573328+279971704
3385+279750540+279035596+278536060+278416615+278353345+278259127+278397246
3372+278691313+278718571+278482170+278377861+278602479+278875078+278969601
3358+279098713+279163168+278821289+278570886+278991915+279457591+279355262
3345+279258115+279661655+280107876+280034940+279503201+278953585+278508243
3331+277970427+277590844+277665372+277737581+277410161+277024110+277028173
3318+277199934+276964633+276495453+276342418+276553796+276978939+277170322
3304+276673986+276100649+276396562+277428717+278353786+278917827+279687491
3291+280855615+281832424+282305091+282676903+283381841+284207900+284848248
3277+285420230+285809362+286062812+286520987+286783377+286592908+286431831
3264+286210819+285356571+283929934+282533146+281482232+280765967+280553557
3250+280840411+281227986+281416186+281220824+280738929+280403044+280092690
3237+279337028+278413686+277753038+277353562+277300298+277376553+277227497
3223+277089682+277090105+276928300+276371572+275494112+274636647+274055404
3210+273674161+273385597+273391895+273482067+273155426+272606994+272136815
3196+271968712+272032438+271583626+270664821+269898849+269109766+268125017
3183+267243307+266652329+266496957+266628626+266245098+264914813+263411565
3169+262767442+262975400+263244681+263096606+262494708+261744785+261417450
3156+261454680+261178847+260321534+259230834+258698368+259041025+259418831
3142+259328879+259101823+258793670+258101464+256838935+255478683+254627363
3129+254133025+253543265+252621972+251688082+251301015+251288081+251000870
3115+250226026+249213494+248170097+247255187+246670879+246241046+245393908
3102+243863639+242105824+240764026+239976315+239375855+238740875+238260927
3088+237761848+236964977+236348112+236175471+236041550+235711641+235144789
3075+234366271+233641575+233315256+233484866+233914428+234103627+233712498
3061+233175545+232984026+232813756+232482865+232523684+233015060+233404971
3047+233585197+233655221+233446738+232972564+232377387+231862884+231610941
3034+231396735+230984510+230550427+230334630+230352627+230332819+230040987
3020+229773043+229849908+230032047+230105678+230162142+230062387+229652989
3007+229268902+229224646+229262248+229042320+228758717+228665311+228656202
2993+228709990+228937977+229527415+230562786+231569156+232023285+231919246
2980+231591911+231377621+231425466+231661224+231702924+231274818+230575823
2966+229956909+229578748+229276199+228786178+228199686+227835374+227656283
2953+227500488+227540139+227877227+228236307+228260213+227924294+227546319
2939+227408064+227317181+226950532+226672380+226704244+226506867+225968746
2926+225501463+225163071+224713819+224078093+223444094+223053845+222883524
2912+222760726+222834730+223124801+223198212+222922024+222504499+222117957
2899+222001898+222088515+221986187+221788709+221820911+222014783+222236370
2885+222446393+222572154+222527067+222405235+222536921+222835813+222816275
2872+222575692+222523123+222580974+222599463+222585309+222425670+222151328
2858+221961570+221795312+221387912+220751796+220150474+219648550+219286846
2845+219295396+219670712+220124299+220428304+220519441+220458424+220321896
2831+220148645+220094027+220243609+220278079+220007715+219834295+220054951
2818+220372992+220456104+220400555+220456307+220578157+220505524+220300715
2804+220234415+220368048+220669971+220915278+220851517+220629067+220526383
2791+220587536+220609140+220534476+220488746+220405516+220361039+220495874
2777+220547377+220345463+220105642+219945377+219758176+219512903+219322874
2764+219277043+219319776+219337671+219314189+219323280+219368282+219371160
2750+219408289+219577459+219733880+219631874+219287540+219130373+219304437
2737+219437697+219426624+219427742+219489809+219568198+219586923+219605360
2723+219657659+219620750+219518659+219499290+219505995+219485831+219659724
2710+220034482+220243372+220140535+219922148+219766590+219684917+219633736
2696+219644927+219751945+219875809+219927380+219989803+220181084+220359803
2683+220279163+220001925+219787990+219670340+219567351+219451106+219250970
2669+219030297+218910496+218834309+218706957+218428822+218001748+217655298
2656+217518194+217478746+217441482+217408484+217395651+217328606+217104953
2642+216820215+216618589+216482400+216381172+216353118+216370522+216284447
2629+216045422+215754402+215509925+215331409+215149423+215035514+215071457
2615+215068816+214895210+214704606+214693195+214749743+214611335+214316388
2602+214048682+213772545+213474262+213436778+213651085+213677564+213510866
2588+213398515+213217425+212921598+212678153+212455381+212182595+211928942
2575+211775111+211703579+211538472+211260879+211075472+210952624+210715799
2561+210417178+210155330+209805798+209341766+209063021+209062885+209048444
2548+208911289+208792166+208728727+208680339+208640011+208607555+208528557
2534+208404016+208339425+208320582+208266726+208189607+208146383+208149634
2521+208156897+208154273+208092358+207958691+207839483+207815425+207948990
2507+208046188+207896488+207757048+207818878+207852079+207815221+207956067
2494+208212937+208289159+208118465+207833473+207658478+207784171+208180295
2480+208579450+208683607+208514064+208291377+208130875+208102956+208190690
2467+208315807+208454621+208554698+208629666+208758914+208873094+208910273
2453+208958102+209080307+209261091+209424895+209543392+209698188+209886473
2440+210071778+210292180+210493365+210595728+210649905+210725263+210803618
2426+210862350+210949170+211093249+211293978+211557214+211786386+211841766
2413+211767881+211801556+212095386+212498435+212765938+212834558+212847272
2399+213032069+213402256+213748012+213999008+214200837+214219020+213928373
2386+213378689+212303226+210188446+207044847+203326184+199314183+195086181
2372+190750755+186439946+182252578+178334727+175141759+173218616+172650511
2359+173633415+176715234+181742562+188107149+194192197+196931071+194890074
2345+190331622+187380337+186882088+187391308+188398101+189674191+190724665
2332+191499983+192673221+194410567+196154432+197748241+199618171+202015132
2318+204714998+207230524+209125935+210523942+211945398+213578232+215194983
2305+216559671+217663967+218684829+219646163+220383303+220972215+221599747
2291+222275547+222976151+223632176+224113190+224330105+224375394+224450599
2278+224580000+224725704+224893198+225036532+225104830+225133934+225275219
2264+225535747+225715296+225791957+225955235+226238281+226447796+226538409
2251+226699672+226936903+227065813+227121565+227279256+227537160+227793793
2237+227997502+228088368+228100405+228206306+228389258+228479921+228460756
2224+228441302+228572700+228814706+228912328+228868376+228917745+229064415
2210+229188143+229301527+229439122+229619483+229768709+229812864+229918054
2197+230142807+230339083+230493981+230650639+230813325+230978737+231155644
2183+231399732+231650406+231749365+231745877+231800258+231857721+231824486
2170+231867947+232130235+232426266+232599821+232738719+232901828+233048041
2156+233135690+233169636+233191189+233249057+233358716+233485018+233628759
2143+233814673+234054343+234315717+234529583+234701903+234855971+234994463
2129+235136087+235250267+235256260+235209244+235305409+235506883+235643784
2116+235756524+235890039+235997869+236078967+236176098+236308291+236400783
2102+236411923+236415496+236434627+236477394+236575828+236682626+236786884
2089+236878817+236899100+236906888+236980011+237108193+237273689+237408879
2075+237442182+237507212+237706096+237823611+237756481+237711818+237808373
2062+237936351+237991985+237976443+237904708+237861366+237940770+238064008
2048+238116645+238131103+238148525+238170196+238262248+238396253+238494112
2035+238579560+238674405+238780001+238844151+238866296+238930920+239018316
2021+239042222+238976311+238986012+239242426+239569152+239741115+239845408
2008+240018827+240179278+240287735+240463356+240672059+240815359+240814140
1994+240534718+240333922+240685282+241283083+241771242+242115237+242337197
1981+242545307+242742091+242945004+243202721+243411881+243399183+243119490
1967+243000198+243472984+244154591+244548498+244764599+244989420+245225382
1954+245487822+245767109+245997957+246051102+245725223+245176791+245371966
1940+246602632+247716866+248211679+248473798+248716345+248993075+249282723
1927+249298909+248901565+248699685+248836281+248870515+249467131+250725986
1913+251441150+251436494+251525718+252125669+252881721+253388774+253767934
1900+254176976+254378873+254452098+254732857+254774100+254649390+255403900
1886+256669900+257552101+258171590+258734921+259253927+259693461+259947284
1873+259498828+257959315+256948966+258509930+261176122+262877660+263615426
1859+264115149+264754684+265443961+266016925+266418027+266468852+265783436
1846+264590728+265071116+267769441+269830890+270587703+271298973+271861643
1832+271108673+269998011+270638122+272206315+273969786+276192955+277924477
1819+278884745+279659657+280155536+279997472+279979729+281127841+282707310
1805+283472081+283219748+282936753+283842132+285255021+285318477+284172989
1792+284896635+288366554+291168054+292150772+292446007+292701117+293490521
1778+294769320+294813001+292874587+291460953+293555704+297394776+300431002
1765+301546692+301396146+302199501+303725926+304957963+306065866+305806794
1751+304093692+303835027+306060583+308473155+309693950+310188288+311310920
1738+312247823+310934181+310339038+314087295+318451757+321866313+324134771
1724+325152772+325144544+322973978+319353750+319548248+324670488+329768788
1711+332739730+333255909+332370948+332201710+331701006+329739160+330127445
1697+333893615+339729004+345659036+348375951+348819904+347797704+344959329
1684+345541774+352152922+357752401+359995057+360610957+362124888+363452549
1670+364625430+369135766+374166378+376206443+378195784+382537390+385983030
1657+385211403+380452188+380576018+388439756+392089749+394547795+402078984
1643+409733697+413660470+414198761+412649140+414996021+423725656+430654116
1630+433941625+436369366+438931299+441934002+446815151+451060354+452993993
1616+457340373+465242205+471650897+476096592+480617492+485939378+491283374
1603+496625238+502508236+508678173+514554568+520282414+526464474+533273404
1589+540484164+547706302+554813718+562143670+569722162+575919019+580425393
1576+587570226+596929644+603525655+609801002+619010619+628288973+635660472
1562+639609289+639913023+647367618+664813072+680192254+692854079+703771042
1549+713880687+721949725+726913292+730060819+735489434+749933710+765206296
1535+774513365+783310079+794138460+801567185+805634786+810359023+815733190
1522+822222877+831224045+839807366+847825951+856274776+862496554+864547590
1508+864876991+873316877+888678992+897959581+901846093+903980157+908718480
1495+917738406+925003175+927356862+928942307+934364015+941133193+947218375
1481+952526987+955397259+955341321+953264753+951597702+955146619+961977898
1468+965386156+964908714+965888384+968601405+967606565+961892974+958310196
1454+959290273+960182243+959866860+957511480+954977110+955364279+956023961
1441+952728935+945238719+936128654+929564404+924310918+918117380+915263293
1427+916520625+917543163+917764005+917837958+918083451+921461030+929059196
1414+937156745+942495087+945230998+946882744+949066448+953200891+956713983
1400+957559157+959852097+964914402+969322579+973895592+978031864+977969424
1387+974978877+974414209+976852819+980707705+985216991+987886805+987502549
1373+986984203+988840132+991886278+994491689+995542332+993867831+991953865
1360+993382398+995805433+995974874+994983352+994370737+992764839+989224862
1346+985526211+983493121+981674034+978256905+974226212+971329663+971282326
1333+972995157+973207805+972709843+973424313+974339511+974910951+975302047
1319+975062446+975497020+977367712+978704955+979835646+981954336+984082644
1306+987656143+993575745+997393858+997394197+997586257+999358548+1001652843
1292+1004446047+1006459429+1007702403+1010974268+1016265272+1021798451
1281+1026960918+1030700067+1033627158+1038110777+1043717570+1047540288
1269+1048498625+1048147892+1047087564+1045740095+1047128062+1050908792
1258+1052367123+1052897321+1056768054+1061269823+1063444994+1064856528
1246+1065051501+1064259489+1065491560+1067441013+1066589676+1065195681
1234+1066248153+1066702569+1064169892+1061792638+1062992948+1066472314
1223+1068470255+1068289776+1065807281+1062114861+1061685028+1063629808
1211+1063597030+1062340376+1060509844+1057406201+1055229743+1054897633
1200+1054794086+1054705166+1054737741+1053629127+1051012611+1048648562
1188+1047796210+1048124054+1049454119+1050218770+1048311712+1045544242
1177+1043656484+1041028048+1037931110+1036107824+1035213619+1034911375
1165+1035146913+1035315067+1035134994+1034625384+1034193248+1033605216
1153+1032341112+1031372684+1031665854+1032378427+1032906525+1034222301
1142+1034396483+1031490927+1029319075+1028995904+1028728266+1029793198
1130+1029822386+1026314509+1023917887+1025049999+1027373076+1029383953
1119+1028239650+1022615859+1017531475+1016334552+1016566569+1016050661
1107+1015417322+1014241935+1012802227+1014962093+1019139202+1020186662
1096+1020570579+1022572246+1024268959+1027482650+1033024904+1035667900
1084+1034320024+1033670703+1032864402+1029169815+1028213238+1035054472
1072+1044260567+1049630332+1051337677+1050106284+1047747450+1048421151
1061+1050632215+1047271769+1040373987+1038567293+1044052389+1051939525
1049+1054657016+1052687246+1051170674+1049931289+1047667470+1045046484
1038+1046337405+1051984696+1054313122+1050966018+1046251736+1043968007
1026+1045739011+1047122712+1044080155+1042024446+1043497337+1041685564
1015+1034893428+1029269976+1026732423+1024458378+1023467872+1026459435
1003+1031673845+1035351028+1035472792+1034107580+1034198327+1036185772
991+1040152129+1044479039+1046611613+1046246996+1043713845+1042829189
980+1048160759+1055338437+1058560662+1058577525+1056702634+1055724183
968+1058203156+1062458145+1066505497+1069304661+1069483448+1066232238
957+1062095899+1061655433+1064777564+1067262429+1067713866+1068556466
945+1070957626+1071532588+1068381878+1066170408+1066877563+1067111273
934+1067476702+1068976344+1068261671+1067841522+1071365991+1073741823
922+1071911358+1068752115+1066764332+1066270163+1064975245+1062833868
910+1061584799+1061975759+1064530243+1066519584+1064943348+1062554243
899+1062800955+1063655000+1062308411+1060481062+1061488904+1064818672
887+1066321293+1066694578+1069207344+1069489949+1062104093+1051919276
876+1047374233+1049600263+1053858164+1055853058+1053723532+1047096098
864+1039484388+1036768928+1038780279+1041399505+1042815984+1042346736
853+1039742274+1037581189+1040015127+1044204493+1043287330+1037213999
841+1029778570+1025808286+1026579506+1027425290+1028299652+1032227678
829+1035776053+1034916386+1030852984+1026145745+1023768424+1025521753
818+1027502561+1025577759+1023199895+1022680330+1021791611+1022984132
806+1027425357+1030043906+1028409091+1025339173+1024455466+1024466911
795+1022014011+1019658225+1020285604+1020061917+1016348571+1012634479
783+1010287159+1007763557+1004337149+1000163427+996789911+994687609+993555903
770+992128182+988417951+985549643+986612814+988006538+985558650+979236168
756+972299852+969785122+972714245+974563807+971835684+969789863+968455396
743+962066817+953888949+949845863+946864053+941729284+938123210+938304773
729+938204679+933494868+925454815+918117177+914460243+915700779+918691123
716+919939650+923338901+931893846+937211736+933577963+929287149+928624081
702+927670077+926616928+926535797+926120795+925604752+925918373+925944108
689+924092649+923543625+926170097+928491954+928054469+923666135+919009891
675+921358905+927330450+926681197+922228120+925846249+931945654+932321715
662+930926976+931856463+933560084+931266129+924436340+918481116+920060399
648+928109865+933283236+929721181+920794373+914811789+917115497+917154979
635+901417073+887696342+890570407+896159050+903669718+918535700+926750409
621+928517350+934475960+939163423+937161418+931745805+926621398+921278722
608+913460188+911466174+920917424+930449466+933754447
##END=
