##TITLE=Sample description
##JCAMP-DX=4.24
##DATA TYPE=INFRARED SPECTRUM
##DATE=12/9/2023
##SAMPLING PROCEDURE=Instrument type and / or accessory
##ORIGIN=Default
##XUNITS=1/CM
##YUNITS=ABSORBANCE
##RESOLUTION=4
##FIRSTX=4397.6552
##LASTX=599.8556
##DELTAX=-1.9287962
##MAXY=1.7038659
##MINY=0.16854963
##XFACTOR=1
##YFACTOR=1.5868488e-009
##NPOINTS=1970
##FIRSTY=0.20681471
##XYDATA=(X++(Y..Y))
4398+130330445+130109189+130867023+130861680+130943508+132206415+132900516
4384+132348614+131804186+131589840+131906654+133091038+134383638+134674891
4371+133948129+133390527+133756377+134557435+135082697+134883846+133975221
4357+133076070+132817420+133111838+133298360+133082174+132950567+132701336
4344+132052985+131957428+132571899+132956934+133010666+133239904+133234167
4330+132007817+130399925+130286254+131746078+133252272+133527918+133229951
4317+133293026+133075197+132554611+132438480+132745283+133353237+133799855
4303+133266076+132120464+131738162+132225242+132788639+133349922+133802625
4290+133567996+132687927+132070667+132254738+132911465+133070896+132327419
4276+131852537+132130352+132698707+133697124+134365063+133713453+132644646
4263+132276871+132311916+132246746+132226116+132441015+132820116+133151024
4249+133412200+133840158+134094375+133670812+133305478+133718214+134244913
4236+134042672+133240674+132588661+132220932+132054938+132256851+132529961
4222+132719873+132685307+132247516+132289172+133324381+134204018+134381957
4209+134524071+134433463+133951716+133863137+134166916+134004791+133201310
4195+132562152+132814603+133681601+133931978+133295730+133058914+133699067
4182+134265638+133737277+132533980+132209298+133067187+133731962+133393447
4168+133179017+133481905+133069731+132235318+132034195+132131404+132145255
4155+132200893+131881197+131038417+130624224+131047948+131632191+132205861
4141+133104992+133760546+133599116+133237012+133076765+133026526+132956699
4128+132339702+131569238+131970405+133240224+133753663+133099734+132063183
4114+131418108+131382622+131289169+130752291+130334624+130258947+130389859
4101+130743163+131235127+131802871+132154805+132036758+131758379+131637074
4087+131761103+131970058+131880802+131619026+131593503+131393797+130948325
4074+130944400+130881766+130621464+130890950+130938897+130505332+130518610
4060+130815432+130829818+130708738+130904707+131463830+131700412+131171075
4047+130622835+130754000+131173761+131474723+131487147+130887917+129985385
4033+129895172+130657457+131054662+130937535+130662950+130058264+129515405
4020+129531988+129942368+130394357+130722833+130795487+130626196+130565966
4006+130762029+131076805+131339595+131216966+130642686+130003434+129625695
3993+129760823+130343395+130793853+130901974+130871155+130617388+130008439
3979+129269855+128737362+128522998+128699866+129264991+129782261+129931569
3966+129916882+129903088+129991264+130161343+130072510+129534233+128711717
3952+127982552+127898414+128493935+128142245+126609890+126770513+128665413
3939+129327568+128042941+125918361+124991884+126389600+127632900+126597429
3925+125384657+125667797+125077591+123361906+123749787+126729711+129252013
3912+129850548+128754594+125120279+119443288+115812458+116639368+120719351
3898+125740901+127372372+124184225+121477983+122942070+122813056+120611098
3885+121377637+122052498+122298574+124571307+123449256+118924468+115647581
3871+114943150+117796961+119350201+117797656+119607235+124163190+124807438
3858+119029584+108750944+106216566+117803657+126454507+127705826+124565447
3844+120068380+115818336+112239097+112311112+116483130+119894826+122122729
3831+124355581+124927269+123919819+120824045+114709554+113197426+117139604
3817+119317682+123539855+128596685+128606235+124026541+120415261+119865960
3804+117092004+116261958+121391751+124806940+126906307+129605290+130633136
3790+130462691+129885471+129057350+128963465+128285815+127269275+129630775
3777+133559911+134504333+131948977+129447625+130528358+133069544+135359395
3763+135908593+133244468+131795293+133467237+132450049+126421058+122539691
3750+127569421+131234047+130995784+136927631+144633083+145252859+140887145
3736+138790689+145341871+157194475+166207297+170077968+172794839+177694737
3723+183960601+191018846+198269163+203105882+203189926+201809498+208831084
3709+225079198+241765807+254194917+264011201+276222360+289182272+298474609
3696+303605679+302329278+293280529+283234592+279721640+278494820+274204154
3682+266798087+257444506+246201349+237690426+238977118+240731172+239666281
3669+244226564+250350765+252298524+252461748+252313454+250177437+248092935
3655+248529683+245085994+235591650+232175156+241537433+251345303+255285087
3642+255720183+255874805+255856006+254689435+252330038+247973864+243662332
3628+247748156+255661925+257651415+253638141+248870235+249280352+251918738
3615+252601684+253432641+254522173+255152100+257546880+260312394+260711186
3601+260132774+260113561+259931106+260268541+261719378+261663035+259021776
3588+258666161+262828010+266012110+266318989+265899106+266162432+267229464
3574+268558921+268136784+264015052+258941300+259186446+263747707+267242460
3561+268715929+269436924+269686221+268923720+267886774+267611335+267258387
3547+266866243+267778859+269543205+270941493+271493668+271192123+270531809
3534+269923629+269326286+268755500+268208602+267508491+267140762+267595408
3520+268143151+268319184+268439907+268007497+266615294+265583813+265905247
3507+266101657+265015675+264268799+264820411+265070214+264470599+263962014
3493+263860598+263787090+263232154+262454234+262193368+262265618+262181010
3480+261954420+261705104+261490139+261432914+261637493+261750704+261273315
3466+260439052+259874388+259828638+260073446+260183107+259935594+259523599
3453+259182521+258508458+257589964+257556177+258086660+257946780+257323501
3439+256917836+257160390+257824705+258013809+257598208+257138398+256868836
3426+256709744+256366863+255890055+255896121+256394865+256774162+256839501
3412+256686155+256268658+255726906+255512354+255640158+255678846+255551512
3399+255660065+256257314+256755269+256572100+256209536+256163466+255933965
3385+255315475+255137620+255636308+256121886+256390639+256640124+256895299
3372+257282296+257663115+257603786+257424918+257626248+257946536+258158966
3358+258511163+259201621+259977006+260646167+261225123+261397944+261317543
3345+261600307+262184522+263165614+264615568+265483524+265648232+266080979
3331+266632610+266855876+266581676+265777012+265198487+265320018+265690150
3318+266002044+266239734+266262008+265955561+265431125+265248839+265771321
3304+266365659+266423391+266138411+266122297+266720448+267303047+267267552
3291+267077246+267038670+266841039+266700671+267126827+267775235+267805622
3277+267254198+266931600+267154810+267529694+267421667+266833902+266483415
3264+266271736+265685230+264981794+264430126+264245060+264630724+265241533
3250+265584377+265156061+264115379+263653746+264014225+264323902+264445884
3237+264771731+265233363+265450094+265369581+265147028+264795714+264504668
3223+264452757+264629428+264810400+264469115+263795748+263442443+263260325
3210+263119000+263268213+263331110+262695286+261665665+261073374+260948369
3196+260703843+260219297+259708515+259259034+258837555+258026411+256673140
3183+255520242+254803040+254170427+253795825+253619454+253160770+252464377
3169+251897703+251377719+250730137+250175089+249626201+248916830+248518114
3156+248557121+248427421+247850230+247188375+246762576+246251231+245328229
3142+244310552+243363191+242347562+241328590+240469292+239894562+239542271
3129+239321991+239076262+238399045+237256082+236091934+235150113+234320827
3115+233403159+232206802+230831369+229636008+228489720+226908300+224884723
3102+222849126+221049999+219421758+218135459+217473698+217183347+216731800
3088+215929483+214955979+213848850+212558645+211374589+210575277+210125702
3075+209729765+209063684+208277200+207863947+207998549+208261274+208101468
3061+207446825+206807244+206628788+206538171+206124148+205584349+205044307
3047+204616348+204404313+204066108+203346427+202586029+202168794+201764161
3034+200812312+199649460+198916914+198393924+197776035+197175594+196482149
3020+195730090+195103280+194396990+193597885+193083929+192779868+192150748
3007+191278266+190603978+189906158+188982423+188091724+187325016+186754360
2993+186648850+187050271+187643332+188093959+188216560+188128140+188176745
2980+188336551+188461988+188761824+189166269+189203586+188776548+188340175
2966+188104138+187717497+186983881+185998639+185063110+184618042+184506183
2953+184226988+183777337+183466984+183445086+183515664+183529449+183572795
2939+183520472+183218495+182768563+182328059+181991826+181680966+181202355
2926+180495126+179662478+178685425+177594109+176744709+176219428+175773459
2912+175289327+174838549+174684171+174754881+174795692+174918330+174968081
2899+174640261+174167060+173865252+173830057+174012137+174114154+173920261
2885+173660936+173615505+173660147+173659302+173804947+174098134+174199738
2872+174042862+173839428+173667002+173554711+173508060+173438946+173255871
2858+172913741+172537655+172213742+171753424+170988519+170090063+169499181
2845+169353141+169401952+169510731+169652263+169770883+169787804+169769211
2831+169885202+169974655+169836522+169646047+169546771+169442012+169325064
2818+169327656+169395116+169351733+169181390+168927868+168737318+168834246
2804+169075993+169226464+169405202+169578210+169529192+169394515+169503125
2791+169898405+170118234+169873877+169645596+169712118+169730748+169614194
2777+169539165+169495274+169387303+169163755+168893668+168727233+168683417
2764+168655715+168592969+168604425+168748737+168799088+168635826+168468677
2750+168480866+168667998+168783256+168618248+168390699+168313266+168281564
2737+168259215+168338282+168462179+168414682+168121645+167844853+167768716
2723+167735868+167639410+167558840+167539252+167479303+167350636+167307046
2710+167370243+167492600+167638302+167705781+167737390+167753203+167651862
2696+167504263+167441272+167437497+167456053+167566935+167749146+167793131
2683+167637964+167469857+167282706+166991998+166856644+166900854+166730249
2669+166428423+166352867+166306347+165964649+165441190+164987089+164732439
2656+164696643+164639812+164281456+163879753+163815729+163842398+163647697
2642+163410852+163235927+162942909+162561376+162288191+162085715+161851142
2629+161642581+161413793+161013292+160514849+160178015+160110573+160070138
2615+159752423+159225058+158804254+158625217+158532327+158327428+157984021
2602+157639994+157406896+157302071+157399881+157655976+157762126+157597737
2588+157405619+157315198+157202016+157019344+156835179+156729040+156732833
2575+156773898+156776076+156698878+156537090+156325177+156101798+155909623
2561+155774157+155667397+155482322+155171696+154867118+154683104+154575095
2548+154505860+154480215+154347181+154006168+153681795+153555832+153503265
2534+153405323+153322274+153310940+153314217+153226031+152992436+152675706
2521+152418982+152299320+152219511+152067912+151932455+151889119+151800342
2507+151604552+151440210+151447845+151624563+151814972+151942118+152070044
2494+152206083+152272971+152299602+152453323+152735730+153028279+153346905
2480+153715150+154051355+154228298+154225810+154178266+154156208+154104410
2467+154093950+154241999+154413101+154511457+154617681+154689621+154697997
2453+154714280+154789018+154979916+155230339+155390174+155502990+155683417
2440+155816817+155797586+155768598+155880757+156081712+156199693+156179081
2426+156124015+156137237+156302771+156593311+156796435+156831789+156839198
2413+156852599+156803496+156818427+157057422+157319170+157366686+157372273
2399+157573773+157879374+158050655+158126023+158277753+158391940+158296365
2386+157839953+156621040+154278922+150916206+146993992+142899125+138688268
2372+134256736+129622399+124920057+120412003+116733488+114498458+113897096
2359+115105097+118364020+123568298+130443694+137283960+140485047+138266967
2345+133018516+129253581+128133934+128399251+129336020+130455695+131500462
2332+132503170+133886904+135748327+137508935+138980159+140730541+143171071
2318+145932396+148310424+150001590+151332183+152786297+154453058+156079693
2305+157380884+158319841+159200098+160185565+161036299+161596380+161993707
2291+162374263+162788174+163224959+163657143+163991273+164130101+164096108
2278+163991705+163940114+163963308+164016759+164099319+164167249+164222897
2264+164328520+164414180+164420809+164504572+164760705+164963631+164942540
2251+164897711+164971294+164993981+164937864+164966110+165099492+165267974
2237+165369748+165393468+165485851+165655536+165711315+165598141+165517008
2224+165536146+165583586+165739298+165920589+165912758+165786776+165699182
2210+165667217+165697492+165840414+166042646+166127441+166111440+166196498
2197+166368794+166462979+166461176+166449438+166519153+166674170+166772112
2183+166805711+166922734+167035024+167031907+167049392+167129924+167201648
2170+167280602+167373643+167463171+167556868+167602149+167587913+167641119
2156+167730140+167696447+167634471+167684803+167747569+167787290+167919883
2143+168096817+168211061+168294936+168369458+168398155+168354133+168293753
2129+168347879+168520061+168667942+168741581+168829870+168940076+169014636
2116+169140843+169370645+169582511+169741341+169887380+170002845+170140621
2102+170406332+170768764+171090405+171381432+171782027+172361303+173137082
2089+174043069+174987556+176014924+177177100+178464788+179849704+181221493
2075+182544358+183958366+185489848+187028917+188594167+190374589+192522063
2062+194904617+197309952+199689839+202072467+204513242+207026059+209565846
2048+212065836+214441685+216650253+218829561+221159716+223496370+225634416
2035+227584015+229307249+230634021+231451343+231791389+231629967+230923658
2021+229710060+227998114+226086414+224460145+223051114+221511030+219900969
2008+218473026+217286472+216243686+215266332+214408011+213780469+213248145
1994+212483465+211903401+212258659+213162260+213987227+214744545+215557923
1981+216469187+217437001+218489497+219751793+221283895+222748311+223801727
1967+225174004+227617163+230434249+232911571+235244205+237558303+239819044
1954+242166027+244619253+246984359+248935668+250093543+250735772+252300064
1940+255108491+257438196+258526075+258940455+259156848+259341538+259426296
1927+258974955+257634399+256242421+255286872+254179423+253748854+254245081
1913+253930671+252391301+250845771+250050910+249504107+248590213+247372333
1900+246019889+244399724+242789306+241784100+240742403+239573560+239859573
1886+241219248+242205692+242892788+243547976+244135534+244674130+245015152
1873+244259393+241736434+239824659+241654550+245159859+247187624+247693110
1859+247773153+247917108+248017905+247934406+247459007+246167187+243632452
1846+240269877+239124773+241298935+242768196+242167529+241185987+239825655
1832+236541415+232738825+231577550+231737018+231877010+232761869+233110291
1819+232128486+230786164+229226154+226801080+224549654+224102164+224483339
1805+223834650+221618982+219061053+218319737+218909286+217917808+214963078
1792+214433215+218107532+221075033+221470351+221026823+220535855+220577849
1778+221317344+220381157+216457675+213231411+215276774+219949048+223548787
1765+224465028+223269572+223249120+224503416+225466572+226309474+225110844
1751+221569683+220163600+222701058+225781845+227162423+227250242+228012518
1738+228670016+226149799+224319364+228856754+234626109+238890013+241332008
1724+241984773+241233258+237312800+231169537+230679752+237586793+244373919
1711+247777492+247375789+244798553+243441132+242010916+238416135+237931609
1697+242316855+249775903+257841608+261476786+261598993+259292539+253805534
1684+253291485+262605739+270610294+273232096+273232096+274641672+275949606
1670+276981894+283164953+290682333+293707717+296088017+301649319+305995820
1657+304257693+296659292+296171197+307315023+312052090+314247249+324002177
1643+334769371+339980148+339571853+335333172+336075352+346592837+355229235
1630+358181355+359237213+360412854+362260812+366876988+370861827+370924855
1616+372997094+379979315+385359081+387759833+389655381+392360759+395324597
1603+398373701+402044338+406141336+410111264+414280531+419129438+424345022
1589+429816213+435727327+442127755+449151632+456218892+460937048+463163176
1576+469527057+480170336+486891316+492180070+501900422+512822333+521167065
1562+524262032+521679256+529065114+551552818+571131974+586592158+599887965
1549+612374732+622116757+627376964+629942086+635765568+655351861+677252702
1535+690436613+701881870+716140946+727602130+735900773+744238331+751393673
1522+759751139+772833483+786710030+801580158+817390530+828916244+833176786
1508+833601984+845864282+870309173+886694613+894523060+899183108+906152220
1495+916267269+923498937+926469387+930283546+938754748+948601533+956323455
1481+960978169+962880591+962567251+960967276+960990639+965700268+972422900
1468+974379336+970852448+969655058+970889860+965756761+955696551+955424379
1454+962903353+967212349+968672596+968148010+966601372+963174548+957705949
1441+952393380+945685697+936469273+931474476+931399803+929803809+928244325
1427+929996125+930201512+925990175+921120309+919632041+924627064+933930331
1414+941842390+946213964+948307725+949842419+952669609+956943372+960356373
1400+962297709+964241073+965860731+967284843+971134236+975626833+977843872
1387+978878019+979926214+980402345+981277907+983370842+985143526+987003503
1373+990646006+993717196+994226682+994128646+994074482+992603493+991672040
1360+993433230+994890246+993455016+990755160+989543046+990145009+990492078
1346+989129117+986636751+982466358+976335621+971193433+968469688+967009216
1333+966640286+966892700+966642990+966377655+968011586+972107383+976474524
1319+979123822+980339918+981101743+982841824+985888674+988822388+991373650
1306+994560605+998924667+1003109034+1006068140+1009092528+1011427285+1010831707
1292+1009807477+1012629783+1018661807+1025088754+1031177722+1036691846
1281+1041385098+1045132623+1047946591+1050943484+1054254768+1056082593
1269+1056527172+1057587763+1059425804+1061137563+1061886017+1061866334
1258+1062613135+1063456920+1063673575+1064784348+1067298799+1070690541
1246+1073487155+1073655056+1072166337+1071473175+1071452967+1071287470
1234+1071560393+1072474118+1073434494+1073741823+1073450645+1072694454
1223+1070124261+1066569728+1065259277+1065777778+1065073948+1063276474
1211+1062498121+1062600740+1062615839+1062898228+1063444975+1063997206
1200+1064745660+1064172319+1060960648+1056949741+1054241697+1053496399
1188+1053995668+1053669858+1050986830+1046727565+1043539934+1042349230
1177+1040985066+1038191232+1036140216+1036564737+1037203210+1035905080
1165+1034288352+1033478898+1031496620+1027860728+1025161924+1024530889
1153+1024410842+1024135440+1024657622+1024538101+1021794673+1017662142
1142+1013725456+1012323280+1015160912+1019241083+1020934512+1019380512
1130+1015560342+1012041868+1010829980+1011680375+1013265251+1014756373
1119+1015573339+1015068060+1012962654+1010092344+1009676687+1012657729
1107+1014244483+1013092392+1013140847+1014225101+1014375122+1015329489
1096+1019323643+1026625777+1034404267+1038537099+1038579243+1036614845
1084+1035848662+1038364466+1041650283+1042229183+1039812993+1038335543
1072+1040270043+1043223214+1046240691+1048240924+1046881268+1044333311
1061+1044604732+1048510091+1053430816+1057037635+1059393276+1061880908
1049+1063974143+1061707674+1055589333+1051540564+1051786593+1053891697
1038+1054651043+1053341795+1052006629+1051263659+1049318718+1045845843
1026+1043767182+1045151178+1047375804+1047019720+1046029144+1047954779
1015+1049360862+1044782699+1037697672+1035589036+1038809646+1040622897
1003+1037835147+1035085410+1036001012+1039083922+1042341117+1044406406
991+1044230392+1044424135+1046813506+1048080310+1047664879+1048872636
980+1050855965+1050873619+1050665453+1053735441+1059690313+1064677673
968+1066253384+1065981438+1066621488+1067268224+1065759073+1064044008
957+1063579596+1062316774+1059558998+1058835335+1062569789+1065352731
945+1063506952+1060825652+1058496755+1056694472+1056526271+1057474026
934+1059481696+1061294271+1062277484+1063773790+1064102229+1062127688
922+1061363159+1064041153+1067963866+1069573232+1068123954+1064944060
910+1060210392+1056131723+1056497799+1061330780+1066854896+1068310259
899+1064574078+1059666199+1057621343+1058349588+1058258764+1055829127
887+1053693372+1052242816+1049943518+1048961657+1050133129+1049546266
876+1044591360+1037443980+1032108950+1029748276+1028804352+1027867264
864+1026739513+1025820981+1024979525+1025370241+1028350607+1030815703
853+1029474902+1025979341+1021284061+1017574999+1019179181+1022533060
841+1023021061+1023264536+1023599435+1022336838+1021147637+1021465709
829+1022340144+1022343149+1020580005+1017800369+1015656275+1013383796
818+1011095916+1012541438+1018304446+1021871900+1018887327+1014098894
806+1011748512+1011600669+1013049797+1014071850+1012749755+1009798311
795+1006418365+1003731505+1002749494+1001079503+995378247+988214566+984126282
781+982711335+980838511+977979469+974855768+971685866+970118118+969773678
768+969004566+968339274+966115474+962120418+959446405+957289841+955382461
754+954682086+951054984+943771181+938226932+936665645+936943676+934698692
741+928622495+923375434+921619954+921768022+922364050+921398941+916448767
727+908995636+903093801+899345975+895874829+893493270+893303734+892244045
714+889269013+889106972+891676865+891224848+888796112+889323177+892263352
700+893578460+892003801+890952150+891793381+890884614+886503650+882803978
687+884705724+889405813+891255573+891968568+893523921+893764390+893116828
673+893256332+891358041+887422182+893878878+907067522+911420165+910211732
660+909875330+910443111+910604777+908905563+904842821+901585626+902019913
646+904260766+904897736+904848305+905851351+906141552+905774650+906267609
633+905031606+901361683+897955819+894684575+890363860+885930534+882143570
619+878270363+876455385+876140693+872443501+870997152+874521035+874972226
606+873746214+873104285+870056459+870192582
##END=
