##TITLE=Sample description
##JCAMP-DX=4.24
##DATA TYPE=INFRARED SPECTRUM
##DATE=12/9/2023
##SAMPLING PROCEDURE=Instrument type and / or accessory
##ORIGIN=Default
##XUNITS=1/CM
##YUNITS=ABSORBANCE
##RESOLUTION=4
##FIRSTX=4397.6552
##LASTX=599.8556
##DELTAX=-1.9287962
##MAXY=1.671706
##MINY=0.13473383
##XFACTOR=1
##YFACTOR=1.5568975e-009
##NPOINTS=1970
##FIRSTY=0.1925071
##XYDATA=(X++(Y..Y))
4398+123647898+124339110+123103860+121310176+121297676+122564348+122787632
4384+121699268+120711113+120498320+120932492+121689821+122388337+122867713
4371+123183156+123622668+124524119+125449162+125244360+123822981+122542134
4357+121739112+120756069+120000118+119941351+120418583+121446372+122377617
4344+122176711+121611597+122055666+122689452+122409489+121902682+121868532
4330+121972263+121700579+121297647+121378302+121784900+122108469+122952445
4317+124756074+126011758+125241757+123313169+122298474+122876805+123444388
4303+123066379+122816345+122973195+122728511+122422199+122944855+123693485
4290+123757056+123365695+122878767+122953096+123925688+124522683+124121263
4276+123816502+124101394+124276334+123998524+123741436+123594520+123336609
4263+123343519+123938858+124813500+125062826+124217146+123150547+122679469
4249+122927723+123469187+123388235+122985312+123204279+123574708+123352085
4236+122771342+122424984+122458454+122819599+123533361+123974281+123858155
4222+123727682+123653928+123795493+124450336+124909077+124380266+123670064
4209+123682133+123820675+124026481+124713875+125343938+125507115+125348551
4195+125024044+124645480+124667005+125061945+124855794+123900622+123299980
4182+123786544+124475900+124324285+123761774+123350534+122996606+122511641
4168+122438211+123248536+123629215+122789728+122108670+122591856+123742316
4155+124489826+124411735+123984282+123422337+122862477+122825313+123374855
4141+124122517+124688913+124674279+123991106+123197924+122927025+123158539
4128+123436128+123519684+123630517+123791780+123773537+123985038+124631678
4114+125037472+124746876+123738689+122562415+122137469+122344587+122492738
4101+122648622+123178916+123643332+123171804+122307777+122195106+122591415
4087+122892224+122917645+122614970+122348894+122391591+122279447+121750712
4074+121420415+121535067+121684375+121731111+121835254+122109445+122426114
4060+122793882+123244832+123351233+122878767+122434651+122631049+122715887
4047+122019946+121373708+121371038+121797486+122135718+121986218+121550744
4033+121161173+121312291+122189871+122883036+122686255+122102516+121833378
4020+121931232+121890172+121469055+121200989+121381030+121643842+121785982
4006+121798128+121689927+121814207+122106402+121769232+120895098+120319389
3993+120241749+120712807+121902988+123216463+123765823+123655430+123202575
3979+122212937+120988722+120289680+120270481+120554694+121052839+121593163
3966+121473142+120743665+120559144+120862547+120643925+120134074+119517449
3952+118406373+117462858+117641358+117585013+116445100+116975930+119468684
3939+121049986+120563585+117799558+115108473+115886179+117654164+116303439
3925+114241153+114865415+115000224+113294345+114121428+118157411+120805829
3912+120572802+118603642+113363314+105009673+99835748+101203578+106563582
3898+113628078+117081202+113350355+109099043+111224057+112245041+109528917
3885+109278691+108815308+108902290+113396439+113729685+108413927+103376543
3871+100337176+102591889+105850634+105462834+107902583+113525477+114601034
3858+107178035+92493261+86539946+101445993+115138210+118708560+115054846
3844+108882143+103081391+98025421+97537584+102777921+107343327+110218646
3831+113154205+114153568+112922815+108735256+100707557+98921042+104523358
3817+107845281+113641889+120377035+120086965+113344746+108066469+107427447
3804+103971098+102680029+109073057+113620508+117115610+121677379+123543583
3790+123320673+122539397+121612391+121663980+120542701+118296813+120411692
3777+125251864+126678622+123440349+119554479+120051505+123167076+126626862
3763+128035291+124897132+122946636+125144113+123502810+114479778+107925908
3750+113782259+118315237+117255989+125200448+136814022+138212124+131906106
3736+128545170+136783768+152656272+165485944+170739519+172839563+177130155
3723+184033838+192750127+201232231+206148464+205292505+202472200+209630971
3709+227823682+246173416+259609195+270573956+284989142+300604233+310826872
3696+313895718+308012100+293581811+281616223+282415866+286939227+286060680
3682+279821535+270141765+257749251+249133056+252859090+256675818+256788278
3669+264009299+273228739+276419290+275322830+272869518+268889354+265073467
3655+263521577+257220622+243808350+238277233+249222680+261560065+267124986
3642+268438097+269109584+268987381+267435720+264517733+257712843+249851058
3628+254532666+266083444+270040504+265461746+258631033+258437851+262354903
3615+263708060+264291799+265225207+266798938+271492108+276065678+276331964
3601+274638824+274111803+273848886+274546731+277483497+278300904+274325181
3588+272658284+277845953+283078184+285517407+286927512+287498598+287416823
3574+287653802+286703300+281665323+275409218+276325303+282719595+286997399
3561+289074549+290753869+290948678+289341161+288387118+289010021+288499176
3547+287286101+288946355+292310506+294069744+294181323+293996965+294169378
3534+294153452+293134077+291542677+290146413+289161034+289349028+290955033
3520+292469501+292945546+292975676+292690362+291555101+290292812+290134755
3507+290080104+289155157+289238215+290724447+291203938+290561184+290505308
3493+290825499+290277900+289451266+289466255+289319243+288566020+288819921
3480+289896972+290152098+289845939+289771514+289605399+289027996+288219873
3466+287542452+287224636+287493123+288280917+288530664+287891911+287483648
3453+287395766+286515095+285208836+285057575+285934820+286584753+286872038
3439+287182178+287597888+287913561+287853033+287334033+286558069+286047127
3426+285884419+285591162+285223040+285233242+285539248+285810856+286066671
3412+286267759+286147470+285852567+285673760+285714475+285953216+285675004
3399+284756259+284462753+285089236+285748376+285905667+285485344+284992568
3385+285047640+285353129+285308318+285269766+285622421+285775998+285573742
3372+285701133+286042667+285954096+285879691+286421662+287161983+287633454
3358+287938139+288455321+289164805+289678330+289999286+290174973+290351042
3345+290959953+291729945+292206009+292472870+292456465+292360907+292480067
3331+292560081+292887163+293770897+294464014+294261318+293511081+293016602
3318+292728704+292339009+292147530+292109246+292175363+292831899+293880064
3304+294232969+293543986+292961491+293436733+294244167+294069782+293142767
3291+292755082+292939746+292782723+292186312+292011640+292295288+291990986
3277+291355314+291383606+291922170+292327102+292087615+291318791+290878063
3264+290913916+290664169+290045323+289479348+289282012+289690141+290096968
3250+289972928+289422304+288561368+288234402+288846452+289399602+289364610
3237+289233199+289336031+289372573+289371731+290004301+291045652+291395800
3223+290912844+290455175+290528126+290671883+290327612+289512579+288547203
3210+288289684+288773042+288455589+287190831+286388297+286199116+285892152
3196+285401119+284715678+283571304+282522105+282219277+281911510+280832105
3183+279605401+278801623+278132989+277263037+276059457+274742574+273916534
3169+273609916+273036495+272094683+271538757+271361195+270976209+270390996
3156+269876915+269526250+269151371+268292330+267107241+266140315+265400204
3142+264933232+264778698+264606591+264015693+262913394+261837243+260979523
3129+260008500+258979190+258002387+256944612+255736170+254505236+253295434
3115+252095740+250835997+249370208+247989353+246678998+244935495+243023006
3102+241514090+240131167+238358396+236554174+235269470+234422967+233788368
3088+233168890+232337911+231148899+229720724+228487608+227780459+227500946
3075+227166935+226427092+225498776+224880983+224722448+224584357+224041907
3061+223237479+222563331+222074920+221603526+221281268+221228360+221108051
3047+220584610+219769137+219097076+218689885+218006415+216835281+215573643
3034+214362884+213395001+212906973+212539846+211909362+211103593+210323341
3020+209529058+208705200+208036662+207484833+206926802+206258646+205287336
3007+204234902+203404364+202559718+201590878+200717518+199870479+199164614
2993+199088715+199450941+199756565+200086977+200357799+200179682+199643090
2980+199204238+199203281+199646861+200133856+200207897+199811617+199159579
2966+198452507+197901463+197554168+197102241+196347697+195532013+194960487
2953+194627969+194337602+194073594+193850550+193620940+193539548+193506317
2939+193130308+192502485+191984250+191554165+191004499+190339636+189621136
2926+188886136+188157702+187146117+185711224+184385785+183582084+183162374
2912+182876543+182561962+182365085+182432618+182414606+182069492+181550530
2899+181004578+180631402+180560442+180667944+180715168+180504586+180211501
2885+180122241+180212611+180414062+180600947+180647520+180576924+180358684
2872+180053578+179775386+179534195+179381556+179284620+179092490+178874270
2858+178808708+178623547+177924304+176779222+175492202+174496371+174046818
2845+173917820+173903961+173927965+173900611+173922509+174012726+173925170
2831+173717095+173716483+173767650+173505230+173130351+172938260+172750188
2818+172472762+172284365+172151021+171960978+171771892+171627981+171611385
2804+171736881+171840421+171948650+172115991+172246961+172337733+172431606
2791+172518339+172421269+172099509+171812071+171709795+171800643+171891243
2777+171752233+171447414+171148356+170978930+170793500+170450148+170265292
2764+170292168+170146113+169862082+169653376+169506345+169517314+169691258
2750+169827091+169866447+169799488+169552975+169239198+169062573+168950515
2737+168782084+168668341+168679635+168675156+168477992+168132860+167909720
2723+167983034+168147389+168114349+167913338+167679364+167534611+167505362
2710+167392940+167140877+166961189+166952020+166966626+166955255+167021085
2696+167081249+167028321+166970435+166929854+166805258+166721396+166755067
2683+166656543+166430627+166343856+166309094+166127244+165839633+165534604
2669+165340407+165309607+165177795+164749815+164216343+163801782+163496465
2656+163179108+162852199+162609936+162395104+162188197+162072751+161907573
2642+161632941+161395866+161123455+160734525+160328157+159959556+159630628
2629+159355134+159160239+158975967+158647000+158213316+157900323+157717621
2615+157459413+157116195+156782462+156421575+156078175+155836822+155605384
2602+155293913+154981102+154832913+154880998+154974785+155025588+155011365
2588+154933610+154825792+154642918+154426612+154290272+154222404+154235038
2575+154319560+154287095+154053934+153794625+153600113+153413716+153221969
2561+152999136+152731405+152480528+152344140+152361244+152396331+152269678
2548+151966323+151649147+151453199+151296693+151092198+150940630+150894957
2534+150840077+150686021+150452746+150215020+150020536+149855492+149732495
2521+149663707+149592949+149505153+149427589+149301223+149115946+149076676
2507+149235469+149322891+149277400+149250429+149215198+149169391+149234244
2494+149431820+149697082+149935707+150087160+150209947+150393214+150655317
2480+150920292+151100343+151172824+151131698+151086139+151171915+151274871
2467+151313854+151444394+151662375+151762191+151721801+151676521+151672424
2453+151701635+151803596+151976526+152101294+152154968+152294419+152544874
2440+152750700+152877880+152971342+152950113+152849808+152862002+152935383
2426+152891634+152847770+153026452+153282334+153339521+153308463+153399446
2413+153530100+153614297+153705844+153781609+153835053+153923356+154017918
2399+154127507+154354484+154683145+154910927+154907826+154768969+154533875
2386+153913450+152346351+149336664+144870348+139476519+133823209+128245864
2372+122599723+116777216+111200225+106195929+101910286+99031148+98276670
2359+99829211+103666173+109696717+117957337+126472921+130530046+127783371
2345+121351666+116956262+115838170+116166285+117136054+118357752+119314227
2332+119950750+121261076+123563596+125837201+127640217+129667444+132585671
2318+136113200+139194584+141217150+142798270+144667680+146724224+148740980
2305+150630834+152209935+153441405+154463403+155361638+156132788+156775025
2291+157324165+157860125+158474893+159052650+159323990+159276249+159164651
2278+159207280+159325406+159230203+158980906+158921355+159093059+159296703
2264+159447294+159625651+159866018+160031990+160022811+159985838+160071710
2251+160178016+160230302+160250478+160243711+160275545+160382607+160570994
2237+160748039+160711976+160552579+160589294+160800623+160926731+160941183
2224+160916126+160883164+160905675+160967408+160990628+160974299+160966547
2210+160955119+160945892+160989670+161055883+161080213+161093746+161188825
2197+161331893+161464376+161619695+161716861+161704380+161733725+161866782
2183+162010137+162111246+162160594+162212373+162288253+162281055+162248629
2170+162356227+162502549+162483885+162405250+162499984+162655705+162711083
2156+162763973+162820040+162816039+162826989+162893756+162972124+163021415
2143+163029953+163037744+163066380+163134794+163255504+163352191+163414843
2129+163483583+163527112+163538923+163545507+163584347+163636337+163639553
2116+163677531+163849274+164065063+164239926+164400222+164560499+164731936
2102+164889055+164998165+165205608+165690440+166357045+167014251+167739642
2089+168693762+169837868+171131052+172580053+174046818+175384451+176584317
2075+177680663+178673986+179495221+180064393+180392049+180747212+181450972
2062+182365602+183232951+184013834+184776954+185664900+186631653+187589506
2048+188578848+189596462+190588541+191565363+192751505+194111151+195241263
2035+196002488+196475337+196710670+196706344+196425452+195875250+195150530
2021+194251175+193061837+191987619+191621450+191641300+191417318+190964664
2008+190556975+190286287+190124517+189996149+189884570+189910642+189861504
1994+189218367+188637767+189313656+190758695+192028622+193028089+193921261
1981+194871552+195928810+197149924+198561273+200140823+201569764+202409108
1967+203525112+205986885+208942735+211433393+213608800+215491963+217106084
1954+218760232+220413135+221701036+222317566+221995710+221027808+221217602
1940+223313894+225217061+225776107+225709588+225675228+225876660+226198899
1927+226029434+224919037+224055345+223955040+223671698+224507290+226871668
1913+228121342+227528319+226807312+227045402+227571102+227576462+227133054
1900+226332224+224920837+223278558+222119713+220573335+218651753+218593849
1886+219872274+220443054+220404789+220231189+220010863+219803324+219352757
1873+217418656+213076706+209678922+211731857+216316568+218849549+219362060
1859+219483842+219852883+220298761+220575096+220403928+219226840+216392581
1846+212428630+211706092+215969234+219559569+220256993+220195317+219454325
1832+215849155+211355389+210672073+212050076+213565672+216218158+218142841
1819+218285239+217980592+217299764+215299221+213391537+213828551+215385227
1805+215434231+213100997+210281669+210106212+211621311+210609784+206645087
1792+206030510+211543556+216205735+216950497+216237013+215526228+215653599
1778+216671386+215286032+209725820+205004186+207504319+213841989+218929908
1765+220290491+218452063+218086238+219479038+220430114+221329354+219376206
1751+213992274+211681360+215028628+219145371+220842148+220582294+221140670
1738+221745235+217842348+214423603+220210133+228352062+234435544+237829672
1724+238490151+237105870+231205655+221812348+220148151+229416766+239078638
1711+243989549+243395856+239702996+237639188+235221768+229392877+227946632
1697+233841008+244270364+255828607+261172169+261160875+257649980+249703549
1684+248372234+261061719+272506985+276300858+275973011+277573924+279475637
1670+280937808+289307490+299831350+304148358+307186500+314569617+320575151
1657+318281140+307615973+305916382+320563972+327233126+330096864+343089273
1643+357754551+364752796+363999898+357845208+357682845+370760513+381987674
1630+385228703+385490491+386191399+388050367+393503996+398082562+397373614
1616+399430358+408444422+414961855+416467498+416774117+418006180+419125382
1603+419937046+421374007+423096339+424504318+426333501+429287896+432803003
1589+436468719+440646908+445636379+451526487+457616591+460742232+459978767
1576+464080158+475056251+481650406+485653139+495339627+507177345+515509222
1562+516331797+508360864+512401537+538764412+562566684+579998113+593874391
1549+606505473+615629834+618845902+618410418+621735214+643270254+669847100
1535+685006360+696610620+712504401+725912769+734062489+740647839+745587655
1522+752750024+767504006+784188663+801186944+817805982+828522967+830927907
1508+829171272+842278266+872481779+893124643+900225299+901433167+908005423
1495+921134852+929396438+930146197+932763385+943998049+956564546+963798048
1481+966324579+966358422+964910512+962566367+961194796+965878873+974922531
1468+978722319+975241132+973117199+975331560+973129067+962719198+958350200
1454+966371209+972216983+970482477+965729871+964076451+963130601+959592141
1441+954933331+948334429+940356375+936245260+933117590+926919907+922434678
1427+922360254+922770048+921983154+920329198+920284635+926597018+935785849
1414+942808864+947496770+950542664+953184277+955431180+957862995+961116084
1400+962421576+962004814+962630532+966516383+974026067+979324300+979660512
1387+978862286+980075896+982759469+985932161+988553942+988097211+985603912
1373+986405124+990372827+993556545+995025205+994093519+990453071+988043767
1360+989872145+992267438+992443009+992757093+993938621+994183870+993763050
1346+992155571+987561998+980757739+974921535+972400441+972180690+971950142
1333+970749625+969343368+968845596+969558449+971692795+974465876+975663025
1319+975500240+977061089+980187993+982596072+984927659+988565887+993096445
1306+996781227+998794901+1000641733+1003944209+1008531121+1011722648+1011609250
1292+1011190880+1013324691+1017065215+1021864068+1027737407+1034004232
1281+1040075271+1044190980+1046130766+1048732487+1052647281+1056032067
1269+1057614126+1057218037+1056923631+1058792438+1061728380+1064146566
1258+1065354587+1065360177+1066283746+1068836539+1070128020+1068900015
1246+1067999875+1070159337+1073392441+1073741823+1072098893+1071851270
1234+1072986015+1073162659+1071959768+1070870352+1070578013+1071166748
1223+1071577615+1070061405+1067679589+1066398599+1065743632+1065058803
1211+1064770982+1064044118+1061579378+1059121683+1059349091+1060543636
1200+1059751918+1059013491+1059822055+1058547189+1054222141+1050333304
1188+1048350640+1047346751+1045951213+1043774065+1041767281+1040062714
1177+1038312205+1036977616+1036287811+1034837910+1031875628+1029605755
1165+1029625433+1030571207+1029893117+1027150204+1024169928+1021874711
1153+1020332622+1018747654+1016321505+1014693046+1014884008+1015157970
1142+1014876428+1014354384+1013221170+1013187940+1013998187+1011826246
1130+1007466819+1005410495+1006439959+1007612069+1008038785+1007961604
1119+1005756202+1003305474+1004125906+1006726784+1006515225+1003754855
1107+1004879876+1010636448+1014498103+1014365946+1013494979+1013598806
1096+1013970852+1014458441+1015234692+1016544243+1020307814+1026954648
1084+1032964279+1034482555+1031852657+1030887358+1035624498+1041066450
1072+1040807189+1037510380+1037157399+1039391897+1040065394+1040380626
1061+1044574895+1050213169+1052344299+1052234883+1052355325+1051582596
1049+1049558355+1049660727+1053809208+1057619562+1057517037+1056134286
1038+1054630481+1051362768+1048390149+1048325526+1047464207+1042241087
1026+1036928153+1034808431+1033597653+1034128962+1037822243+1040642950
1015+1041748599+1042463365+1041015762+1041475785+1047226002+1050654662
1003+1046723636+1042264211+1043480501+1046777387+1047611754+1047952867
991+1048200489+1045178943+1039846254+1037557622+1040145101+1043728430
980+1046264991+1049222985+1051707862+1051969956+1051476855+1053107687
968+1057844750+1062188710+1062394526+1060223197+1057451571+1054154302
957+1052895056+1055062710+1056726467+1054533392+1053354085+1058182264
945+1064017319+1063741902+1058487542+1054302538+1054665932+1056439029
934+1054378571+1050412706+1049734998+1052474466+1056139952+1057956616
922+1055914152+1052860218+1053155160+1056546914+1059412413+1058915484
910+1056199216+1054500545+1054289981+1054547940+1054427958+1053636239
899+1053853617+1055118758+1055156813+1053361435+1051204271+1049642197
887+1046906482+1043093218+1040665844+1037517041+1031802811+1026395468
876+1022469878+1019879030+1019176744+1018218719+1015190818+1013523310
864+1015437062+1016961388+1015583691+1014225213+1014874514+1015776950
853+1015329713+1014213192+1013083806+1012167588+1011950593+1012500661
841+1013047590+1012178767+1010473357+1009615790+1008830580+1007180759
829+1005040746+1003692911+1005202918+1008802632+1010495715+1008028831
818+1004700629+1004943504+1006653585+1005410342+1002239947+1000308967+999193134
804+996798531+995167546+996352979+996601444+993790997+990735302+989724215
791+991018376+991296855+986577939+979505308+975198407+972599519+968731815
777+965816164+965082331+964466568+964259220+963780973+961255974+958150050
764+955112655+950993423+946547474+942323650+936288981+929675837+927579239
750+928730446+927182537+923381371+920942818+919628520+917415231+913075406
737+908128316+904808459+901880480+898747450+896578571+893774097+888813378
723+882901984+879023101+879236268+879533277+876575207+873690259+872261644
710+871323910+871790365+873756950+875931113+876093897+873988417+873132841
696+875149119+877281168+876965476+875341076+874667809+875579051+878671269
683+882446096+882210494+879067281+879280754+882458347+882819826+877450767
669+870343757+873454888+883940789+888056192+884249284+878800976+879517121
656+884797361+887240814+885946807+883233832+880389007+881428960+884986485
642+881773365+874011770+873456189+879180526+881448332+876758971+870079825
629+867238751+865589926+861011513+855612516+850422703+848049233+849810385
615+850004257+848052832+846028131+844455874+844319276+840405860+833846468
602+831934170+829100523
##END=
