##TITLE=Sample description
##JCAMP-DX=4.24
##DATA TYPE=INFRARED SPECTRUM
##DATE=12/9/2023
##SAMPLING PROCEDURE=Instrument type and / or accessory
##ORIGIN=Default
##XUNITS=1/CM
##YUNITS=ABSORBANCE
##RESOLUTION=4
##FIRSTX=4397.6552
##LASTX=599.8556
##DELTAX=-1.9287962
##MAXY=1.8313929
##MINY=0.21082181
##XFACTOR=1
##YFACTOR=1.7056175e-009
##NPOINTS=1970
##FIRSTY=0.232866
##XYDATA=(X++(Y..Y))
4398+136528852+136065694+135399115+134740635+134780255+135944964+136971496
4384+136615370+135440884+134988306+135787628+136679434+136923052+136857581
4371+136618148+136481150+136644261+136956207+137305057+137574596+137771936
4357+137252908+135843795+134975341+135039398+135023646+134813445+135038297
4344+135591720+136101697+136536409+136441024+136119598+136483693+136715805
4330+136135787+135766678+136088051+136571276+136604886+136223720+136378444
4317+137250252+137815505+137384935+136327370+135792285+136158869+136905177
4303+138146523+139410121+139482730+138813696+138269560+137774749+137518857
4290+137565221+137607532+137697099+137878487+137695614+137051427+136813112
4276+137283722+137554283+136980434+136197598+136294530+137214616+138019975
4263+138205355+138046595+137960584+137928652+137985579+137992472+137452555
4249+137191098+138240013+139129556+138756114+138456277+138549906+138013134
4236+137059403+136922738+137984199+139260333+139574193+139077819+139231433
4222+139894631+139822791+139689856+139942376+139856295+139503864+139475855
4209+139861423+139888734+139484836+139472264+139608964+139574219+139781659
4195+139725431+138915477+138492795+138991380+139300827+139095903+139037386
4182+139106335+139022508+139288605+140148715+140644993+140238597+139596279
4168+139363704+139599983+139841766+139740012+139329990+138580632+138026789
4155+138268590+138497059+138062565+137995914+138804934+139424370+139390149
4141+139230175+139236072+139349979+139428774+139512452+139521477+139320816
4128+139231459+139460374+140011831+140833090+141164912+140400187+139427804
4114+139182718+139259914+139067055+138661672+138409720+138499042+138873393
4101+139301718+139438541+139326373+139163009+139214676+139862769+140539517
4087+140314613+139616530+139413528+139767943+140325044+140442201+139724138
4074+139063491+138911493+138905264+139004144+138852635+138596410+138887878
4060+139514418+140015876+140243550+140308952+140384138+140332339+139957254
4047+139425759+139349979+140100743+140832671+140399654+139341146+138808647
4033+138840483+139406862+140561158+141509044+141343583+140447766+140005331
4020+140146217+140232359+140152131+139966279+139660021+139548962+140094400
4006+140968943+140982275+140185374+139708220+139610484+139785180+140058126
3993+140008800+140197273+140659968+140869373+140994865+140870247+140270563
3979+139591657+139174226+139050308+139053138+138918910+138820642+139446072
3966+140660291+141426781+141490715+141267846+141054360+140915694+140309686
3952+139242922+138914664+139646278+139954127+139432950+139696216+140695019
3939+140884549+140197535+139189533+138622751+139300565+140135584+139616871
3925+138816553+138916814+138536277+137855117+139114014+141635837+142516696
3912+141621911+140414594+138087342+134166479+131673173+132598501+135730334
3898+139250627+140072620+137228193+135333748+137580720+138507569+136824793
3885+136513939+136022474+135855310+138282149+138351648+135212765+132295711
3871+130986544+133025394+134918484+134204116+135458628+138769830+139317348
3858+134853109+126226660+123604385+133358692+140577399+141104176+138197466
3844+135002748+132506619+130234093+130381321+133555814+135829467+136959431
3831+138330977+138846895+138238763+135760702+130970730+130317230+133998782
3817+135842738+139163978+143190649+142983157+139061945+136448983+136459283
3804+134464753+134140672+137971277+139697159+141137515+144163819+145608953
3790+145172336+143969501+142779535+142641629+142142372+141162955+142931244
3777+145877609+146159161+143683162+141318998+141951793+144226809+146338085
3763+146577396+144107547+142928082+144708445+144535427+140236998+138246050
3750+144442706+149288268+151124842+158756751+167339036+169898417+168827389
3736+168432953+172112740+179388881+185641416+187625794+186881809+186616481
3723+187616918+189247100+190675556+191111543+190231775+190977297+199615444
3709+214060004+227501978+237925572+247551225+259982646+272275051+279796339
3696+282562251+280839252+274767510+269118966+268822012+269241050+265776409
3682+258552198+249184325+238702196+229905831+227685707+226143641+222991889
3669+224853886+228617806+229623904+229173431+228023111+225399028+223275355
3655+223467715+221077456+214804932+213471949+221055719+228876093+232905655
3642+234837929+236961672+239031126+240173513+240255759+237934868+234552192
3628+236788968+241313647+241290600+236724073+231071772+229364621+230020455
3615+229231215+228688520+230124821+233388662+237679097+240812468+242060462
3601+242551682+242706493+242138252+241729907+242251477+241700849+238863001
3588+236996793+238089242+239245293+239368496+239182548+238827460+238274596
3574+238099237+237827496+235905933+233626453+234386495+236637145+237647786
3561+238215223+238938571+238962597+237966214+237063854+236942976+236742822
3547+236567026+237275313+238461680+239222666+239189345+238720910+238349433
3534+237990449+237121690+236029905+235763895+236223244+236580358+236802475
3520+236985592+236851574+236445239+236054716+235494898+234867004+234844009
3507+234798510+234083548+234097491+235081346+235355305+234801428+234540800
3493+234733562+234681929+234290568+233949547+233591053+233313092+233511987
3480+233905078+233820474+233282811+233018059+233186884+232999922+232464339
3466+232354643+232536834+232775568+233045562+233034187+232990487+233101703
3453+232942034+232290639+231476448+231343897+232081574+232822903+233209913
3439+233427260+233505837+233670258+233968855+233929942+233421896+232962879
3426+232767426+232459167+232263049+232768142+233529408+233937316+234168012
3412+234318892+234186988+233902946+233749551+233843800+234127160+234197297
3399+234069866+234359587+234985489+235336644+235323889+235430265+235922358
3385+236432239+236784303+237115679+237494827+238027422+238370121+238206207
3372+238074268+238393989+238946085+239391770+239465087+239456595+239958490
3358+240766444+241475762+242273179+243083124+243389007+243029919+242653357
3345+243083788+244015747+244751065+245476581+246350932+246904268+246804846
3331+246428582+246320843+246346599+246269507+246400223+246907570+247316475
3318+247185584+247029358+247545319+248355614+248908758+249203947+249234805
3304+249118941+248927891+248817496+249376231+250355630+250703693+250599187
3291+251149413+252374850+253679789+255148397+256925458+258255733+258467751
3277+258375773+258613913+258927571+259661963+260661840+260887959+260306369
3264+259996432+260241456+260183027+259705785+259509389+259932411+260613772
3250+260599566+259803495+259081753+258476505+257899388+257736993+257727436
3237+257651690+257657474+257174099+256029738+255501021+256032027+256269433
3223+255670073+254979538+254472890+254022435+253696143+253445947+253078087
3210+252640335+252181912+251636579+251193148+250996052+250595483+249582238
3196+248515247+248063709+247885536+247235400+246280411+245669169+245158956
3183+244242600+243044998+242006453+241500311+241425859+241111466+240319763
3169+239718533+239388118+238662637+237654128+237200616+237591802+238177096
3156+238071489+237394933+237344559+237524059+236419745+234996165+235157912
3142+236490005+236983251+235771461+233832303+232661871+232611671+232279282
3129+230949758+229905412+230284018+230753763+229407955+227576221+227478337
3115+228217062+227298924+224857923+223212207+223256833+223532907+221975727
3102+219181002+217545683+217682444+217724432+215828101+213380250+212699500
3088+213780400+214301009+212524106+210244783+209705285+210610826+210928887
3075+209611665+208055202+207906925+209113613+209698017+208721151+207518692
3061+207230177+207871944+207925080+206703155+205831530+206088803+206521453
3047+206213403+205353398+204746245+204745493+204931651+204657394+203758843
3034+202643836+202019367+202118632+202221810+201798473+201305034+202013461
3020+206424635+214362392+219169715+216548392+210790449+206229356+203157334
3007+200998784+199686454+199039655+198647560+198141750+197429305+196841512
2993+196810532+197562729+198433900+198528883+198328240+198499895+199023597
2980+199603580+199407235+198501066+197927636+197905235+198250503+198351444
2966+197601117+196738211+196721000+197727534+198493046+197537515+195862550
2953+195032650+195412182+196447739+196554779+195524516+194857011+195162562
2939+195873103+195770921+194465108+193242432+193122672+194094959+195078430
2926+194687593+193317479+192135253+191708230+191951419+191689656+190514769
2912+189631804+189784168+190593467+191045949+190564777+189798426+189464010
2899+189699075+190239568+190364833+189916195+189540350+189535352+189836221
2885+190286641+190589990+190618436+190508356+190508304+190609473+190575487
2872+190455151+190411066+190470841+190604860+190600911+190356585+190136932
2858+190116296+190125085+189820914+189108154+188349125+187808038+187545645
2845+187654467+187886474+187895805+187762223+187749328+187943366+188181209
2831+188338502+188472590+188559134+188605839+188750097+188867865+188764529
2818+188625584+188563257+188371613+188081526+187956978+188019758+188153532
2804+188348077+188594569+188890964+189212486+189443776+189549803+189621162
2791+189754814+189808508+189562663+189258020+189247117+189408970+189443829
2777+189379685+189378864+189326427+189134731+188911967+188688382+188507344
2764+188482881+188615152+188783400+188889846+188946441+189061536+189317551
2750+189608809+189702779+189569966+189450696+189488158+189631996+189711883
2737+189563921+189407292+189473760+189587090+189649713+189623748+189485187
2723+189569355+189961677+190238328+190223353+190075986+189956138+189994788
2710+190215263+190523785+190803668+190882034+190731504+190564986+190442483
2696+190364885+190449192+190659393+190861521+190960349+190966150+190976022
2683+191020299+191037492+190951333+190811111+190681357+190571416+190542009
2669+190596123+190620376+190473777+190193544+190000939+189960524+189900853
2656+189753032+189665527+189671817+189666435+189623102+189543512+189394450
2642+189189194+189034138+188947804+188838964+188714486+188571732+188312327
2629+188017574+187826349+187623435+187409984+187348514+187376436+187362597
2615+187215824+186962692+186754064+186541469+186314512+186242506+186200867
2602+185999386+185758013+185620483+185637135+185689362+185586236+185426532
2588+185325625+185178101+184962291+184751723+184572468+184469674+184432666
2575+184400620+184402507+184392268+184305829+184242262+184220281+184089146
2561+183781882+183377015+182971762+182715380+182634673+182531285+182371651
2548+182301269+182344271+182312068+182054340+181762156+181659135+181675036
2534+181664674+181645541+181638447+181566738+181427949+181255578+181116178
2521+181091978+181143017+181178801+181084866+180866576+180734672+180738743
2507+180757579+180820604+180942548+181001887+180923241+180764341+180749332
2494+180976271+181195750+181199909+181156803+181376491+181826981+182219775
2480+182427198+182430151+182282399+182143069+182043472+181948489+181971588
2467+182126294+182215215+182252922+182389211+182471736+182411996+182419492
2453+182565060+182804126+183071149+183268053+183467473+183707203+183870838
2440+183993551+184258757+184607553+184736347+184629203+184553911+184621916
2426+184759167+184894234+185048398+185267231+185469638+185528715+185550084
2413+185698937+185906045+186108453+186364887+186652493+186871675+187060558
2399+187402611+188061729+189526249+193086625+200557852+213757318+233846840
2386+260319316+291053065+323671630+356924850+391225929+427559158+466175029
2372+506739284+548177121+587441766+621547602+648534991+665372920+671378543
2359+666293469+646158448+613825008+576999564+542378344+522646599+527833401
2345+552352968+567876366+560597796+546722001+535767978+530249958+532150325
2332+537125424+536733119+531216077+526953459+524569682+518935536+507064492
2318+489740917+471609319+462303039+464566601+466655223+456321074+433664832
2305+408000746+388815174+376773839+366477676+355114923+341931166+326162481
2291+309462519+294476208+281463162+269732008+259759270+252062362+246256210
2278+241467549+237064291+232969065+229321760+226294661+223846269+221675383
2264+219649419+217803655+216133756+214616555+213201623+211830042+210498859
2251+209291437+208257749+207275292+206318014+205583867+205122946+204749949
2237+204340381+203905704+203484586+203176449+203019891+202898715+202751645
2224+202601534+202522766+202555108+202577316+202574171+202674816+202782223
2210+202758879+202755174+202905460+203157526+203388415+203526102+203674274
2197+203906124+204174282+204427519+204647015+204899134+205159447+205310432
2183+205378594+205442982+205535991+205671128+205786799+205813882+205822776
2170+205932367+206087877+206128904+206106591+206198848+206317700+206301223
2156+206233165+206150046+205997297+205886046+205892336+205922862+205925815
2143+205969148+206133866+206467007+206946083+207394930+207659699+207829415
2129+208078947+208365680+208505901+208579567+208846014+209257120+209555716
2116+209754682+210033796+210418867+210825465+211151581+211360122+211503698
2102+211723247+212121982+212574795+212998394+213537700+214280776+215102410
2089+215865371+216605092+217483234+218609966+219913751+221342871+222851703
2075+224358578+226059980+228090487+230210247+232339511+234759684+237570048
2062+240545427+243627514+246880295+250201151+253514563+256959059+260583876
2048+264130431+267370474+270297435+273077658+275758739+278136103+280147075
2035+281787758+282977533+283797944+284371409+284669779+284620889+284186352
2021+283374205+282273911+281067450+279936542+278704745+277055203+275145924
2008+273333743+271690368+270103572+268520532+266965991+265453454+263931885
1994+262329799+260925456+260096780+259614646+259123916+258590971+258035730
1981+257510875+257152573+256964318+256756599+256501352+256237247+255900821
1967+255825635+256367771+257116700+257668936+258166306+258694656+259248796
1954+259964404+260802027+261489870+261951665+262247204+262497663+263363889
1940+265023950+266581025+267668284+268536992+269365913+270204252+270949896
1927+271347303+271334722+271498060+271852413+271927984+272596171+274054209
1913+274856955+274702109+274628705+275179280+275942031+276569715+277036856
1900+277300297+277304194+277337672+277727286+277850558+277656660+278324357
1886+279578310+280449428+281074666+281601216+281895252+282083018+282235033
1873+281646961+279716242+278134565+279187298+281406951+282580003+282648847
1859+282305659+282018053+281820468+281491887+280901369+279847622+277900549
1846+275346672+274554968+276186583+277205087+276766688+276231716+275568422
1832+273384747+270681545+270082272+270635731+271182584+272202416+272837945
1819+272608804+272134411+271495789+270265110+269072855+269059715+269643315
1805+269625440+268667620+267343845+267019965+267601537+266976597+264856628
1792+264706430+267702567+270171035+270911630+270889212+270534981+270649797
1778+271365457+270717697+267794090+265609314+267839573+272097228+275024958
1765+275565696+274690961+274967489+276248822+277226876+277978251+277296331
1751+275139948+274567147+276733629+279312702+280646682+280860866+281509588
1738+282194933+280596254+279649583+283523408+288091227+291356676+293333786
1724+294185771+294027954+291340968+286913754+286933691+292678197+298225293
1711+301092234+301009622+299277310+298521810+297710328+295208328+294995402
1697+298580275+304843207+311627638+314884578+315354253+313779478+309762077
1684+309826902+317429282+323802048+325954377+326084971+327327129+328515471
1670+329562211+334624220+340583365+342977102+344961724+349734136+353882969
1657+353356541+348110436+348031877+356801002+361001835+363648476+371975008
1643+380780686+385460281+386017566+383619950+385008358+393881098+401207333
1630+404153323+405592123+406963407+408751108+412587035+415824195+416097962
1616+418161948+424192453+429027347+431776835+434670510+438594151+442576431
1603+446348651+450680113+455553588+460319918+465234490+470918121+477017924
1589+482934085+488783045+495015958+501872064+509101394+514673652+517909973
1576+523972419+533087614+538983961+544110166+553096061+563002087+571031158
1562+575095247+574822038+582536840+601356806+617432002+630359605+641553323
1549+652067480+660892204+666874273+670252022+675020694+690890686+709557554
1535+721835229+732932636+745935653+755964968+762592911+768391094+773332680
1522+779992004+790236657+801218812+814028996+827357850+836175724+838731960
1508+837678894+846075878+866291556+880674034+887265912+890787359+896516419
1495+904714629+909677462+911148272+915790579+926289919+936317347+942344008
1481+945623418+947253582+946609666+944694481+945663745+951996953+959196545
1468+961253401+960157771+963223870+966289201+961525980+952092566+949614819
1454+954890209+959552785+960502480+956866620+952910514+952847681+954445905
1441+952119544+942872323+931294896+926088979+924736077+920438128+916066234
1427+916133261+919175876+922249383+920734611+918320256+926407687+938143769
1414+942533066+942831575+945218882+950103086+954803403+958798998+962236853
1400+964270645+966784457+970121318+972315442+975008597+977789326+977900664
1387+975830319+975271601+978077911+982549332+986042612+987685147+988511692
1373+989961605+992144546+994105720+995841562+996730730+995917255+995559198
1360+995926481+994214962+991145648+989755003+990382915+990546462+989248076
1346+987646986+985829301+981294697+973294701+967124063+966032766+966296050
1333+965648010+965925342+967176412+966996439+966362378+968569572+973243680
1319+976468784+977307839+978187642+978658715+978370689+979688156+983401736
1306+988599826+993654497+996698580+997600957+997873746+999083440+1001482348
1292+1003728962+1005997731+1010721882+1017894634+1024510696+1028293120
1281+1030938678+1035966859+1041850521+1045171866+1046826493+1048364610
1269+1049283971+1049163197+1049285299+1050739266+1051966222+1052100206
1258+1054090664+1059292528+1064029958+1065271173+1064113969+1063368918
1246+1064241941+1065659913+1068140805+1072062035+1073741823+1072196577
1234+1070856535+1070263290+1070111624+1071143093+1071456978+1070620649
1223+1070839761+1070257839+1066545167+1063087532+1063152043+1065681720
1211+1067517437+1067439787+1068230966+1069562342+1067392540+1063536310
1200+1062539997+1063960136+1065769784+1066982483+1064875793+1059211243
1188+1054491706+1053816967+1055731033+1054850951+1050241354+1048035208
1177+1049461777+1049810189+1047178330+1043625572+1041360996+1041186266
1165+1042523652+1043343138+1042526448+1040706316+1038338300+1035984192
1153+1033879740+1031868872+1030777646+1030962930+1031998452+1034163152
1142+1035128643+1030947624+1025827534+1026245489+1028273061+1027257458
1130+1025470106+1022593274+1018368992+1016955913+1018078940+1016855827
1119+1013328090+1011011794+1010673586+1012126435+1014432037+1015962186
1107+1016710102+1016891332+1017410072+1018731942+1019141161+1018690007
1096+1017566141+1014539391+1012337649+1014256119+1019700787+1027553311
1084+1035029466+1039484741+1040906697+1037791464+1032852604+1032636009
1072+1036758248+1039281565+1037037258+1033830955+1034108706+1036673539
1061+1040108529+1044540181+1047583565+1048330083+1049415578+1051311263
1049+1051773110+1050953974+1050832222+1049738340+1046166921+1043108020
1038+1043027365+1047809666+1054053552+1053468904+1047627108+1041797752
1026+1037760711+1037341778+1037829835+1036020187+1032960658+1030850683
1015+1032505590+1036739307+1038289445+1037676212+1038063274+1039001577
1003+1040391871+1040434156+1038582014+1038513170+1039817568+1040242652
991+1041072481+1042738291+1043594260+1045355892+1050475562+1055886543
980+1059201528+1060349158+1057953115+1053726456+1051559590+1053303958
968+1056372504+1057189403+1058813417+1063343687+1065847713+1065349942
957+1065847783+1067681194+1068873415+1069471412+1070064866+1069580374
945+1068489567+1068945334+1070437392+1070139791+1067538894+1065137609
934+1063612283+1063815529+1066002105+1065193523+1061188702+1060178341
922+1062481288+1063426160+1062773297+1063830346+1064683520+1061789775
910+1057779852+1055916527+1055629480+1056046666+1057245247+1059414979
899+1063299865+1067966564+1069602530+1066561173+1063043151+1062718292
887+1061315137+1054900225+1047465727+1043051548+1043696722+1049441578
876+1054603533+1054942580+1053009573+1050695234+1047611522+1044648164
864+1041992961+1038789314+1035514098+1033206049+1033454865+1035601323
853+1035317421+1033154259+1033365473+1035616769+1037445847+1037224359
841+1035835532+1035709796+1036138654+1034923090+1031335805+1027218458
829+1026259957+1028767268+1030251218+1028996025+1027303097+1026030221
818+1026050280+1026369478+1025542863+1026179790+1027205108+1024847227
806+1020519784+1018901780+1021027620+1020856245+1016135798+1012068354
795+1011096084+1013098005+1016325625+1015864337+1011750834+1008219253
783+1004921042+1001456418+999940108+1001106538+1002804498+999963382+992806844
770+987290047+985596490+985386604+983152501+977724466+972041046+970314500
756+972564748+974708899+973428405+968244853+962182897+957916889+955384067
743+954020541+952332855+949910603+947551952+945402419+945642708+946705698
729+941238384+931148962+924292681+921170458+919974184+919237940+916733634
716+913486235+912112085+912786335+914358209+917403760+922549361+928585457
702+933038007+934285652+934607435+937007881+939049012+937178768+935474028
689+936989849+937207144+936384653+938098758+939536650+939438521+941196099
675+945272140+951073049+957471886+959951590+954418367+945162898+936992365
662+931314187+928771790+929637893+930723318+927970057+924414852+923995709
648+924756695+922731290+920518993+921886643+922569070+917710167+911180632
635+913428085+922834521+927239753+928453640+929544377+928284222+929070019
621+930007064+925156408+914059141+901844228+900292063+915762203+939601719
608+955596400+956199080+948950634+940625080+931129042
##END=
