##TITLE=Sample description
##JCAMP-DX=4.24
##DATA TYPE=INFRARED SPECTRUM
##DATE=12/9/2023
##SAMPLING PROCEDURE=Instrument type and / or accessory
##ORIGIN=Default
##XUNITS=1/CM
##YUNITS=ABSORBANCE
##RESOLUTION=4
##FIRSTX=4397.6552
##LASTX=599.8556
##DELTAX=-1.9287962
##MAXY=1.8565341
##MINY=0.30269027
##XFACTOR=1
##YFACTOR=1.7290321e-009
##NPOINTS=1970
##FIRSTY=0.32552591
##XYDATA=(X++(Y..Y))
4398+188270595+188407831+187638759+186168682+185060002+185226591+186054560
4384+186381104+186616967+187206367+187541580+187174290+186315657+186133175
4371+187254025+188176225+187926987+187542615+187517898+187612991+187896926
4357+187981661+187545235+187285758+187278156+186511618+185446770+185335767
4344+186029378+186983224+187739127+187822224+187275088+186520788+185855686
4330+185267855+185024012+185210665+185377290+185898209+187285620+188454973
4317+188341247+187557869+186546643+185289746+185006155+186307935+187652118
4303+187901356+187497024+187217794+187407033+187698828+187766843+187657892
4290+187546079+188008825+188805648+188887831+188469813+188197926+187807952
4276+187179616+186835318+187088573+187279001+186819668+186574359+186952629
4263+186998271+186782006+187367786+188591623+188823332+187370768+185730826
4249+185615428+187103172+188310325+187882051+186953801+186547280+186241299
4236+185886195+185954106+186116560+185686821+185394491+185840536+186268861
4222+186512428+186880926+187106792+187417409+187834789+187711635+187952755
4209+189256725+189808893+188882298+187997242+187426993+186734813+186640030
4195+187271986+187942172+188222540+187932985+187430681+186968021+186463563
4182+186187574+186073055+185962018+186535077+187325487+186880116+186367074
4168+187689883+189373467+188944884+187306200+186848521+187452537+187708101
4155+187155898+186508929+186456289+186302023+186078570+186845781+187853060
4141+187804315+187088694+186440294+185993750+185734773+185676048+186005626
4128+186322638+186012986+185657226+185827798+186237197+186615381+186741466
4114+186390756+185816129+185180501+184209712+183676641+184543598+185703954
4101+185773520+185438737+185768177+186086034+185588315+184932935+184708327
4087+184706603+184721599+184613027+184543719+185086304+185926787+186139708
4074+185607758+184472136+183369178+183264742+183711166+184011493+184459985
4060+185042455+185205167+184912079+184783874+184952308+184888034+184719531
4047+185052555+185513354+185484328+185359002+185177968+184409758+183428144
4033+183125196+183543214+183752016+183472872+183435452+183886805+184578537
4020+185186465+185347264+185155698+184821260+184405862+184557388+185684063
4006+186593198+186259570+185512509+185282765+185188602+184648551+184114860
3993+184525311+185396853+185269510+184422616+184364029+185279955+185852515
3979+185358950+184435647+183506966+182894073+183176957+184056204+184884673
3966+185677255+186385844+186407166+185756405+185192963+184825914+184478048
3952+184693831+185741323+186433020+185888487+185268373+185374480+185029821
3939+183914693+183282634+183696566+184792958+185941300+186284356+185398146
3925+184091918+183423335+183265259+183609557+184806592+186161857+186455221
3912+185532555+184283983+182938802+181487978+181234016+182358020+183500605
3898+184480841+184654256+183357647+182315464+182856291+182905208+182490827
3885+183140244+183483283+183846833+184720065+183750637+181827139+180786231
3871+180123302+180687725+181612873+181793390+183029034+184766293+184631745
3858+181657739+176278891+175063413+181645398+185701403+185110108+182739135
3844+180952787+180280842+179785192+179968915+181353034+182245570+182640146
3831+183463151+184163329+184176583+182541778+179387100+179244141+181764174
3817+182718520+184268678+186080622+185316462+182510459+180831253+181202612
3804+180454275+180347099+182719365+183982570+184816503+186202724+186812601
3790+187075577+187423959+187327797+186777197+185842414+185329165+186446585
3777+187788871+187744350+186794123+186595370+188158937+189937839+190900097
3763+190858264+190192318+190943843+192702492+192658177+190812570+191603773
3750+197460105+201544120+203613128+209376211+215249917+217457178+218779694
3736+221490121+224358968+227381391+230913426+233669409+235607162+237121536
3723+238323570+239751607+241362454+242898374+244685739+248921761+258311852
3709+269494961+278948086+287469788+297366113+309703183+321133583+329116079
3696+334328096+336908802+336477099+335623069+336376128+334875491+329410029
3682+322164804+314911064+307731061+301736441+299612294+298290812+295905774
3669+295209664+295229314+294584775+294175203+294012836+293326137+292944833
3655+293768493+293292113+291297687+292518025+297615696+301681285+303607696
3642+304581140+305459129+306392274+307529946+308828814+309283924+309561844
3628+312661780+315704042+315470868+312394822+308474916+307226689+308049073
3615+308290796+308943436+311366084+315246898+319200864+321250584+321261753
3601+320917507+321305258+322160426+323201643+324091042+324107348+323474392
3588+323498144+324226176+325008365+325438999+324863786+323981246+323850319
3574+324371445+325076517+325721918+326446296+327089042+326975867+326344946
3561+325920999+325767836+325750634+326011076+326402308+326568054+326797091
3547+327433184+327567215+326761481+326068853+326100292+326498832+326596149
3534+326346187+326072438+326182130+327215833+328169869+327628611+326435540
3520+325695650+325108336+324401264+323738282+323392002+323416995+323346774
3507+323112290+323348498+324012065+323922884+322874772+322171112+322186625
3493+322008366+321293296+320520415+320236876+320652791+321565045+322122161
3480+321563494+320284241+319178801+318865546+319113889+319242817+319119197
3466+318765954+318343938+318369930+318504823+317638658+316198486+315662227
3453+316041980+316519153+316591373+316168736+315875510+316065628+316370816
3439+316065249+314791408+313726163+313841096+314196200+314013425+313543354
3426+312991064+312520717+312227491+312054851+312062332+312328600+312605141
3412+312525061+312030031+311446785+311329474+311697126+312075673+312168301
3399+312009554+311844739+311573059+311123188+310772634+310826618+311262976
3385+311266216+310555662+309848279+309554502+309560052+309418886+309166924
3372+309379104+309932324+310281603+310503504+310902321+311020356+310275398
3358+309415542+309601798+310491956+310928106+310550870+309975553+309930704
3345+310297805+310670629+311142872+311718431+312231662+312678672+312801326
3331+312408715+311823263+311357535+311424067+312077776+312368692+311743423
3318+310748158+310128268+310207348+310425665+309927877+309113904+308706056
3304+308089682+307136473+307180909+308707125+310481545+311351088+311348399
3291+310959684+310869365+311593708+312596075+313309525+313790283+313964577
3277+314063721+314421894+314850185+315179642+315106628+314492012+313885324
3264+313647703+313777286+314104089+314385732+314499010+314065928+313395327
3250+313482268+314090851+314523761+314848633+314733701+313445623+311765934
3237+311330404+311746802+311542378+311192582+311988008+313007646+312669950
3223+311721775+311555615+312200671+312589249+312194328+311848117+311674857
3210+310878983+309759650+309450049+309876237+310023160+309611485+308620150
3196+307181564+306220289+306180955+306206879+306009798+306212843+306218738
3183+304928316+303226943+303094464+304036331+303586874+301382371+299555103
3169+299575063+300180544+299386152+297530376+296903625+297897684+298276989
3156+297288652+296228647+296352680+296910520+295693525+293236715+292761059
3142+294922781+295733789+292955313+289863479+289898676+291709810+290913625
3129+287631173+286627152+289606208+291815572+288986559+284491266+283746515
3115+286595730+286957694+282468986+278713291+279605000+282004516+280115750
3102+274897992+272363222+274477320+276709971+273696718+268546803+267858449
3088+272273179+275059343+270897385+265019801+263546104+265766965+266670739
3075+263531402+260093425+260271202+263221680+264136107+261305870+258642964
3061+258912920+261216016+261614832+258824325+256505044+256714432+257850588
3047+257605090+256133013+255049567+254837179+254888613+254424436+253479053
3034+252567005+252159881+252380214+252379111+251641823+250940852+253059157
3020+264358457+284792162+297725078+291575951+277228029+265847838+258932553
3007+254641425+251661283+249642674+248445381+247553655+246214488+244669502
2993+244121884+245541251+247582112+247601917+246095867+245332346+246324060
2980+248122784+247952816+245786112+244434742+244916845+246636557+247612241
2966+246289398+244093444+243507509+246081578+248879394+247420831+243819419
2953+242050756+243192772+245709944+245543320+242737248+241016140+241663178
2939+244094650+245098241+242464947+239534790+239304443+241764562+244304176
2926+243015237+239066908+236677044+237180313+239084627+239136681+236577538
2912+234437722+234553000+236234481+237207667+235888857+233897602+233242566
2899+234221802+235939549+236309218+234877251+233642520+233781566+234907536
2885+235537199+234599952+233271317+233034247+233908478+234835953+234730931
2872+233877401+233335884+233558441+234113178+234122555+233454747+232788059
2858+232500866+232492506+232348513+231581303+230338282+229323470+229076196
2845+229514794+229861505+229592789+229188768+229226688+229563798+229812467
2831+229869072+229795455+229670250+229594168+229555179+229399948+229154381
2818+229057874+229045998+228812135+228455151+228282770+228215720+228205516
2804+228541006+229050049+229193473+228988273+228785780+228735088+228804171
2791+228871135+228808687+228599730+228334100+228109130+228015984+227982373
2777+227853014+227697214+227551687+227363844+227155163+226913888+226822966
2764+227052917+227270561+227180845+226976490+226834014+226701294+226685902
2750+226896582+227058208+227026476+227021650+227078892+227055778+226919783
2737+226752072+226586068+226397002+226379748+226633037+226788527+226616732
2723+226378749+226253543+226118186+225962954+225977347+226264937+226613388
2710+226699225+226546993+226368941+226168637+225922225+225823581+225942943
2696+226086695+226262437+226555525+226684023+226447419+226186649+226206367
2683+226309975+226308665+226294721+226206419+225897456+225552659+225311090
2669+225082036+224909085+224804546+224687615+224558117+224428741+224308689
2656+224130016+223838342+223603392+223567816+223599014+223599135+223623214
2642+223584966+223324490+222900922+222598561+222581859+222610678+222319434
2629+221815389+221540227+221475384+221326306+221108300+220903307+220685939
2615+220448921+220290328+220255201+220116930+219757723+219359613+219047048
2602+218851174+218785020+218799482+218834058+218778918+218528077+218170214
2588+217918183+217849427+217777793+217534777+217312254+217283573+217226210
2575+217041832+216943981+216902872+216745848+216551784+216382660+216147969
2561+215837231+215491209+215142258+214851600+214705367+214730463+214703057
2548+214485102+214324580+214319150+214274766+214149009+214018943+213758036
2534+213353066+213163724+213223224+213218639+213133060+213052928+212979001
2521+212939047+212919949+212918536+212935445+212822839+212497175+212194227
2507+212125178+212178887+212191004+212163391+212139226+212166235+212270309
2494+212345977+212336324+212333515+212480679+212829338+213128975+213165655
2480+213110446+213101587+213112842+213214278+213393141+213501679+213470619
2467+213371026+213380386+213541822+213715393+213771446+213737593+213748125
2453+213727062+213624471+213615784+213738317+213937984+214209406+214517145
2440+214770917+214927613+215014278+215031600+215041115+215108216+215202603
2426+215248728+215242074+215313467+215476334+215591250+215605090+215608882
2413+215714076+215894214+216046446+216121787+216177443+216306837+216489698
2399+216742229+217320200+218759907+222153120+229137007+241207292+259024698
2386+282018133+308486051+336230411+363644556+390734243+418838396+449076867
2372+480879232+512695903+543541681+571847880+593498443+606102884+612244979
2359+611163773+596795907+570346037+540099844+512674496+497256691+501949616
2345+521772774+532313740+523730521+510613330+500442843+495908665+499222332
2332+505874073+506978480+501691897+497371589+496752560+494304816+485698569
2318+472022367+457969652+451928977+455640150+458109612+449373092+430424855
2305+408853236+392558994+382505266+374003230+364452013+353303429+339812380
2291+325352542+312375483+301217418+291251597+282686303+275753677+270158925
2278+265428821+261200434+257387377+254079294+251242559+248687484+246420964
2264+244545641+242898357+241308590+239837427+238502329+237204668+235984708
2251+234977688+234178383+233438769+232651185+231892283+231325428+230929663
2237+230510646+230021907+229585050+229293582+229174909+229151606+229078575
2224+228928825+228841936+228939012+229154829+229329417+229402844+229447159
2210+229601511+229888256+230141959+230332714+230578161+230832226+230997609
2197+231106991+231264308+231522389+231778488+231986152+232263228+232558832
2183+232727008+232841768+233023733+233175655+233157194+233049863+232945428
2170+232874896+232902457+232933224+232877016+232793902+232643722+232360562
2156+232073334+231915259+231809272+231617931+231402268+231286474+231184366
2143+231151530+231358092+231690341+232096879+232578482+232984572+233283710
2129+233548461+233793822+234048300+234384514+234731741+234967536+235188713
2116+235528908+235866398+236107863+236363341+236579468+236706690+236889310
2102+237195343+237542019+237881249+238312297+238820513+239397623+240064586
2089+240606378+241041115+241703821+242698931+243897483+245213053+246542549
2075+247906743+249536670+251476543+253635629+255998104+258569416+261282463
2062+264119594+267189642+270458891+273872081+277388207+280981862+284705325
2048+288473534+292177813+295746027+299073208+301954620+304398089+306658025
2035+308653451+310173910+311186618+311867147+312290887+312298264+311959741
2021+311437339+310756190+309763442+308403936+306878168+305234366+303545783
2008+301923836+300254488+298485032+296753496+295125551+293579754+292183363
1994+290924760+289715073+288595068+287558677+286510392+285542774+284824929
1981+284247043+283657282+283160597+282782189+282376720+281993881+281854387
1967+281964528+282072480+282092112+282198288+282508888+282974772+283445343
1954+283877822+284412961+285034748+285584210+286141498+286946491+287979176
1940+288947277+289724726+290358578+290926104+291561438+292319841+293078381
1927+293659352+294158932+294756588+295198254+295369343+295706970+296319173
1913+296791278+296989738+297163999+297399965+297606630+297890341+298255788
1900+298502958+298596724+298731996+298952760+299001159+299010708+299375983
1886+299905451+300268071+300540613+300906370+301223899+301304738+301287570
1873+301179222+300800056+300506244+300947841+301795562+302322100+302257946
1859+301757711+301215315+300854385+300665198+300583842+300407962+299649008
1846+298385233+297950841+298427152+298287675+297522137+297013490+296632186
1832+295450388+293922276+293548729+293905419+294038932+293922655+293748499
1819+293725781+293544868+292896571+292040542+291376561+291199680+291259698
1805+291374389+291580605+291294860+290559830+290249023+289847759+289064605
1792+289445427+290993671+292096595+292688528+292891607+292731378+292856376
1778+293188350+292736169+291262318+290475958+292360346+295170021+296596955
1765+296595162+296544763+297498385+298656638+299299867+299726227+299987600
1751+300064405+300414132+301489478+302839262+303599526+303682536+304123306
1738+304808867+304758882+305599433+308271423+310417357+311837121+312925669
1724+313801417+314198924+313437488+312473972+314043624+317453401+319953578
1711+321268993+321643368+321666189+322297386+322656386+322280391+323249595
1697+325744256+329390724+333137887+335276789+336549216+336763568+335809084
1684+337786170+343181824+346843770+348119714+348894387+350669290+352303854
1670+354189691+358320157+362323695+364503826+367145342+371401944+375031417
1657+376172158+375263419+377979362+384593562+388060426+391447176+397814033
1643+403395875+406625359+407968835+408118240+410677779+416654818+421084819
1630+423393844+425294918+427059031+428784431+431441942+433421717+433621763
1616+435220820+439338290+442839593+445346664+447801406+450497492+453366288
1603+456523482+460080803+463841239+467492222+471326050+475742641+480289643
1589+484767354+489610168+495023782+500998063+507319761+512788704+517149449
1576+523118455+530084175+535147442+540549198+548208269+555967967+562722713
1562+567266957+570314459+580042729+594960091+607189054+618305510+628867781
1549+638818573+647616799+655204547+661394972+668627994+682906299+697246103
1535+706972614+716706503+728359563+738711343+747773976+756257465+763374038
1522+771572299+782448687+794132566+806199231+817406971+826671477+833645539
1508+838875414+848320213+862201321+872494015+879119073+884354532+891360309
1495+900027884+906206657+909630844+914684080+923596894+931911743+937058262
1481+939990245+942649135+946380200+948835286+947890041+948657820+953673066
1468+957479006+958173564+959420171+963031683+965340192+962525415+959893690
1454+963219423+966111142+964831372+960256551+955708205+952546080+950535418
1441+948497452+944139258+938078106+933229708+929067251+924030769+919653753
1427+916980453+915968883+918685411+923256027+925048752+926442903+930390318
1414+935047737+939751142+942843700+943783361+945824980+950759629+955671319
1400+957456874+958218034+961113132+965723323+969869509+971417201+971384659
1387+972133271+974352908+977004766+978469103+978015785+976878802+978384162
1373+983127004+987686106+990528046+991221916+989734620+987605508+986814839
1360+987824962+988988145+988407208+986923497+987223756+988131150+987284083
1346+985149525+982529934+980197157+977966903+974229358+968443436+963099043
1333+961922072+964304696+965893963+965303788+964842955+966488551+969457627
1319+971124389+970147980+968895513+970785038+975375993+980687913+986793673
1306+992667844+996200000+996890009+995815146+996121471+998855512+1000300062
1292+1000053443+1002326306+1007362512+1012308951+1017119980+1023065717
1281+1029254281+1033578485+1035874927+1037928612+1040689955+1043561198
1269+1045690516+1047730205+1049519828+1048806723+1048168355+1050626544
1258+1051801103+1051031117+1053533914+1058859072+1061697013+1060343679
1246+1058755722+1061296094+1066032455+1068185698+1068652943+1069268696
1234+1069391075+1069312063+1068508019+1067391306+1067546778+1067815666
1223+1067017965+1066071961+1065600028+1065311353+1065081281+1064934289
1211+1064149480+1063096335+1063332474+1063402867+1061228872+1058223323
1200+1055808846+1055019763+1057105714+1060457370+1061879168+1059925247
1188+1055899372+1052934501+1052020005+1050923286+1049310578+1048907315
1177+1048933790+1048440966+1047967447+1047091561+1045545110+1043264180
1165+1040822883+1040320062+1040773724+1039413909+1037627526+1037974806
1153+1039631432+1040471053+1040417413+1039080005+1036170153+1035635134
1142+1038492795+1039016161+1035493175+1032222116+1030511436+1028439481
1130+1026506796+1026564365+1027145646+1024999436+1020743558+1018787086
1119+1021303466+1024686354+1023024970+1016879842+1012871409+1012627411
1107+1013316040+1015323738+1019701513+1024255513+1024804182+1022974916
1096+1026469979+1032451361+1031850086+1029452638+1031831953+1034936784
1084+1036159190+1037265424+1037261632+1034888659+1032088707+1030424151
1072+1029090673+1028439274+1030830724+1037373255+1044979824+1050261959
1061+1057173694+1066396075+1068314695+1061730452+1056458728+1057154872
1049+1058634033+1054772730+1049088090+1046684644+1045880806+1043585191
1038+1040480154+1040097919+1043532241+1047415192+1046473601+1040675132
1026+1037449440+1038713490+1038388549+1034869148+1032671573+1033945345
1015+1034208510+1031552930+1030727030+1031607535+1031679583+1033095382
1003+1036014404+1038735277+1042066318+1044557049+1043083060+1039101240
991+1035969383+1036031296+1039971610+1043922129+1044692597+1046137215
980+1051362401+1056031747+1056814143+1057462922+1058440709+1056110070
968+1054154632+1056302083+1059418083+1061871998+1062919696+1061272998
957+1060619806+1062852819+1059230620+1048299765+1046181134+1056332971
945+1064966831+1069052690+1071246541+1068698929+1064779023+1064276202
934+1065488060+1065999293+1065659046+1064376380+1062601856+1062185494
922+1064386584+1067735552+1069671960+1069066824+1066499976+1064856035
910+1066022320+1068355649+1070506133+1072528517+1073741823+1072359876
899+1068620262+1066167106+1064810876+1060256669+1054594781+1053937867
887+1058106943+1061476939+1061129591+1060766109+1063060897+1063608877
876+1058586805+1050389854+1044493068+1044511201+1047519369+1047428223
864+1042700136+1038243418+1038393996+1039988847+1038782780+1036448142
853+1036381333+1038516443+1039509468+1037756593+1034591848+1033443834
841+1036771083+1040036075+1037915857+1032641375+1029333500+1030691936
829+1035507585+1040472156+1043551408+1043322439+1039129163+1033074906
818+1027680458+1023531514+1020286517+1020011424+1024311496+1028532282
806+1029158653+1029050822+1028608674+1024165470+1017145834+1014951776
795+1018342869+1020628212+1019955302+1018170574+1015445152+1011942366
783+1007997640+1005430172+1005161008+1004241548+1001207732+997414065+992886540
770+987838269+983346389+979421381+977553160+979305483+981073319+979911929
756+976329305+970503120+966384994+966591762+965807230+960791501+955954617
743+954212980+954561156+956146148+954889613+947792690+940851929+939241151
729+939602495+936566058+931868376+931984274+936957739+938510671+932043705
716+922800434+915396358+910333539+909715648+914824246+921797826+927463161
702+932517568+935660388+935400808+935285393+938631878+943329974+944234817
689+939380214+933728875+932914627+934884198+935716924+936969666+937879474
675+937053160+939329884+943068256+939692193+932744744+932726198+933845531
662+933940745+937769781+943351830+942879069+936051517+930291588+931107974
648+936604392+939676612+935243887+930325579+934359038+940811457+941274566
635+939707844+937664915+926844925+906126336+891241378+889374191+890770617
621+889259466+894691351+913257732+927097059+925405684+921889592+921116160
608+921642767+925081226+928293198+923901083+915944889
##END=
