##TITLE=Sample description
##JCAMP-DX=4.24
##DATA TYPE=INFRARED SPECTRUM
##DATE=12/9/2023
##SAMPLING PROCEDURE=Instrument type and / or accessory
##ORIGIN=Default
##XUNITS=1/CM
##YUNITS=ABSORBANCE
##RESOLUTION=4
##FIRSTX=4397.6552
##LASTX=599.8556
##DELTAX=-1.9287962
##MAXY=1.691641
##MINY=0.13268298
##XFACTOR=1
##YFACTOR=1.5754634e-009
##NPOINTS=1970
##FIRSTY=0.13779613
##XYDATA=(X++(Y..Y))
4398+87463873+87027393+86566586+86323253+85968303+86158556+86706228+86862252
4382+86971996+87164651+87287987+87398715+87536816+88120467+88908615+89221003
4367+89372382+89382701+89126590+89309929+89966655+90438453+90306453+89667187
4351+89382635+89912894+90537632+90458438+89848540+89572207+89802497+89496503
4336+88519965+88527598+89758781+90460651+90373928+90645078+91339258+91979394
4321+92425664+92361906+91724711+91396453+91855879+92009377+91678148+92019980
4305+92545112+92474260+92473106+92863676+92894898+92206308+91872431+92582425
4290+93657585+94541205+95107055+95357671+95465316+95302634+94612482+93965650
4274+93774366+93631461+93716538+94347925+95126313+95368463+94908233+94816696
4259+95959927+97184338+96897081+95611598+95017410+95775736+96862917+96834155
4243+95958574+95493870+95845330+96459910+96758801+96909225+96821358+96278841
4228+95973811+96325933+96981411+97255379+96715302+96195769+96562986+97157713
4212+97260553+97541350+98371010+98665144+97943459+96925777+96446952+97072361
4197+98252735+99021654+99331328+99486358+99414693+98793398+97878159+97425893
4182+97936166+99214575+100199436+100425413+100391278+99983040+99327913+99434839
4166+100229618+100784326+100900285+100667715+100327199+100509932+101316127
4153+101937734+101891956+101768743+101948677+102147812+102232151+102039117
4139+101536987+101063478+100876753+101109360+101590332+101883992+101830288
4126+101844315+102358845+102767376+102402362+101890509+101861718+102241364
4112+103012392+103599392+103078005+102138864+102107501+102574910+102617756
4099+102478624+102531941+102506990+102438219+102822508+103453886+103635910
4085+103603553+103806651+103681329+103097876+102820333+103326029+104377562
4072+104836013+104559037+104841414+105400493+104955292+103951353+103681877
4058+104265320+105217380+106175532+106466487+105922741+105148770+104902543
4045+105520187+106378620+106894455+106973904+106602998+106098627+105927905
4031+105978998+105751272+105431705+105529825+105901923+106093510+106161675
4018+106419952+106679081+106787936+106779121+106561571+106498787+106976742
4004+107528887+107656328+107511191+107267669+107046412+106859998+106806909
3991+107271140+107841918+108019441+108044902+107903615+107552041+107247135
3977+107154151+107195039+107108079+106902031+106819451+106948216+107040699
3964+107074446+107796443+109125444+109787570+109213746+107840462+106366437
3950+105801069+106676442+106865276+105649264+106284529+108488893+109130447
3937+107840046+105455549+104466450+106604209+108444127+107299023+105747989
3923+105536569+104362854+102658000+104058269+108241199+110789504+110452638
3910+108457453+103552384+96321157+92544516+94760457+100533994+107092038
3896+109057978+104681200+101673404+104784343+105124491+101859032+101655632
3883+100986705+101430733+106197002+106101351+101126905+97112786+95301451
3869+98414471+100787003+99182596+101463733+106919321+107267045+99191894
3856+85786004+84218381+100755393+111845444+112946586+108427253+102383824
3842+96841532+92415298+94165674+101534093+105624048+106862060+108897490
3829+109879448+108984969+104573906+96456505+95619959+101417699+104730166
3815+111257764+117786109+116660839+109994290+105993744+106140981+102772237
3802+102356121+108933791+112039802+114235530+118613414+121092361+121266639
3788+119859116+118010894+117859619+117431282+116566153+119576446+123937684
3775+124205930+120114319+116392054+117316487+120055905+122744504+123174477
3761+119385295+117765651+120134446+117999875+109073281+103781312+109969907
3748+113000649+111164543+119074600+128485173+126906276+119056449+114980369
3734+121484473+133990909+142302876+143400338+142874004+145513032+150517849
3721+157035752+163360867+166188587+163878632+160613882+166570229+180396879
3707+191441133+196383779+199842518+209051924+221229486+230006365+234966926
3694+235762783+233944657+239132179+255626667+270486160+277635233+280300668
3680+280268643+276834004+277737023+290975633+301758385+308981515+323792847
3667+339126862+348959530+355989296+361215937+363883132+368257810+376162239
3653+377581850+371651438+375397632+395450946+415242115+427502759+435256499
3640+441530511+446727415+451581098+455307770+454568171+454498369+467590017
3626+483565946+490230963+490690824+492181788+499916422+508609255+513879366
3613+518456716+523729362+530875805+539853067+546856652+551324815+555483428
3599+559431084+562444754+566676536+572587767+575095571+573283025+574541808
3586+581812987+588828944+594089332+599742351+604413868+606898064+608586365
3572+609006729+606602095+603570341+606097137+613665192+620127235+623709726
3559+626654615+629832254+631125540+630985898+632065352+633601829+634095929
3545+635511568+638279058+639396572+639226096+640665872+643902417+646000715
3532+645353467+644082427+643977705+644894022+646625037+648930056+650933923
3518+651159560+649467286+648196472+648488998+648579797+648143809+647919458
3505+647334483+647509196+650093348+653374838+654674178+654857971+655999773
3491+657181830+657115320+656863881+657527398+657743803+657015440+657154364
3478+658263100+659296851+660051243+660078483+658728674+656470644+654450887
3464+653609252+653993485+654576644+655514753+656361760+655590344+655211483
3451+655462695+652725168+649066028+648515254+649863852+651788194+653338443
3437+653087080+651539858+649870057+649043025+648343794+646907196+646660525
3424+648315041+649985145+650152972+648854011+646728397+644698198+644437679
3410+645400002+645553150+645206221+645727107+647111344+647800814+647917188
3397+648730524+647705323+643475887+641061757+642800415+644714315+644744203
3383+643789372+642751383+642935327+643931321+644006155+643502824+643520681
3370+643081136+641833931+641876985+643718775+645083112+644027266+641300106
3356+639534133+639742215+639889234+638477531+636998711+637271639+638778379
3343+639549947+639310237+639050550+639529366+640241233+638301682+634427726
3329+632970092+633994991+634608379+634209618+633713248+632160048+628963947
3316+626454592+626435372+628066886+629521644+630119975+629801382+629037873
3302+628480137+627399397+625668382+624733527+625537026+626896785+627301561
3289+627621856+628583081+628559398+626803110+625797393+627236564+629586150
3275+630492063+628231914+623823300+620617627+619933567+620641878+621514347
3262+621978975+621548435+619862479+618143116+617808218+618181668+618748673
3248+619504881+618967499+616307077+612861391+610525992+609779886+608746059
3235+607288425+608070284+609878214+609613798+608833680+608870113+607541113
3221+605071142+604334569+604201132+601677514+598100282+596414477+596854136
3208+597508762+598137245+599202738+598677804+596749527+596552001+597637886
3194+596348383+593291924+592553043+593750309+594036630+592856276+590493599
3181+587464872+585141807+585117215+586387726+586184940+584371676+582872313
3167+582778147+583038703+581759264+579547769+577901083+576331313+575503412
3154+575955820+574876139+572035252+571107812+573075057+574664917+573345715
3140+569952087+565215120+560644504+558795261+558751148+558238434+557836684
3127+558342096+558150547+556844020+555611001+553746814+551396660+550030281
3113+549132804+548142031+547269146+545389599+541768480+538412685+537250794
3100+536658100+534372679+531445533+529462890+528581947+528823587+529170478
3086+528291011+526043801+523247141+521218039+520146341+519311933+518358766
3073+517345445+516669367+516202847+515423675+514246536+512608780+510574495
3059+509002152+508372987+507828305+506957954+506077919+504988213+503675253
3046+502488391+501541240+500828162+500038283+498679848+496839609+495102351
3032+493920408+493045972+491427813+489025941+487069782+485689214+484441820
3019+483767521+483926495+484351663+484395171+483821849+482773797+482317530
3005+483418737+484734345+484615020+484121752+485111049+487343088+489915813
2992+493455061+498253810+502977308+506119006+507334621+507932572+508836518
2978+509286921+508576681+506594038+503844140+500946277+497180296+492343411
2965+487993136+484525090+481096278+477884249+475517221+474150009+473380522
2951+472575737+471797018+471602518+472003852+472317564+472225516+472178414
2938+472400986+472372800+471265388+469237988+467397787+465764381+463554816
2924+460518635+456562996+452169326+448647558+446185948+443653439+441075492
2911+439071625+437199720+435124537+433050376+431386552+430191594+428770886
2897+427125147+426127640+426164489+426532038+426263574+425650527+425094380
2884+424099484+422794696+421611050+420329681+418829902+417365005+415923716
2870+414001681+411484117+408964433+406915128+405429725+404207111+402744976
2857+400840080+398434577+395401158+391877649+388608832+386133262+384193295
2843+382619552+381130366+379384899+377861814+376743960+375623760+374509349
2830+373355137+371952286+370379716+368851146+367433881+365976588+364647171
2816+363720071+362937910+362029424+360888113+359452726+358054226+357040602
2803+356267634+355431107+354308069+352807798+351278245+350115861+349073030
2789+347688603+345960729+344222677+342885239+342017008+341039552+339682214
2776+338278947+336807921+335226725+333862880+332819822+331973155+331228638
2762+330501713+329785381+329119406+328287569+327165554+326158702+325497871
2749+325029195+324593433+323943499+323139319+322573147+322100611+321235596
2735+320188641+319588305+319320636+318768235+317865727+317024622+316505003
2722+316228027+315972313+315549207+314898327+314225862+313703482+313279657
2708+312904844+312431307+311658244+310710960+309946184+309277049+308300614
2695+307247341+306589273+306128882+305463852+304567056+303526401+302426744
2681+301457687+300655418+299951155+299407512+298889767+298191576+297479330
2668+296804369+295989293+295181613+294554265+294082562+293656807+293042039
2654+292299129+291758930+291487610+291308546+291219051+291295323+291323773
2641+291224235+291096510+290909520+290789589+290883226+291125869+291258228
2627+291136102+291057920+291108673+291023473+290850954+290699130+290437741
2614+290171264+290215434+290390791+290158287+289554509+289107644+288998665
2600+288929847+288594759+288189889+288045650+287868099+287347970+286675695
2587+286059545+285569399+285078193+284461986+283800740+283100014+282424523
2573+281925751+281548914+281117636+280590905+280215298+280053335+279759542
2560+279292738+278840065+278390552+278123526+278221703+278438070+278538933
2546+278523194+278500703+278648611+278894791+279121695+279424473+279697344
2533+279779858+279807911+279925534+280056248+280138478+280256839+280404331
2519+280482192+280421261+280252980+280095537+279898295+279533962+279042510
2506+278604195+278398156+278386882+278319463+278045022+277669434+277301432
2492+276972019+276777292+276724004+276641528+276419183+276156792+275975836
2479+275787673+275418725+274921333+274481353+274102587+273742284+273500833
2465+273396319+273219620+272873390+272555933+272348891+272098323+271715282
2451+271291948+270980166+270690932+270217735+269691003+269311084+269022455
2438+268820937+268684908+268454694+268149003+267920623+267738060+267380650
2424+266943603+266790549+266804074+266659533+266403478+266147802+265902776
2411+265748815+265748928+265879282+266095271+266232549+266153477+266012946
2397+265962345+265836096+265501178+265177951+265019582+264780931+264020599
2384+262244374+259225937+255208195+250466083+245336540+240308826+235283967
2370+229952491+224626595+219783619+215939683+213583628+212943567+214068288
2357+217032492+222002927+228891821+235690068+238553862+235926335+230542895
2343+226958059+226090735+226383128+227165384+228078297+228607998+229008423
2330+230231359+232153696+233807758+235097526+236750359+239149979+241872183
2316+244147408+245664118+246895812+248343760+249953804+251513492+252846294
2303+253823258+254575456+255302664+256027130+256722256+257377734+257956977
2289+258418768+258680648+258725537+258735677+258757393+258577440+258217288
2276+257947367+257760699+257501410+257207579+256873513+256517977+256325841
2262+256291338+256265516+256194390+256125685+256179144+256294118+256223976
2249+255956344+255753086+255771624+255937409+256089763+256101680+255975980
2235+255836716+255797578+255902773+256114430+256293929+256331384+256312165
2222+256375667+256443200+256348011+256176552+256121618+256201408+256385655
2208+256600737+256732642+256824349+256903798+256929355+257023578+257286121
2195+257573425+257745017+257874652+258008544+258050406+258055381+258167991
2181+258282171+258216985+258069587+257971845+257836138+257660668+257579554
2168+257571798+257567107+257634223+257768057+257836611+257847791+257880876
2154+257932839+258029673+258198882+258402859+258677451+259092991+259540632
2141+259833309+259981085+260175282+260441816+260642086+260836567+261092110
2127+261353613+261630040+261800421+261792287+261800440+261902949+262059994
2114+262295770+262558275+262729867+262730548+262630006+262639597+262818283
2100+263035937+263210517+263377626+263621839+263981556+264396982+264749529
2087+264966937+265070865+265152073+265282295+265457235+265671503+265937715
2073+266257064+266583129+266801331+266799269+266708527+266827663+267094916
2060+267349306+267682067+268069591+268320311+268346472+268369607+268585710
2046+268794057+268793546+268756337+268953883+269306165+269652281+270019697
2033+270392259+270692218+270823461+270819583+270840108+270980715+271117065
2019+270963671+270772500+271100229+271710780+272079709+272280962+272604624
2006+273048955+273365599+273488916+273685213+274087019+274258233+273690245
1992+273091214+273568119+274731430+275718779+276318206+276720486+277151669
1979+277589171+278011559+278407652+278772893+278942328+278638642+278495690
1965+279326864+280499179+281178377+281489668+281645767+281682787+281671967
1952+281629802+281520275+281141055+280109479+278593034+278164745+279447400
1938+280616726+280759357+280515901+280392168+280463256+280517584+280048189
1925+278785472+277760669+277406608+276986755+277553759+279331101+280185959
1911+279707011+279390783+280077283+281102465+281737739+282121878+282363309
1898+282104096+281614990+281540270+281096242+280395875+281360014+283197775
1884+284160286+284673246+285152175+285472849+285733783+285872574+284717076
1871+281358330+278823022+280916875+284936167+287177835+287844454+288153455
1857+288557059+289049608+289544010+289758354+289066689+286833724+283666565
1844+283526658+287628918+290841799+291626930+292212321+292541280+290465473
1830+287654172+288043266+290096865+292285358+295321123+297633897+298525358
1817+299073825+299258639+298305964+297475358+298663184+300672537+301250892
1803+299797647+297965901+298346067+300095942+299677565+296891480+297188923
1790+302569999+306974319+308155052+308250183+308359842+309254122+310898461
1776+310299185+306078412+302817673+305865128+312150339+317367389+319306940
1763+318687045+319602682+321939783+323987309+326055796+325512777+322259737
1749+322020670+326543843+331512386+334304392+335548912+337933304+340390450
1736+338973865+338902361+347059288+356650505+364575288+370587571+374649520
1722+376999825+375232188+370882291+373976319+386198411+398145948+406043756
1709+409309282+409973858+412209793+414143026+413917692+418170018+427888354
1695+441586012+456283069+465463646+470977932+473909126+473411205+479787480
1682+497402641+512851895+521783455+527365613+534327809+540649340+546212355
1668+557584186+569980916+576443715+581413205+589549059+596249260+595800030
1655+588092787+588038989+601787116+608276550+611409962+623212712+636374238
1641+643276506+643825843+640233364+642982770+657781863+671289334+679382361
1628+686781832+695236695+705461238+720275161+734109738+743470249+757023347
1614+775752389+789456668+797042505+802506586+807737692+811582139+813583055
1601+814379895+813421356+810228395+805622746+799747798+792087960+783606841
1587+775120501+765935157+756428535+747191360+736394326+722137609+710416162
1574+706657596+701547254+693255376+690304774+691594428+690937721+684780689
1560+670972142+665951313+682700853+699788166+712094740+722488397+733297840
1547+742331397+747118872+749392262+756940492+784129543+814744228+833352507
1533+850130044+870293793+884880340+892265812+896459988+897142421+894963084
1520+893830967+892769143+891149131+888913876+882222489+869237644+853034339
1506+849927334+865437765+876191744+877233213+875746222+880153549+889425304
1493+894472313+893716106+895556912+906333818+919999281+930414351+936532567
1479+938926720+938427248+935932912+933932601+938721892+949216639+955849914
1466+956235660+956663931+957880643+953131455+943581098+943227888+951564030
1452+956760102+957353930+953712874+948832784+946435302+945284116+942405851
1439+934791034+923275096+917010467+916372752+914001753+911276863+910861758
1425+909375447+906868627+905200717+905333285+911998188+923323674+933070234
1412+939617628+943495368+945460570+946340643+948015665+950303886+950446668
1398+949234950+949720727+953376841+959025472+962087001+960499071+957657957
1385+958079493+961545534+964788737+965354720+963414110+961671518+963593212
1371+967738659+969681842+968874862+965649818+961049164+959943303+963496435
1358+966767937+966342845+964177506+963631726+963872117+962908736+961045910
1344+959091074+955331903+949262114+945426898+945473130+945523373+943831780
1331+942520863+942839796+943971687+945528972+946486906+946467535+947118945
1317+949334451+952236854+954412862+955602486+956919758+959052106+960900026
1304+962041147+964591627+968583850+971401961+972255173+971716203+971148252
1290+972452661+975264265+978175294+981119389+984476924+988824022+994202298
1277+998894130+1001945142+1004078398+1005060091+1005477995+1006756678
1265+1007705910+1007484738+1007350809+1007148856+1005889392+1003981848
1254+1002578241+1002902848+1004956731+1006188652+1005586501+1005783687
1242+1007319407+1007859210+1007379259+1007782863+1008727857+1008911651
1231+1009528027+1011541807+1013531146+1013979620+1012253447+1010223702
1219+1010564957+1011822453+1012389873+1013896841+1015786755+1016352359
1207+1016653662+1017311655+1018624842+1022564401+1028139787+1030343716
1196+1027688666+1024132053+1022942808+1024779074+1028130707+1030181412
1184+1030873228+1032084568+1034308472+1036707620+1037854567+1038822943
1173+1041575452+1043764398+1042848459+1042123577+1045077282+1049121261
1161+1050804909+1050276305+1049109911+1048591597+1049378299+1052116279
1150+1054767017+1053799322+1050994301+1050976141+1054566047+1057859115
1138+1057906633+1057338834+1057704907+1056144444+1053516330+1053584808
1126+1055460043+1056479191+1055798498+1053884446+1052394050+1052082002
1115+1052476375+1052613633+1051232120+1048463268+1046016753+1045423682
1103+1046457055+1046877759+1045629040+1044730428+1044800647+1046182765
1092+1050132085+1052807792+1050896011+1047054515+1044172012+1044517050
1080+1049072380+1053672657+1052658806+1049970689+1053241662+1059416098
1069+1062796862+1063712499+1060993662+1054835948+1051166517+1051963282
1057+1053162213+1053430903+1055394214+1059597848+1062318576+1061073414
1045+1059596637+1061865563+1064246551+1061823266+1056555462+1051230001
1034+1047388808+1046369509+1045815103+1043239199+1040093227+1038879541
1022+1038785715+1037978130+1036572026+1034471760+1033913797+1035702243
1011+1035641635+1033847211+1033455336+1034123241+1034805675+1035751123
999+1037652009+1039210203+1038773533+1038114027+1038879466+1040192198
988+1042127663+1046000182+1050190651+1051092365+1049405766+1049113013
976+1050433161+1050806119+1051228564+1054173794+1058048507+1060213770
964+1061408842+1062645454+1063190402+1063926407+1065894711+1067733323
953+1068637005+1069682333+1071861065+1073741823+1072605847+1068348111
941+1064939577+1065730213+1066960848+1065630863+1065425884+1065207965
930+1062109662+1061302607+1065350142+1069720696+1072406391+1073002716
918+1070357426+1067399333+1065935647+1063805265+1061432223+1060307445
907+1060341268+1062109813+1064339242+1064629875+1064660974+1065134039
895+1063098089+1060484882+1060828709+1061006979+1058803504+1056775802
883+1054835419+1051906457+1049594931+1048710242+1048019032+1045113375
872+1038592994+1031472428+1027469158+1026915887+1029109828+1031848792
860+1032075563+1030172332+1027077434+1023266659+1021571434+1022239642
849+1021704909+1019434394+1017426365+1015871955+1013670069+1010227334
837+1007852551+1009991029+1015360149+1018198917+1015304232+1010082812
826+1007566987+1009208111+1012968341+1014385493+1010548083+1006477545
814+1008902798+1013642981+1012502692+1007103532+1003542455+1002976926
802+1002589136+1002189695+1003761432+1005425180+1002332023+994515102+988404302
789+986797833+986631140+986028838+985236991+983874697+980910172+977240439
775+975369290+974666427+972101116+968741841+967570604+967381136+964827781
762+959858027+956103244+957167792+966664577+977730074+971534150+952515760
748+939026599+932337407+928860773+928354869+928501359+925417811+918767208
735+912741533+910174709+910196577+909984938+907481069+902241565+895392565
721+888559607+882838412+879220964+876290413+873066353+871564228+873720260
708+879039592+883030302+882074184+878905814+878571748+880729520+880800041
694+879015303+878640831+878813199+877951285+878519463+881820324+884593186
681+883961298+880748739+878174652+878478073+880107166+876463991+866863164
667+868636552+882631465+890416531+890015576+885930208+883271223+883639641
654+884203884+883394029+882572748+882653106+882892892+883644862+885629435
640+886091906+882769783+877760304+872426974+870273212+875347915+880957654
627+879565547+874434170+869366655+863328797+855778070+849666589+847557999
613+848691176+852789483+859437816+862913617+859500089+855874771+854974268
600+848893507
##END=
