##TITLE=Sample description
##JCAMP-DX=4.24
##DATA TYPE=INFRARED SPECTRUM
##DATE=12/9/2023
##SAMPLING PROCEDURE=Instrument type and / or accessory
##ORIGIN=Default
##XUNITS=1/CM
##YUNITS=ABSORBANCE
##RESOLUTION=4
##FIRSTX=4397.6552
##LASTX=599.8556
##DELTAX=-1.9287962
##MAXY=1.9465851
##MINY=0.26615977
##XFACTOR=1
##YFACTOR=1.8128986e-009
##NPOINTS=1970
##FIRSTY=0.27932134
##XYDATA=(X++(Y..Y))
4398+154074442+153798217+153523882+153124841+153334061+154306134+154594722
4384+153590987+153019417+153827873+154803826+154927876+154654757+154821614
4371+155570116+156229190+156074433+155824987+156611579+157846825+158281145
4357+157820063+157158029+156295423+155392607+155655829+156714142+156722855
4344+155892091+155813463+156411088+156632177+156567703+156739524+156607206
4330+155562028+154721352+155457903+156933423+157336640+156659351+156597967
4317+157389968+157651086+157462497+157614032+157889633+157912910+157536374
4303+157022736+156773372+156575725+156266638+156316432+156927587+157667985
4290+158226600+158724785+159276463+159646391+159633470+159431615+159285242
4276+158839842+157706189+156863244+156961435+157119661+157251765+157679788
4263+158083745+158265807+157856672+157268713+157425032+157764351+157434074
4249+157142149+157694600+158012235+157446239+157420479+158169622+158327322
4236+157854864+157991719+158732101+158954817+158751795+158637280+158637461
4222+158758880+158717700+158837985+159611031+160468787+160658658+160247189
4209+159964799+159909005+159741162+159658260+159702876+159716027+159704421
4195+159581194+159640111+160587444+161671024+161135522+159665575+159303390
4182+159729129+159411346+158702576+158747800+159222494+159458789+159418036
4168+159360204+159602696+159867546+159754330+159568947+160053093+160967877
4155+161053688+160113342+158928777+158291518+158401709+158641982+158995438
4141+159647427+160026199+159799028+159296568+159045791+159130123+159064728
4128+158692663+158558274+158964434+159637185+160251348+160489994+160184260
4114+159632303+159401943+159633191+160141848+160638833+160441416+159475458
4101+158539731+158356518+158945989+159488346+159693275+159932529+160125935
4087+160181367+160240926+160314655+160235369+160137804+160241304+160083177
4074+159563127+159301204+159639306+160356574+160591209+160232591+160220097
4060+160476596+160456376+160381249+160313077+160134351+159846750+159341940
4047+159021609+159346937+159909810+160399825+160816358+160911820+160839241
4033+160955778+161101608+161213509+161416580+161367937+160853395+160281349
4020+160200502+160774406+161385461+161352254+160908384+160750010+161120102
4006+161839573+162607293+162934907+162532233+161454111+160125408+159620680
3993+160267327+160825893+160826649+161119313+161561803+161474281+160952243
3979+160243046+159896939+160326590+160900066+160931974+160355670+159696974
3966+159632714+160053915+160499134+160728458+160726157+160575970+160224667
3952+159826267+159814941+160293942+159963681+158431316+158208731+159587622
3939+160137919+159581260+158735060+158426581+159244210+159859638+159199348
3925+158861213+159777197+159927597+158950658+159152464+160994048+162256353
3912+162062273+160976622+158313957+154243222+151988130+153058657+155836725
3898+159039938+160153503+157826605+155961842+157627101+158288937+157371014
3885+157932637+157451943+157159295+159685023+159858488+156916211+154197998
3871+152989350+155055837+156922902+156303511+157598678+160507961+160440331
3858+155667665+147776562+146814483+156375613+162133208+161993870+159102982
3844+155799293+153325940+151740082+152456150+155336731+157285547+158504272
3831+160049082+160827290+160499413+157934988+153042777+152303037+155321525
3817+156640824+159594657+162694782+161939013+158485153+156117027+155376349
3804+153013056+153451781+158145654+159914496+160682988+162880280+163830440
3790+163424560+162863940+162475255+162481666+161562954+160220377+161551183
3777+163929091+164039775+161957885+159975632+160172671+161346369+162476718
3763+162373251+159972706+158395577+159017055+157850754+153286371+150170268
3750+153080817+154726530+153382244+156848877+161723991+160734853+155759099
3736+152559157+155294483+161755241+166481269+167083481+165884647+166139781
3723+168270873+171662067+175210337+176911597+175539693+173548053+176726691
3709+184422235+191543104+196452674+201280805+209612869+218826938+224470298
3696+226326151+224779845+220730316+218844478+222120961+225168530+224746128
3682+221816000+217300112+211232378+207058209+209049816+210423133+210178899
3669+214240510+218958565+220826123+221653714+222105590+221320018+221245006
3655+223044342+221773834+217101939+218138832+227000530+234183636+237232964
3642+238433951+239621985+240964775+241657139+240720721+237556928+235113741
3628+239278688+245150452+246863532+245573692+244456034+246412412+248804096
3615+249129507+249589948+250765060+252184555+254882482+257370449+258112360
3601+258437245+259150749+259311934+259419428+260610930+261151265+259840169
3588+260161323+263692430+266582414+267739114+268473118+269175114+269680352
3574+270187809+270130798+268411685+266835772+268948896+272655129+274580338
3561+275325109+275935885+276318685+276086894+275674340+275877658+275949234
3547+275806346+276984959+278821102+279395417+278785462+278291995+278659736
3534+279236583+279081036+278563108+278613411+279002819+279103887+279081858
3520+279103689+279232210+279282415+278528651+277407147+277183444+277483227
3507+277113809+276389833+276301292+276433199+275881669+275093088+274848590
3493+274636971+273776896+273010163+272972057+272967322+272530849+272083921
3480+271911262+271668539+271236307+271092548+271265881+271207046+270675900
3466+269744826+268657268+267973650+267781511+267493794+267158125+267160871
3453+266937103+265801543+264446768+264151095+264658815+264933183+265047023
3439+265143784+264905171+264350682+263660275+263182918+263006888+262713550
3426+262255624+261791681+261666942+262343968+263193833+263114712+262162957
3412+261500677+261699919+261906442+261645982+261595235+261938170+262112670
3399+262039993+262040059+262111174+262351349+262868291+263277278+263184430
3385+262568130+261807709+261150641+260790905+261209180+262138167+262829034
3372+262933965+262454931+261902661+261694938+261890168+262436848+262865332
3358+262755716+262549587+262806579+263024265+262905640+263206146+263981773
3345+264356370+264020520+263549245+263356284+263268417+263132812+262969539
3331+262967517+263288325+263639759+263541223+262964246+262445150+262489420
3318+262887853+263037054+263014319+263177608+263458485+263606700+263319033
3304+262785257+262166607+261470676+261508157+262558135+263822775+264907078
3291+266114690+267557545+268548704+268663712+268792742+269532055+270151561
3277+270636003+271641300+272794170+273430624+273099624+272049925+271554469
3264+272050911+272513013+272171607+271588613+271523662+271439132+270622753
3250+269825015+269554692+268978257+268118199+267814915+267980752+268048119
3237+267717217+267217766+266977493+266985877+267054494+267074451+266822325
3223+266163004+265541345+265378221+265146167+264564439+264254957+264147216
3210+263827312+263582666+263371243+262854597+262348012+262344247+262471304
3196+261870096+260568731+259398091+259015242+259090532+258720687+258079646
3183+257740772+257366586+256630577+255633155+254634055+254007119+253867733
3169+253994050+253930234+253441748+252861038+252298955+251503519+250826098
3156+250960422+251515914+251380522+250591119+249926768+249489423+249209976
3142+249158900+249059970+248735348+248327166+247743843+246967542+246335411
3129+245954338+245709774+245481962+245108335+244583667+244062779+243575805
3115+242894999+241821381+240575663+239617102+238933320+238087055+237102668
3102+236259625+235370174+234245349+233252348+232668071+232072912+231294737
3088+230888052+230881558+230511450+229601926+228876784+228742263+228700985
3075+228160370+227542311+227506343+227581683+227416553+227340078+227211492
3061+226988168+226981658+227045556+226867784+226659469+226712863+226774394
3047+226692659+226665140+226687415+226634925+226382208+225863425+225159702
3034+224488627+224188434+224287200+224507598+224688033+224623657+224374244
3020+224292937+224251757+224147353+224148290+223980151+223464392+222907470
3007+222591907+222579347+222629355+222497283+222275504+221992588+221677649
2993+221847119+222696558+223558358+224035896+224427655+224911735+225311615
2980+225364056+225090461+224997909+225243936+225275383+224850220+224272996
2966+223773134+223448414+223294577+223039755+222589474+222245766+222055254
2953+221870216+221795747+221964987+222237234+222280485+222110999+221998194
2939+221796997+221353356+220949021+220738470+220695696+220805147+220840491
2926+220689120+220436386+219991233+219285998+218608972+218313398+218183267
2912+217819504+217400259+217322880+217557926+217722464+217684325+217560359
2899+217444167+217416994+217355627+217215665+217294868+217709609+218170132
2885+218431151+218426647+218240393+218275375+218579415+218778508+218934466
2872+219098872+219081069+218949688+218832428+218719574+218573119+218436593
2858+218358721+218259281+217916412+217193801+216422349+215966643+215709684
2845+215546740+215582594+215761483+215983098+216265767+216504808+216599365
2831+216734445+217022769+217222898+217172299+217115814+217244532+217363123
2818+217268007+216948432+216570925+216379723+216349672+216375712+216590373
2804+216983841+217341308+217578672+217717697+217816808+217804248+217626707
2791+217597840+217819274+217963954+217879868+217643031+217435356+217436392
2777+217568841+217619704+217584277+217523157+217273645+216819089+216459633
2764+216411763+216621163+216822328+216848499+216877842+217076903+217259393
2750+217296249+217365967+217481961+217505732+217470240+217362301+217179499
2737+217130741+217272330+217473774+217666095+217712929+217532610+217306934
2723+217252011+217384559+217637277+217908702+218001928+217958660+217979373
2710+218055453+218152740+218249007+218287523+218242924+218149238+218091964
2696+218087904+218146411+218228951+218199344+218046001+217918582+217892164
2683+217900663+218012284+218236529+218287737+218132585+217940249+217701291
2669+217524374+217482010+217442672+217382094+217237134+216965380+216752001
2656+216652134+216531143+216344741+216194258+216183934+216244660+216245662
2642+216143264+215877411+215482776+215261424+215372519+215498146+215357132
2629+215091674+214898006+214781437+214619249+214376609+214289383+214401777
2615+214325253+213964367+213810300+214000993+214013191+213725820+213475618
2602+213329918+213218527+213078319+212901895+212781495+212687349+212515068
2588+212289672+212145156+212087077+211905804+211598755+211496176+211584486
2575+211509113+211290967+211116549+210937758+210724165+210526190+210288794
2561+209933266+209514136+209130992+208882548+208873490+208999841+208951970
2548+208705615+208513097+208382933+208255563+208207199+208182179+208068684
2534+207872533+207693709+207615361+207588993+207492265+207316154+207197201
2521+207157928+207134963+207196576+207348785+207433693+207343311+207165687
2507+207046373+206992075+207028060+207222747+207433627+207436816+207277374
2494+207165769+207107477+207076292+207214281+207503641+207773340+207938898
2480+208027488+208132254+208207446+208109568+207906677+207788217+207795105
2467+207885997+208026600+208169127+208311916+208397859+208297253+208124001
2453+208151290+208387569+208620165+208694321+208691625+208868213+209214962
2440+209525874+209808379+210056148+210156459+210141335+210153714+210276070
2426+210399938+210405379+210441315+210698093+211040107+211261541+211410101
2413+211519914+211584042+211699149+211860613+212046111+212298993+212513637
2399+212586298+212632081+212770843+212990649+213222900+213375356+213365821
2386+212992540+211904275+209833103+206787441+203110306+199154990+195047563
2372+190881596+186759572+182813231+179174267+176090220+174132050+173675061
2359+174742136+177537349+182127673+188244839+194297877+197155394+195320139
2345+190858648+187852932+187446428+188091200+188974552+190076182+191125831
2332+191841998+192830692+194526182+196340527+197991484+199920622+202314213
2318+204843393+206995642+208533827+209881401+211545033+213344894+214867150
2305+216144283+217367381+218511094+219513071+220405530+221180927+221787643
2291+222243908+222618850+223048781+223624032+224122612+224284142+224218188
2278+224197262+224317678+224426701+224390322+224384305+224577234+224877591
2264+225184508+225407520+225500993+225605249+225847479+226211045+226513326
2251+226584819+226592496+226733149+226915984+227020470+227091355+227220040
2237+227360906+227448658+227537248+227658716+227778294+227883422+228018057
2224+228238127+228531103+228746077+228752176+228674781+228678118+228765886
2210+228942556+229204776+229450523+229575640+229598540+229609242+229652082
2197+229763078+229897977+229990595+230169961+230447502+230613963+230674328
2183+230804771+231018890+231183445+231273876+231350893+231388029+231406556
2170+231497989+231687959+231960716+232252723+232436067+232474452+232496727
2156+232629012+232851400+232995882+232988715+233007883+233174312+233378189
2143+233520337+233640737+233758753+233829589+233877969+233974137+234128418
2129+234316069+234521524+234693888+234805016+234912429+235035787+235151913
2116+235295820+235473789+235554225+235486990+235460917+235580067+235720588
2102+235809935+235901073+236009702+236098999+236162766+236251816+236392452
2089+236511717+236551747+236554163+236639235+236804332+236846121+236768495
2075+236744133+236778194+236858039+236938376+236902539+236854061+236962410
2062+237127245+237251047+237363835+237437186+237487457+237556994+237621682
2048+237677328+237719363+237674698+237563175+237594031+237795837+237922089
2035+237898055+237931969+238105861+238261522+238361965+238443223+238450473
2021+238418778+238410937+238445804+238601696+238886420+239172541+239381498
2008+239529170+239633098+239694037+239786721+239990072+240225659+240287783
1994+240023229+239772830+240021289+240575154+241070840+241368485+241514333
1981+241750562+242104807+242412003+242634982+242838268+242896511+242666660
1967+242552886+242958733+243528576+243865593+244060938+244242672+244476501
1954+244830828+245162042+245262616+245171001+244901680+244486923+244693233
1940+245832278+246884541+247377006+247628079+247849135+248122484+248417022
1927+248428201+247985859+247683676+247708121+247699474+248384917+249823563
1913+250639729+250637477+250799105+251478531+252210907+252753593+253184510
1900+253414837+253333003+253307885+253677632+253805264+253657198+254398796
1886+255753784+256668387+257184195+257653300+258178872+258684324+259022113
1873+258616792+257042540+255960555+257470613+260121294+261838516+262636928
1859+263151749+263691920+264315305+264911977+265253925+265119125+264337531
1846+263250334+263905726+266708814+268781531+269462206+270062017+270607169
1832+269905928+268785081+269403781+270977738+272701092+274849001+276527198
1819+277425789+278064939+278433075+278277759+278359362+279559281+281133878
1805+281951853+281695305+281149002+281708029+283020653+283163575+282059199
1792+282823352+286406998+289292971+290333826+290727870+291032946+291708985
1778+292752240+292522323+290388075+289050167+291374648+295302494+298373209
1765+299489881+299188586+299832208+301335986+302564640+303550884+303044397
1751+301132766+300853828+303179625+305805006+307214621+307590056+308369497
1738+309169224+307895526+307167605+310751547+315189597+318745362+321029206
1724+321942723+321857635+319654112+315969268+316191063+321493313+326664050
1711+329429952+329604305+328530835+328391399+327966023+325987156+326113539
1697+329497385+335278011+341507587+344378996+344644979+343226947+339837249
1684+340083637+346914685+352668516+354759562+355164686+356533730+357637940
1670+358511478+362977901+368269959+370431792+372157267+376031522+379006792
1657+377848530+372901199+372953541+380498833+383576913+385442876+392726885
1643+400474246+404563327+405113246+403197768+404730446+412875763+419764282
1630+422973315+425149055+427589530+430484249+435192293+439412031+441362787
1616+445494807+452943240+458932905+463126406+467458358+472599012+477871638
1603+483144955+488845490+494807767+500668583+506856174+513675517+520618186
1589+527468961+534222417+540929515+548095393+555816287+562148344+566428019
1576+573327552+582914475+589529020+595140850+603859791+613546597+621546889
1562+625698537+625842871+632920472+649705855+664405518+676588560+687087390
1549+696831666+704742924+709215068+710824845+714481480+728997223+745633537
1535+756004207+765103811+775624997+783138759+787885171+793071953+797932321
1522+802867257+810289223+819153879+828979497+837835736+843033828+844915244
1508+845410322+852857999+868017495+878053203+882095236+884235008+889005750
1495+896017069+900245323+901309981+904420774+912602224+920216461+924342398
1481+928166318+932718289+935137065+934529806+933762300+936053180+940774079
1468+943516112+942186588+941031449+942050407+940173002+933893089+931549802
1454+935435663+938155668+937455825+934606938+932386286+930465088+928162964
1441+925398706+918970776+909278775+903514917+900725737+896769188+895103452
1427+896299886+896567514+897639997+900459096+902029090+903893804+908832159
1414+914857661+919602364+922078019+922485641+922440138+925344983+930872053
1400+935156002+938789821+943580684+950369944+959291085+963969440+959865268
1387+952773398+950608442+952800359+956674976+961174342+963395586+962387347
1373+962072506+964894038+969139717+972375711+973100081+972166080+972518928
1360+973339302+971605837+969345797+969338433+970187411+969155104+966272682
1346+963884023+962219800+959567853+956315289+954624106+954770019+954886408
1333+953663934+951044208+947650860+945437902+946253870+948521998+950786510
1319+954031117+956461991+956938724+958829082+962718166+966117300+969612044
1306+974358457+977018229+975900505+975799701+978443297+979755527+978114450
1292+976543863+978636817+984057625+989549516+994788968+1001263979+1007736755
1279+1012985282+1017297901+1019200095+1019146636+1020355037+1022380919
1267+1023776989+1024667656+1024436457+1024618536+1027259370+1031151479
1256+1033835646+1035070744+1037574345+1040331568+1040054866+1039657698
1244+1041488350+1044174227+1047805284+1050148900+1049209901+1047262927
1233+1044702973+1042010915+1041908269+1043950130+1045405380+1045544192
1221+1045714500+1046285132+1045847130+1043810398+1040532058+1037501816
1209+1037021664+1038074092+1038282079+1037959348+1037022388+1035259925
1198+1034389050+1034835074+1034273582+1031283386+1028090660+1026503437
1186+1025517292+1024635567+1024606240+1025246113+1024785952+1021305017
1175+1016393950+1014384310+1014896485+1014949550+1014600451+1013102919
1163+1010869445+1010182359+1010486941+1010699202+1010440583+1009456805
1151+1008362819+1007630953+1007282642+1007660412+1008502617+1009205879
1140+1010472015+1010823350+1008321064+1006391317+1007256866+1007885495
1128+1006755738+1004919102+1003881272+1004221758+1004325192+1003634095
1117+1001289821+998197768+997636276+998665163+1002545830+1007952632+1007138045
1103+1002476260+997197814+989801362+985015364+987121074+994114901+1000375284
1090+1002687601+1001908324+999290899+999051547+1003726548+1007878196+1008951863
1076+1011286734+1016069246+1019184774+1017128381+1014140749+1015110061
1065+1015674052+1012296420+1011237022+1017212812+1023301045+1021996903
1053+1016777112+1014049677+1014744654+1017049211+1021263853+1024824550
1042+1022370069+1015619408+1012072915+1015204881+1019251714+1016502711
1030+1008489137+1003756993+1005512026+1008435480+1008383006+1006008090
1018+1004850584+1006431889+1007781732+1008680027+1009365864+1009509015
1007+1010970972+1011335130+1009472915+1009552677+1008760118+1005352962
995+1006589309+1012400512+1017086034+1020919948+1024276670+1024429027
984+1021742690+1019862589+1019799332+1020695260+1021359791+1020619048
972+1021036468+1026063463+1034768529+1041455472+1042129276+1040898846
961+1042246716+1043596559+1043066630+1043207875+1047909244+1061669120
949+1073741823+1066748193+1051911165+1044469801+1042128026+1041862569
937+1043071102+1043112988+1041925037+1042725224+1045439639+1046891470
926+1045954444+1045772037+1047281733+1046649093+1045084819+1044550418
914+1042832144+1040963945+1042035902+1045937151+1047621232+1043804086
903+1039091538+1038667147+1042191942+1045815633+1045595679+1043175851
891+1045311086+1050613336+1051324620+1047352881+1042140980+1038112757
880+1036494037+1034753800+1031345065+1030010543+1033505681+1035467583
868+1028182456+1017833485+1012854690+1010151913+1008519779+1013070567
856+1020083267+1021118072+1017921401+1016588391+1018044759+1020449989
845+1022535052+1022573256+1018943186+1012953324+1008584615+1009161099
833+1011995980+1010977088+1006314120+1001563038+998813707+999356064+1001068355
820+1001527398+1001820145+1002187722+1001906154+1003363180+1005185481
808+1002644925+999303853+1000175517+1003106402+1002942471+999058583+995578963
795+1001981313+1027014757+1046114758+1027673437+1001093145+991169025+988224528
781+985199152+983411242+980776918+974879706+967953607+963424124+962391752
768+963316613+962404180+959202841+958089260+960014732+957429594+942872622
754+928051639+930184112+942757154+948704209+946535899+940715622+934704981
741+932435472+934253170+936321925+935072229+930712792+924492323+918807372
727+915141070+912208739+908995366+905826247+904130132+904692479+907042999
714+907236717+902274164+897775520+899452961+905352934+909714344+910169443
700+908889564+908614835+908891340+906166732+900779000+897890659+900603628
687+904710167+905607608+905453870+904102843+900428322+898634691+900821018
673+903313243+901992267+901279273+910418067+916966462+912320722+906111168
660+904863248+908010799+911138623+911715765+911330894+910354678+910392488
646+908308477+898001196+887245786+889057829+900608954+920151362+970757188
633+1020040459+990780800+944232262+920083568+901754821+896811666+899190856
619+896685809+896763204+903198498+909965204+914532891+917054509+913700878
606+906478417+899574872+888568011+876276142
##END=
