##TITLE=Sample description
##JCAMP-DX=4.24
##DATA TYPE=INFRARED SPECTRUM
##DATE=12/9/2023
##SAMPLING PROCEDURE=Instrument type and / or accessory
##ORIGIN=Default
##XUNITS=1/CM
##YUNITS=ABSORBANCE
##RESOLUTION=4
##FIRSTX=4397.6552
##LASTX=599.8556
##DELTAX=-1.9287962
##MAXY=1.6795397
##MINY=0.11511297
##XFACTOR=1
##YFACTOR=1.5641932e-009
##NPOINTS=1970
##FIRSTY=0.12912379
##XYDATA=(X++(Y..Y))
4398+82549771+83453047+83275741+82318584+81531435+81235649+81097230+81119131
4382+81734414+82541369+83016146+83200502+83304940+84121811+85763451+86665146
4367+86120464+85481260+85107796+84296945+84162527+85350805+86505217+87198778
4351+87743946+87841821+87439206+86834783+86247146+85994724+86011062+85800709
4336+85785248+86564366+87319716+87294242+87106219+87206390+87098817+86583257
4321+86225330+86960408+88599705+89138872+87800448+86352079+86606968+88227308
4305+89113712+88691806+88456723+89143301+89791374+89474011+89083599+89398848
4290+89653717+89823897+90516201+91248926+91216031+90358568+89377365+89095965
4274+89214378+89182960+89623690+90374086+90415593+89945178+89591920+89826774
4259+90957770+92328822+93024917+92679575+91419754+90688210+91689847+92833874
4243+92685701+92227527+92169721+92171150+92132196+92408034+92894091+93024470
4228+92902436+92862549+93068853+93467686+93424732+93078913+93478975+94483469
4212+95251908+95779653+95843985+95124740+94597034+95013500+95712530+96220974
4197+96676318+96726979+96325355+96275113+96573070+96632620+96611176+96650739
4182+96607632+96647853+96660914+96427678+96389973+96504890+96240093+96100684
4166+96572651+96968741+96931245+97147761+97705990+97931747+97873894+97811295
4151+97695635+97634371+97602762+97619510+97978779+98311556+97980570+97293735
4135+96746346+96790216+97753899+98572761+98501685+98572266+99179661+99646541
4120+99768851+99638672+99369360+99248222+99492165+99822999+99713312+99343258
4104+99248499+99411944+99608369+99855760+100296662+100803134+101202167
4091+101603201+101844715+101693130+101491675+101473642+101240149+100809174
4077+100718797+100989900+101365164+101503812+101461648+101887546+102392570
4064+102191162+101765531+101900825+102660710+103502321+103829716+103539998
4050+102963717+102376089+102141501+102729319+103857047+104757894+105045678
4037+104944440+104992387+105318257+105522456+105182115+104430776+103807300
4023+103452089+103223435+103382174+104097827+104959873+105599820+105756939
4010+105513653+105497144+105709736+105578852+105298356+104995769+104048071
3996+103165353+103445344+104152271+104863380+105962729+106831253+106549728
3983+105312446+104400310+104496832+104896989+105032703+105233653+105690292
3969+105931463+105786595+105568059+105384085+105572222+106078694+106312872
3956+106198755+105288535+103359073+102160554+103318157+104266226+102979521
3942+103219634+105920898+107122285+105516388+102086229+99959217+101831035
3929+104072621+102998078+101692321+102638294+102229230+100262719+101745478
3915+106773894+109950755+109483636+106632103+100022673+90458862+85044302
3902+87000028+93616641+102024059+105404747+100517475+96235368+99321643+99802565
3887+96248591+96701563+96325069+96296833+101872732+102389388+96167102+90403713
3871+87827017+91956872+95636080+93772227+95587038+101888260+103013978+93742352
3856+77014240+73592550+93334736+108093941+110372890+105084021+97687442+90949844
3840+85225866+86048892+93925707+99546047+102611134+105975799+106922687
3827+105522046+100825502+91292900+88930891+94945348+98674294+106286465
3813+114791662+114286791+106232670+100647977+100292928+96015851+94963382
3800+102781848+107495463+111463455+117322299+119593502+118955060+117605490
3786+116161495+116166572+115364848+113861636+117376342+122758588+122738783
3773+117339322+112782169+114129186+117497632+120189370+120257198+115889792
3759+113913365+116242803+113233769+101868912+94368638+101047906+104742280
3746+102141358+111233792+123757224+122974104+112726820+105707364+112124608
3732+127396916+138613046+140593770+139350287+141673342+147172306+154260553
3719+161411350+164978861+161772668+155903841+160540483+175963509+189404773
3705+195289852+197714212+205831693+218272625+227873523+233447412+233823039
3692+230383582+234790599+253133282+270508081+278978287+281527024+280001558
3678+274134884+273095742+287127168+299713340+307528243+323325429+340989926
3665+353219753+361858387+367929879+370594381+374392755+382402225+383492657
3651+375327792+377560785+399268561+421660258+435987193+445175806+452388754
3638+458527617+464092380+468277755+467937624+466673430+478588733+496943248
3624+506978302+508539644+508773422+515318492+523513232+529169258+536341243
3611+542934097+547932609+556822816+566676945+571812600+574303987+578098170
3597+582790122+588562637+596200311+599785179+596446245+596999158+607113815
3584+616686343+621906973+625348145+627979151+630799657+634180774+634958283
3570+629732394+623608506+628050333+639476854+647878089+653677774+657535059
3557+657488418+654761652+653613070+656207076+658816782+659128257+660585038
3543+665124948+669896618+671934052+672755077+675211369+677547933+677795544
3530+677344677+677200028+676925820+676938090+679126346+683861587+687755835
3516+688612374+688891155+689003338+687822520+687148430+685949854+683565506
3503+683454618+684961469+685709407+687074886+689184340+690229884+690564147
3489+692306796+695554695+696959804+695081042+692737924+691511759+690801393
3476+690578856+691199597+692174950+691786501+690543646+690971268+692006295
3462+691967808+692712393+694753638+695510493+693585242+691482723+691124605
3449+690495100+689530950+690880729+693451643+693615345+691600469+690245736
3435+690261512+691346838+692009648+690999543+690388327+691355145+692208712
3422+692310225+692508756+692180285+691043593+690786684+692037770+693123934
3408+691676147+688426495+686155091+685408220+685629614+685821743+685308840
3395+685094915+685971041+687263205+687431555+687002714+687873734+688735760
3381+688821041+690257244+692059185+691216669+688009466+685215329+684371212
3368+684708143+685667720+687632906+689325027+688068682+684566008+682390708
3354+683021128+684794566+684663483+682353212+680662615+680125858+679606554
3341+680321417+682322117+682356336+680202679+678210210+677088455+677352222
3327+678377265+678324984+677174116+676215149+675624816+675076856+673870735
3314+671532342+670826472+672533226+671790089+667745552+665821444+666848849
3300+666825528+665576196+665496631+667607990+670694855+672049131+671343566
3287+669346829+666680041+665484361+666693530+668467502+669587962+670634877
3273+671502848+671326800+669383258+666785822+666237024+667333934+667047913
3260+664560984+662481862+662602428+663399675+664143498+664777196+663259066
3246+659340049+655583210+654044350+655739748+658507592+657716747+654579583
3233+654048389+655714675+656538367+656261720+655112605+652800581+650490310
3219+648664514+645740208+641703674+639401633+640077704+641521071+641609781
3206+639664944+637037328+636586919+638537740+640398630+640551282+639189728
3192+636953877+634495108+632194706+630029732+629204706+630361404+631213409
3179+630055758+627793615+625324329+622940590+621254109+620591070+620556394
3165+620541151+620396121+620210394+619991858+619226544+616998962+614779535
3152+614227650+613099227+610600523+609667658+610456750+610583642+609988736
3138+609354848+607256330+603201657+599914509+598784028+598373249+597900281
3125+597038026+595848938+594486622+591891854+588391428+585807520+584706952
3111+584055993+582728848+581041757+579288515+576646115+573349287+571106959
3098+570650491+570462477+568546600+565408331+563110596+561667801+559791897
3084+558128088+558379662+559554727+558795166+556438368+555279917+555608731
3071+555250805+553582309+551817483+550072472+548107628+546319672+544500126
3057+542390672+540262736+538805156+538272248+537638436+536541450+535645319
3044+534775328+533446545+531950897+530937476+530219908+529085997+527649528
3030+526101065+523968595+521279744+519099033+518454361+518952821+518775515
3017+517176715+515622499+514884430+514274358+513283992+512036031+511763994
3003+513216316+514974436+515713419+515848847+516681303+519261934+523249084
2990+527720938+532030118+535007772+536398058+537201516+537266067+535928749
2976+533765032+531312589+528354864+525222158+521798210+517258566+512542341
2963+509093891+506408241+503285061+499998370+498147158+498107871+498232820
2949+497700255+497500924+497746058+497539297+497027347+497092736+497728758
2936+497624501+496233263+494392225+492236358+489734491+487573671+485657908
2922+483080135+479268195+474529640+470048869+466533468+463657518+461290164
2909+459711484+458672647+457358192+455616114+454120657+453151020+452263081
2895+451032077+449915048+449654062+450057487+450348462+449834683+448404615
2882+446845102+445699683+444424972+442663270+440918221+439185517+437000538
2868+434700022+432554253+430360166+428451986+426984422+425394462+423207882
2855+420393930+417269303+413968246+410614260+407811626+405891404+404445103
2841+402772835+400726446+398966726+397771732+396692122+395535119+394378916
2828+393030166+391309009+389600388+388427267+387597477+386696583+385821677
2814+384841446+383301672+381503274+379859014+378252098+377041290+376467228
2801+375865844+374636974+372829964+371060908+369691809+368399455+366947667
2787+365428241+364080481+362856794+361316448+359438829+357602135+356045327
2774+354887524+353997300+352988071+351676016+350226705+348913735+347914795
2760+347195703+346592109+345985200+345339346+344638049+343819120+342886065
2747+341952552+341039273+340154650+339439292+338833030+338121978+337369391
2733+336665465+336041218+335691217+335507853+335037819+334120996+333126781
2720+332558549+332274243+331713403+330947898+330393727+329881930+329022037
2706+327978361+327092404+326295538+325491927+324709160+323785593+322731742
2693+321829514+321180727+320690650+320065031+319077122+317938010+316934668
2679+316172307+315560539+314911295+314183191+313317182+312297969+311336773
2666+310552767+309908476+309341654+308836507+308417744+307947596+307409106
2652+307068365+306995945+306997774+306898490+306776266+306749954+306587719
2639+306227582+306012114+306030366+306077713+306075026+306132604+306288666
2625+306312424+306042293+305665295+305365517+305137836+304972514+304862199
2612+304733935+304526240+304418096+304539501+304448657+303903231+303316404
2598+302831680+302314262+301731398+301083944+300547207+300076487+299413086
2585+298693175+298114064+297606515+297097633+296549388+295952272+295372017
2571+294825582+294300981+293879170+293546450+293172081+292699837+292150697
2558+291694762+291432385+291310676+291493831+291858350+291921262+291770421
2544+291676929+291625238+291803039+292309254+292716661+292737791+292709745
2531+292867293+293032424+293086934+293041988+293070434+293252084+293325457
2517+293244406+293151485+292900178+292481016+292174532+291966589+291637184
2504+291149718+290650971+290331055+290140946+289816800+289286083+288831559
2490+288609631+288394944+288131976+287935885+287806478+287730724+287544311
2477+287098760+286569282+286209297+286042966+285867680+285576495+285295904
2463+285086056+284862662+284570448+284256229+284052097+283885670+283477920
2450+282881357+282382439+281986635+281597310+281252739+280933280+280600922
2436+280296763+280031357+279713575+279287839+278998064+278947898+278822092
2423+278591991+278460545+278319345+278055901+277822904+277681208+277561975
2409+277607759+277889246+278165855+278231454+278094255+277929600+277918035
2396+278013166+277912205+277485154+277013139+276575458+275682680+273756514
2382+270518979+266053203+260867363+255538741+250098851+244321096+238532367
2369+233347099+228847447+224963621+222197434+221167628+222050289+225166114
2355+230770297+238318480+245497418+248400500+245428485+239527630+235495040
2342+234339885+234791418+236064110+237339964+238112481+238627498+239592143
2328+241159716+242803175+244326355+246303982+249155163+252346438+254911426
2315+256554467+257877744+259371315+261034285+262767541+264359939+265618227
2301+266549453+267219599+267799853+268458529+269062104+269478675+269824198
2288+270169721+270458848+270534469+270266681+269843956+269540901+269347401
2274+269153214+268930906+268640426+268285681+267985047+267823726+267754679
2261+267670084+267585623+267647430+267815534+267867872+267790498+267745000
2247+267755498+267752545+267711943+267656861+267632169+267617308+267603856
2234+267692376+267869377+267957915+267951037+267988438+267994516+267883304
2220+267794099+267771864+267783982+267885858+268091628+268364560+268559394
2207+268501226+268349394+268408591+268635987+268851798+269054959+269263702
2193+269437102+269531985+269584552+269648131+269655142+269610463+269592173
2180+269570662+269523678+269448876+269301998+269117871+269063723+269177602
2166+269251756+269241715+269294739+269406712+269548923+269699059+269801506
2153+269981994+270250944+270365947+270387572+270556437+270822757+271066386
2139+271272195+271453921+271662435+271970215+272387948+272743760+272931430
2126+273115100+273337580+273518067+273686304+273810662+273913719+274075477
2112+274200674+274279590+274408750+274569822+274732305+274812079+274759817
2099+274761665+274977382+275312673+275599819+275833902+276118513+276438982
2085+276730109+277037794+277324463+277500911+277710149+278049366+278351277
2072+278492230+278468757+278284916+278160921+278383115+278740660+278993949
2058+279301862+279618215+279715918+279659750+279669867+279792434+279912048
2045+279866378+279741258+279945752+280459989+280926040+281295379+281602873
2031+281802509+281919398+282114099+282392118+282537644+282324461+281706654
2018+281362731+281933421+282784302+283135693+283186393+283345141+283631524
2004+283942638+284212769+284438679+284701760+284714164+283977314+283295184
1991+283949707+285354739+286436921+287088471+287499822+287860988+288255115
1977+288687062+289090182+289419205+289434333+288790785+288339881+289174167
1964+290488813+291244601+291634460+291828151+291807383+291817596+291905772
1950+291773908+291134132+289673351+287663219+287213439+289080979+290701118
1937+290939850+290722172+290566110+290534273+290515315+289873158+288170520
1923+286786903+286241573+285509201+286193255+288699732+289984046+289346538
1910+288814163+289586565+290871946+291720541+292157594+292249371+291709433
1896+291006383+290907746+290278050+289142939+290114386+292460629+293818430
1883+294479125+295071287+295562546+295872345+295795314+294019571+289431209
1869+285854114+288366822+293626968+296646176+297544422+297972844+298556452
1856+299199657+299655801+299557736+298339002+295253128+290870498+290402999
1842+295711520+300047470+301185096+301877457+302039940+298968812+294889447
1828+295017082+297361381+300013784+304119843+307303572+308335722+308923178
1815+309128510+307680399+306275500+307614419+310184114+310910561+308833153
1801+306179188+306549061+308783692+308020531+303935564+303907708+310900081
1788+316808862+318317238+318276484+318212466+319026118+320804243+319764110
1774+313832218+308879928+312345392+320461520+327380940+329964238+328864966
1761+329627460+332390656+334648836+336895623+335816585+330947174+329866040
1747+335259556+341421663+344780184+346103937+348755368+351374143+348681100
1734+347390232+357356391+369810890+379871475+387022615+391298263+393344652
1720+390166829+383419342+386078585+401115238+416344859+426090577+429471808
1707+429194094+430677434+431713108+429587687+433221064+444695637+461608004
1693+480291371+491630058+496942524+498153484+494472818+499371341+520193923
1680+538933991+548598125+553553082+560603243+567119123+572405791+585236354
1666+600026159+607153559+612107221+621549161+629204477+626852023+614219191
1653+610774132+626477521+633861182+635908029+649060356+665242161+673129961
1639+671672876+663504237+662578193+678668392+694176718+701163394+705890785
1626+712542436+721602975+735880183+749687699+757773877+769557677+788418616
1612+802754963+810079104+814531752+818461210+820939603+821350840+820715389
1599+818970683+815366343+810616241+805171473+798160867+789889343+781377449
1585+772480611+763295161+753686662+741312147+724745856+712655381+710542955
1572+705551644+696104103+693016476+694474399+692931272+683956241+664664936
1558+656696429+676846789+697083724+710743086+721364434+731518835+738924598
1545+741090601+740756947+746386071+774287354+808196150+828642437+845136252
1531+864901973+878763675+884139244+886432138+885297885+880867414+878610948
1518+876600264+874664038+874323068+869043374+853798740+832606952+828483689
1504+849507736+864928951+867145787+864129570+867056468+877453755+883734561
1491+882629801+885344069+898955722+914594141+925570634+932282263+935616510
1477+935055366+931450569+930454258+939961929+953516653+958717697+956088177
1464+956201579+959884493+955409895+941191600+936903263+947199036+954732681
1450+954104090+948797036+946789476+949000520+948807248+943427946+932449014
1437+919414661+915252302+916455222+914048162+911940842+912642520+911537074
1423+908472387+904201884+901102063+907564862+920124265+929617457+935223869
1410+939823530+943701011+944928395+946736205+950270583+950133173+946927343
1396+945914494+950187055+957689377+960610177+957871751+956561297+959386375
1383+962212369+963146415+963351881+963174309+962949256+964860866+968179566
1369+969781833+969034505+965347552+960205038+959559756+963972318+967936375
1356+969429737+969587647+968808462+967211605+965542805+963771958+961359716
1342+957044858+951122321+947535890+947103086+946441648+945051019+944220772
1329+943814642+944315275+946221016+947837459+947358089+945558510+945768930
1315+948973922+952556237+955192160+957715137+960984985+964119482+965687302
1302+966225049+966479062+967235002+969094483+970184458+970161442+971826813
1288+975433439+978777898+981719352+985775092+990516962+994289501+997040045
1275+998904099+1000189327+1002115264+1004495040+1005900073+1005867530
1263+1005376272+1004991252+1004080907+1003117367+1003726829+1005563752
1252+1005931243+1004029770+1003067601+1005300289+1007569406+1006539943
1240+1004273036+1003231151+1003130171+1003523421+1004852547+1007369656
1229+1009632448+1010469020+1010690490+1011037861+1011564406+1012307009
1217+1013533021+1015029660+1015810445+1016541617+1018387532+1020077138
1205+1021610663+1024154750+1025970029+1026884260+1029170449+1032225610
1194+1034101933+1034367149+1033886788+1033978776+1034836382+1035699933
1182+1036911846+1039048050+1040940455+1042240925+1043801200+1044821899
1171+1044992917+1045708389+1046778245+1047360880+1048609222+1050927572
1159+1053103863+1054318520+1054379489+1054391226+1054711923+1054653088
1148+1055212251+1056771611+1058455501+1059866707+1060334187+1059754600
1136+1059477343+1061027482+1063527901+1063849360+1062213864+1061297880
1124+1059964639+1057568630+1057155793+1057712212+1055368027+1053250799
1113+1055702061+1057699866+1054112140+1048895548+1046556241+1047331463
1101+1048908200+1049606753+1051680997+1055253633+1055603825+1052556361
1090+1051273876+1053402002+1055646274+1055814473+1055628212+1057049783
1078+1060494460+1064224472+1064248784+1060878260+1059464463+1061675660
1067+1064515752+1066009266+1067453929+1070867283+1073741823+1070962700
1055+1065055786+1062537077+1062934595+1062122411+1059871051+1058642524
1043+1059059781+1059440381+1058261467+1056551818+1056420201+1055656715
1032+1050607484+1044150706+1042152749+1044406166+1045152504+1043077345
1020+1041813532+1040217133+1035911267+1033234953+1034680530+1036153086
1009+1037366675+1040767302+1043413970+1041770015+1037111596+1034261596
997+1035533182+1038098914+1040162946+1042202134+1043964064+1045310338
986+1046777787+1048177180+1049135005+1051030076+1054021829+1055906841
974+1055979775+1056282334+1059195818+1063600149+1066797215+1067774702
962+1066816954+1066311292+1067253493+1067555671+1066794091+1066758881
951+1067981616+1069140562+1069491363+1068709587+1067269040+1067773178
939+1070425943+1071636789+1070417560+1068554497+1066643573+1065926120
928+1066986372+1068375248+1070158670+1071804988+1070466183+1066341776
916+1064638148+1067387091+1069526725+1067688202+1063866050+1062161812
905+1064279268+1066421874+1065332052+1062487387+1061870685+1064388555
893+1065496516+1063305668+1060658009+1059432912+1059525661+1059941394
881+1059348775+1055640406+1048671716+1043567536+1043150965+1042196646
870+1038056083+1034076860+1031088384+1029748436+1029431091+1025016320
858+1018565486+1018250809+1022894748+1025080490+1023432724+1020880406
847+1019104986+1018455437+1019082122+1020821418+1022533735+1023036425
835+1021505263+1017817014+1013401709+1011123447+1012723580+1014635342
824+1013081774+1010911350+1009656607+1006825355+1004680005+1006139681
812+1007994894+1008019510+1007691725+1007581448+1006452452+1002486794+998148082
799+997598598+999395662+998831698+994250100+990356537+989675589+987216706
785+982754912+980982083+980972938+979718346+978068523+977351831+976090228
772+974071847+972787076+971079713+967637322+963320863+958509030+953835750
758+949061337+940982933+933108318+933321024+937598539+937685039+934628506
745+930849871+926124157+921196330+917310771+915149264+914013715+911739797
731+906651774+901043228+899043137+897947751+892165976+884814705+881051312
718+879667390+877622487+875503735+877066525+881220044+882899285+882415266
704+882512969+883406548+883211523+880291027+876975223+876283910+877143422
691+877685513+878786615+880356721+880367391+879711668+880363276+882088929
677+882082985+879519692+878919756+877065534+869096722+870671553+884827737
664+892126346+889749085+884678972+883691426+885165582+884657176+884784449
650+886030733+884524263+882068429+880284168+877695116+875634666+874513520
637+869391660+856778299+847817749+854073329+863199182+860432939+856136295
623+860428213+864787960+860857436+853398935+849788651+850115750+849790251
609+849169967+852038943+852965978+845493759+837844425+836649584
##END=
