##TITLE=Sample description
##JCAMP-DX=4.24
##DATA TYPE=INFRARED SPECTRUM
##DATE=12/9/2023
##SAMPLING PROCEDURE=Instrument type and / or accessory
##ORIGIN=Default
##XUNITS=1/CM
##YUNITS=ABSORBANCE
##RESOLUTION=4
##FIRSTX=4397.6552
##LASTX=599.8556
##DELTAX=-1.9287962
##MAXY=1.6778817
##MINY=0.13956101
##XFACTOR=1
##YFACTOR=1.5626491e-009
##NPOINTS=1970
##FIRSTY=0.19135812
##XYDATA=(X++(Y..Y))
4398+122457509+121368078+121055236+120972322+120453134+120913858+121994182
4384+121750399+120891287+121013698+121867565+122196571+121722830+121442687
4371+121544920+121627434+122123793+122756191+122440593+121590464+121065325
4357+120504780+120144993+120525683+120815114+120851465+121465029+122359719
4344+122890970+123307591+123851267+123804684+122796155+121756540+121129578
4330+120421580+119649626+119477905+120036790+120671028+121198951+121714668
4317+121868052+121658464+121307402+121094438+121705733+122807055+123157716
4303+123036525+123090250+122664456+121914567+121849972+122382538+122701340
4290+122314519+121550852+121406403+122426880+123619832+123570236+122546316
4276+121705275+121419248+121429308+121621560+122162299+122770933+122847982
4263+122555347+122530220+122639548+122280696+121567215+121017951+120865931
4249+121372818+122466845+123025873+122564177+122082074+121988842+121952205
4236+121916703+121995803+122312975+122896434+123635623+123919047+123285696
4222+122280515+121894742+122449556+123024948+122819089+122277044+122498227
4209+123420094+123654981+123248964+123133514+123326462+123782723+124416274
4195+124814882+124798690+124560342+124033554+123367571+123209686+123338000
4182+123180754+122730120+122103997+121663794+121748758+122102023+122365841
4168+122694589+123205014+123476041+123076633+122478459+122652841+123407288
4155+123534400+122618379+121801310+122073330+122680066+122897626+123092758
4141+123263297+123165926+123043210+123042666+122917651+122530964+122194978
4128+122155719+122441775+123107481+123600941+123283913+122615470+122166599
4114+121916599+121994211+122246567+121994802+121285365+120909023+121101819
4101+121155277+120694095+120435245+120687954+121143929+121675704+121860757
4087+121439998+120820865+120611706+121024455+121536023+121742369+121795198
4074+121596128+120853363+120088436+120103360+120397102+120187361+120083249
4060+120572361+120942456+120981334+121026324+120843636+120542857+120617275
4047+120932729+121105709+121031854+121073621+121528071+121921071+121915368
4033+121691152+121243073+120698358+120229080+119996501+120309773+120701123
4020+120634792+120520085+120758577+121177762+121292154+121146151+121301175
4006+121411199+120757470+120115232+120339801+120298120+119264607+118490917
3993+118851744+119941251+120964112+121263547+120862040+120518455+120664095
3979+120641801+119917049+119245249+119366354+119907389+120242459+120175489
3966+119792034+119301711+119208794+119467310+119430016+119069323+118263240
3952+116725739+115530527+116079830+116557880+115375732+115705853+118265576
3939+119492189+118232897+115516538+113793223+115190527+117230433+116491844
3925+114684241+114685538+114471993+113098366+113772415+117215080+119915342
3912+120111627+118365426+113490126+105961624+101642273+103215323+107910043
3898+113701030+116142718+112422790+108813801+111227406+112229394+109689343
3885+109602710+109059521+109002849+113478492+114138782+109042642+103860165
3871+101181673+103883804+106805316+105982069+108018217+112958275+113653132
3858+106860443+93931703+89310524+103082213+115057445+117748391+113715868
3844+107238758+101676564+97779927+98311702+103502714+107662025+110225667
3831+113018074+114382098+113761363+109682687+101175046+98574405+103627805
3817+107086223+113044364+119617481+119384701+113014717+107833289+106864191
3804+103567949+102616397+108493617+112453295+115845353+120539128+122626341
3790+122347656+120983308+119486716+119768023+119718198+118655124+121256147
3777+125672019+126269334+122854343+119920901+121450506+124874957+127944542
3763+128668102+125344359+123404990+125084259+123116311+114499971+108361259
3750+114154545+118827437+118054376+125493413+136440464+138076222+132300062
3736+128777821+136462692+151915977+164468232+169776601+172103669+176408812
3723+182901188+190918936+199175117+204210323+203105959+200141993+207693324
3709+226186299+244511119+257755952+268288547+282133871+297848485+308728794
3696+311928543+305882501+291842646+279920795+279046721+281349682+279302796
3682+273136984+264281418+253009186+245158335+248826884+252247235+251751677
3669+258153863+266615122+269761566+269614829+267543874+262653251+258317384
3655+257456679+252055927+239283766+234203837+245502597+258086369+263707208
3642+264793702+265041443+264804153+263301420+260196896+253907614+247161699
3628+251500236+261736285+265038372+261036755+255659423+256036565+259305182
3615+259930732+260329406+261752095+263814048+268206615+271899900+271672680
3601+270346646+270395947+270171378+270099802+272015589+272558597+268764862
3588+266880219+272086459+277896967+280203494+280690336+280930220+281156886
3574+281422269+280350765+275751366+270371268+271621072+277547440+281154674
3561+282785168+284441218+285039039+284118030+283259290+282784005+281522624
3547+280503567+281852888+284920012+287097634+286788769+285284643+285202864
3534+286492090+286793861+285465500+284248938+283833461+283709629+284329725
3520+285430122+285876075+285895814+285777799+284871208+283754943+283465035
3507+282950939+281814783+281911590+283104733+283383637+282885332+282836566
3493+282950500+282497434+281903504+281597442+281251882+280821530+280712917
3480+280906514+280996456+280962985+281054109+281310661+281542420+281664383
3466+281536699+280899667+280371592+280667488+281108349+280886488+280480224
3453+280502461+280019681+278392506+277256273+277724482+279107407+280470840
3439+280628887+279571859+278647761+278241172+278139634+278199481+278036209
3426+277502011+276677295+276321838+277216737+278397903+278589535+278106240
3412+277906922+278014353+277758716+277140622+276824891+276923587+276826436
3399+276536813+276430584+276274445+276329791+276902455+277320201+277375070
3385+277530409+277826382+277996349+278030068+278163360+278474418+278836723
3372+279180566+279167941+278450979+277853254+278245501+278905991+279015844
3358+279057935+279711178+280753864+281664841+282288103+282610662+282743439
3345+282822682+282948689+283412645+284265587+285252203+286071254+286247229
3331+286092557+286268875+286145405+285511863+285369341+285841441+286304215
3318+286287374+285683203+285158198+285093793+285135331+285449098+286061204
3304+286192665+285913646+285889749+285804041+285579816+285747055+285967905
3291+286169893+286860497+287399424+286975766+286207216+285949787+285948738
3277+285710895+285274860+285037055+285052465+284503849+283400649+282850222
3264+283114650+283596000+283548206+282906979+282583485+282756179+282595424
3250+281920306+281246733+281158984+281899919+282711571+282871830+282607687
3237+282394142+282437816+282374307+282044901+281998977+282396583+282812498
3223+282731996+281995868+281210611+280833889+280732237+280803546+280687685
3210+280310314+280454744+280946812+280561393+279271824+278014849+277143979
3196+276657804+276606330+276677906+276319396+275414274+274406337+273668568
3183+272871049+271591740+270223978+269060244+267865995+266896716+266439205
3169+266304731+266244636+265767787+264696437+263628252+262914247+262533576
3156+262652106+262954564+262501383+261144472+259740969+258800908+258218955
3142+257749067+257373641+257202054+256691162+255538432+254411583+253503543
3129+252670988+252039926+251189101+249780124+248421497+247516222+246407929
3115+244623279+242969651+242091172+241326112+240109454+238492578+236495202
3102+234551990+233203623+232077212+230620404+229072929+227691759+226325598
3088+225153606+224446868+224035225+223586240+222845630+221960323+221216242
3075+220362918+219367644+218624841+218093295+217704995+217445811+217120678
3061+216738520+216264150+215713933+215336218+215187574+214965045+214477173
3047+214108670+213896956+213275448+212330295+211579405+210962952+210095115
3034+209051761+208241768+207618220+206839390+205867613+204986921+204519170
3020+204254054+203692184+202850246+202036191+201404137+200762929+199827826
3007+198766659+197844392+197068099+196353464+195542327+194608292+193924115
2993+193748923+193762006+193823722+194217476+194818195+195114073+194928200
2980+194527390+194228823+194222434+194407563+194472121+194318556+193990084
2966+193492409+192906814+192383811+191872977+191059189+189947387+189079435
2953+188762197+188694550+188618130+188576458+188468379+188173627+187902237
2939+187800184+187674121+187336609+186746951+186028426+185363130+184683130
2926+183963270+183313041+182501694+181360236+180245764+179465828+178942959
2912+178482092+177997310+177686442+177722964+177769937+177523741+177200610
2899+176881694+176501767+176340344+176473026+176493318+176232227+175984944
2885+175890615+175820222+175759154+175769320+175968885+176357833+176591423
2872+176444094+176120372+175867653+175704514+175550777+175266285+174813257
2858+174374990+173968268+173414960+172681540+171846545+171015955+170448668
2845+170285891+170189560+169912373+169734186+169860746+170075874+170191792
2831+170252001+170319743+170269509+169918933+169542344+169376974+169152958
2818+168857423+168708703+168708970+168684291+168440917+168124404+168053438
2804+168293989+168660032+168930506+169007975+168938974+168806864+168720127
2791+168879566+169093378+168942369+168670464+168624482+168605773+168519702
2777+168519931+168452627+168143590+167871571+167678833+167277641+166895655
2764+166811320+166795834+166733279+166718860+166762210+166844657+166868382
2750+166804282+166757557+166655466+166460363+166381883+166389092+166199882
2737+165845206+165606486+165556480+165514847+165363990+165217348+165175257
2723+165173216+165156719+165103452+164944947+164702051+164566947+164660856
2710+164875317+164999340+164876518+164569083+164302461+164231572+164345391
2696+164496554+164534334+164374705+164153302+164147561+164255888+164200676
2683+164046691+163930964+163757145+163418299+163106801+163007228+162915665
2669+162707746+162536978+162376013+162103651+161801555+161553090+161310880
2656+161047176+160749410+160421282+160175791+160051253+159921108+159665443
2642+159293031+158963711+158721205+158462154+158181315+157850402+157443232
2629+157026630+156643881+156332297+156029783+155638432+155314738+155235696
2615+155188875+154908426+154538283+154271537+154047798+153770277+153373147
2602+152980233+152817609+152806242+152843336+152950843+153016517+153038173
2588+153004730+152732501+152335305+152052072+151853946+151689977+151595220
2575+151594047+151663821+151700076+151638322+151515796+151355289+151162789
2561+150993127+150866129+150660813+150299357+149963295+149865534+149923550
2548+149925591+149854663+149712389+149399270+149003542+148699502+148481417
2534+148320844+148290872+148360532+148306835+148018109+147665884+147493496
2521+147535663+147619617+147633310+147553581+147376930+147182923+147085934
2507+147072050+147021634+147015674+147181321+147332731+147301720+147199067
2494+147230526+147504204+147848133+147995767+148081809+148434644+148925063
2480+149213226+149289350+149299268+149288416+149278832+149340176+149415633
2467+149390192+149374258+149470960+149599770+149703511+149765885+149785614
2453+149767639+149791183+150034004+150384665+150514324+150479012+150572006
2440+150813024+151019399+151084891+151080132+151152547+151299123+151404923
2426+151415546+151328388+151263487+151349176+151496171+151618344+151712539
2413+151719834+151689005+151780463+152009361+152208574+152293891+152441191
2399+152733455+152919308+152908056+152972766+153176633+153253310+153029695
2386+152316844+150735688+148083249+144493933+140194979+135478909+130662016
2372+125667690+120364480+115276188+110953394+107542741+105322924+104702541
2359+105942819+109236582+114546401+121722573+129092446+132730023+130521849
2345+124912424+120781186+119477571+119612026+120519094+121687901+122417201
2332+122838132+124051338+126250368+128449026+130231063+132173512+134748883
2318+137615984+140009144+141686459+143233582+145116155+147145371+148967611
2305+150419928+151594733+152656777+153593492+154364245+155026146+155569650
2291+156020485+156529870+157075244+157499016+157768747+157859232+157769681
2278+157698906+157760384+157795018+157734170+157711122+157770091+157838864
2264+157941717+158120791+158273106+158352282+158448385+158574420+158672238
2251+158768512+158846420+158753321+158572513+158582010+158763258+158926435
2237+159016720+159071761+159139389+159226604+159274903+159260037+159250014
2224+159275256+159320894+159397658+159466983+159451840+159385547+159421268
2210+159588155+159710757+159726472+159738478+159747899+159796790+159967138
2197+160088653+160083580+160107896+160152962+160161125+160194901+160259058
2183+160344900+160520760+160750649+160879479+160862428+160803268+160801266
2170+160887756+161067125+161229692+161235909+161166889+161151078+161191911
2156+161301897+161472264+161598671+161603325+161501234+161403530+161455347
2143+161625486+161791028+161923118+161984968+161968032+161960022+161999786
2129+162058413+162146142+162243579+162303407+162393101+162511174+162544244
2116+162568408+162688731+162833600+163001754+163210398+163387193+163588723
2102+163893851+164263364+164652617+165097349+165754769+166703889+167867032
2089+169211756+170781888+172556774+174423260+176308571+178152992+179854299
2075+181351482+182637675+183739540+184612985+185190322+185682047+186435359
2062+187463340+188566865+189605623+190490014+191242277+191951094+192728246
2048+193632166+194596926+195556707+196534531+197657051+198874834+199909643
2035+200644646+201169460+201474760+201364392+200864619+200202870+199392630
2021+198314546+196967553+195805440+195356588+195269373+194874228+194220870
2008+193706832+193443147+193341590+193302932+193313498+193473356+193543826
1994+193057728+192650681+193405023+194944087+196529896+197979934+199238778
1981+200531723+202039472+203710188+205525543+207525322+209435654+210969703
1967+212975012+216235771+219785028+222769381+225534124+228277679+230848825
1954+233204252+235337170+237085451+238055093+237903492+237053487+237249715
1940+239060188+240501625+240587447+240043352+239620266+239601423+239693806
1927+239162470+237680105+236502354+236177716+235755317+236311351+238225555
1913+239136513+238402445+237584213+237580857+237661873+237156417+236353252
1900+235313865+233513118+231393131+229942425+228235759+226115753+225785069
1886+226749237+227012903+226751335+226507790+226347569+226226235+225811159
1873+223948258+219843177+216697134+218653525+222884746+225228348+225771414
1859+225944051+226314193+226737642+226966444+226715652+225546235+222916786
1846+219200672+218427831+222273422+225373808+225709202+225382924+224322635
1832+220434990+215674740+214436131+215129844+216042328+218115360+219543752
1819+219301828+218681522+217771727+215628205+213481327+213452700+214566524
1805+214444351+212153596+209350633+208989778+210296302+209337397+205627844
1792+205032636+210123417+214357079+214945096+214243335+213544931+213547067
1778+214428598+213229848+208135596+203682076+205961770+211950521+216850051
1765+218248557+216605991+216257837+217487235+218336763+219177137+217321884
1751+212268140+210209850+213475033+217305616+218773714+218519241+219189782
1738+219859846+216218988+213113053+218705495+226424466+232073245+235116702
1724+235722475+234582943+229248369+220604442+219207366+228031864+237107936
1711+241688150+241128892+237660595+235748279+233560435+228181367+226875625
1697+232382035+242077421+252859016+257946669+258087780+254856735+247458282
1684+246436403+258480046+269132258+272617071+272425077+274164947+276052336
1670+277433639+285284796+295041078+298950484+301785163+308834909+314647133
1657+312630514+302741111+301429476+315388754+321622480+324233353+336353283
1643+350161283+356952894+356445931+350762613+350882726+363590940+374504396
1630+378132666+379172453+380290015+381950242+386952244+391488592+391225632
1616+393392402+401987315+408439451+410234667+410806206+412311724+413698043
1603+414593000+416086960+418174507+420027738+422085457+425320965+429299353
1589+433367110+437649043+442508961+448309417+454381950+457780292+457973374
1576+463011155+473918660+480322849+484673897+494701360+506651208+515342700
1562+517037027+510563493+515476965+540735556+563466312+580589197+594152585
1549+606255845+615342045+618952616+618731271+622608769+644694941+670719679
1535+685524784+697348226+712781247+725282877+733258342+740464152+746242790
1522+753471867+767032508+783165765+801256919+819382554+830673133+832485933
1508+830137524+843398053+872683055+891429740+897821723+899947451+906465612
1495+917804938+925252805+927476638+932214726+943184749+954370357+962401436
1481+968004997+971033959+970372553+966026807+961200455+963282013+971793469
1468+976687335+975613066+975375585+975255739+967288741+952821357+949074919
1454+959357674+968896635+972073364+968778849+964129863+961770927+960085831
1441+956578856+948883439+938704586+933582012+931962218+927384560+922099420
1427+919881767+919128588+918628072+918867535+921122722+926990692+934845091
1414+940599394+943061317+945754923+949219253+951216590+953961537+958273488
1400+961284294+962715050+964134745+968229127+975336679+979797694+978982037
1387+977215543+978398139+981035903+983555499+984964895+983913589+982707039
1373+985548031+990617432+992947151+992517275+990821346+988661595+989738839
1360+993407007+994580677+993447133+992496830+991478556+989302784+986710945
1346+984802634+982585972+978024716+972442744+969643024+968389863+966379252
1333+966122776+967416598+966246055+963661692+964131236+967970591+972433361
1319+975656702+977376737+978371439+980394485+984135812+987298886+988920359
1306+991482904+996035464+1000069655+1001913427+1003467082+1005519879+1007331611
1292+1010303358+1014363030+1017644424+1021228906+1027006400+1033759753
1281+1038765532+1041629867+1043784889+1045878500+1048656403+1052947451
1269+1056645066+1056858745+1056260581+1058836782+1062598401+1064991590
1258+1066565613+1067074750+1066917218+1067644993+1068463244+1067890483
1246+1067585718+1069122360+1070474618+1070873521+1072073586+1072995282
1234+1072159714+1071780035+1073108873+1073741823+1072274525+1070014457
1223+1067944952+1066357121+1065753389+1066260237+1066248108+1063906107
1211+1060926197+1059648396+1059546477+1059591486+1059075864+1057742297
1200+1056878808+1056643693+1055394575+1052619876+1048673186+1044726419
1188+1042862431+1043125772+1043513690+1043058411+1041242102+1037253988
1177+1032552288+1029390053+1028314030+1028558605+1028175340+1026043205
1165+1023194660+1021390862+1021007217+1020767753+1020342836+1019508031
1153+1017492232+1015179068+1013099646+1011267927+1011254882+1012770698
1142+1013020537+1011216052+1008934242+1008267725+1009035398+1007647972
1130+1003908324+1002113909+1003021491+1004649983+1006245671+1006258563
1119+1003738128+1000820239+999644738+999796091+1001157503+1003583419+1003473337
1105+1001273993+1001975143+1005162171+1008389402+1010754213+1011636239
1094+1011716493+1011954888+1014634992+1021244392+1028651751+1032876201
1082+1033813306+1033071647+1032067486+1033603976+1037560965+1039674869
1070+1039364306+1040558650+1044606344+1047724180+1047856385+1047966542
1059+1049384406+1050917234+1051584666+1050229434+1047252499+1044396784
1047+1042734498+1042607328+1043001959+1044020767+1047405759+1050419540
1036+1049022960+1045446641+1042868839+1041044519+1039066788+1036436805
1024+1034852255+1036272026+1037691186+1036807329+1036039885+1036034698
1013+1036653840+1037918216+1037579427+1036081462+1035676913+1035760676
1001+1036856229+1040075450+1042554843+1041885809+1039334935+1037144440
989+1037040080+1038137692+1038689474+1040154788+1043382782+1046074481
978+1047563139+1048149402+1047833346+1048781665+1051040819+1051555220
966+1049846932+1049811078+1054469904+1059142844+1059411526+1058754011
955+1058773464+1058264861+1057741534+1056811752+1056033323+1056876062
943+1057939193+1057211113+1055663104+1055056625+1053734348+1051250683
932+1050571732+1050226459+1048213101+1046868549+1047202455+1048680891
920+1049992564+1049776596+1048410683+1046991141+1046607648+1046750762
908+1047584728+1051475653+1056754309+1057718267+1054820365+1053802777
897+1055073942+1055321950+1053212242+1048797304+1043338841+1037949417
885+1033199885+1030548008+1029397071+1026275497+1021881080+1020453147
874+1021136141+1021711114+1022215292+1019565094+1013923924+1010800824
862+1010954389+1012546186+1013963211+1012436257+1008794179+1006955594
851+1009417670+1013339339+1012859877+1008685700+1005045910+1002951536
839+1002467650+1004477117+1008709425+1011815665+1011448345+1008386885
827+1004364823+1002095676+1002087056+1002543403+1003186652+1003882844
816+1003630716+1002164487+999891220+997964219+997477129+996741649+994713873
802+994414219+996048585+995279692+991383960+987484949+984038775+980594280
789+978873024+978633026+978442614+978029141+976145699+972759639+968756344
775+965470601+965236401+965674363+962072412+954740043+949444985+950639405
762+953550199+951171886+945959905+946266120+950342193+944910964+931895162
748+923993618+920557819+917127971+914784521+914508744+914609366+911929187
735+906212264+900918733+898074461+895491623+890858200+885347633+880857476
721+877445631+874265698+871475742+870221665+870861787+871825364+871068600
708+869766005+871184861+875287176+879045591+880465896+878970601+876336270
694+874997363+873980767+872375162+872349377+874301705+876188732+878356341
681+881454343+883757590+884289384+883701443+882077757+876260441+867726863
667+872598758+887011750+889854573+883475405+879586769+881339760+884448823
654+886236372+886674868+885806192+882581783+875950184+870663136+873980843
640+883053769+888207391+888357370+890585475+893684239+888203195+878807348
627+876386009+875442648+867265481+856641724+850762387+849813686+849026331
613+844795396+839651768+835725217+832641252+835653050+845498683+849319348
600+841259509
##END=
